Timestamp,Flexor carpi radialis,Extensor digitorum
2.000000000000000000e+00,1.117661355865260936e-05,2.869826526893133470e-05
2.000793650793650791e+00,1.927492605422277873e-05,4.298709527111083844e-05
2.001587301587301582e+00,2.505759639345019331e-05,5.058281504012703456e-05
2.002380952380952372e+00,2.725715223160272719e-05,4.880301554648602114e-05
2.003174603174603163e+00,2.552265997777676860e-05,3.621953998135254646e-05
2.003968253968253954e+00,2.047056290636120794e-05,1.313806441288677120e-05
2.004761904761904745e+00,1.346865927757603395e-05,-1.802281163391459886e-05
2.005555555555555536e+00,6.232740134200318800e-06,-5.270124272463317397e-05
2.006349206349206327e+00,3.659620493468217140e-07,-8.475102165975984404e-05
2.007142857142857117e+00,-3.028910158467118050e-06,-1.076276341539708631e-04
2.007936507936507908e+00,-3.575917726687332155e-06,-1.159278153718296822e-04
2.008730158730158699e+00,-1.659600837395034915e-06,-1.067841714531097115e-04
2.009523809523809490e+00,1.718702709722047874e-06,-8.064867170767703341e-05
2.010317460317460281e+00,5.217100874093978290e-06,-4.127547381481929588e-05
2.011111111111111072e+00,7.497024583223118949e-06,4.974585688033670777e-06
2.011904761904761862e+00,7.556635688726474393e-06,5.025060277696733911e-05
2.012698412698412653e+00,4.977022495558026919e-06,8.654203623910858268e-05
2.013492063492063444e+00,2.554522271953391446e-08,1.070864829461917159e-04
2.014285714285714235e+00,-6.404448318027948889e-06,1.076963816016060884e-04
2.015079365079365026e+00,-1.300111071311871265e-05,8.777776145665555185e-05
2.015873015873015817e+00,-1.834101165463491510e-05,5.079481163514430162e-05
2.016666666666666607e+00,-2.122600008467387530e-05,3.990490553487422662e-06
2.017460317460317398e+00,-2.097117338545660621e-05,-4.271476809734690014e-05
2.018253968253968189e+00,-1.757219240136264778e-05,-7.856917393452933582e-05
2.019047619047618980e+00,-1.170734202373097354e-05,-9.431688984962640775e-05
2.019841269841269771e+00,-4.573743851345878147e-06,-8.454840115436846259e-05
2.020634920634920562e+00,2.395815095240167527e-06,-4.945115492670356451e-05
2.021428571428571352e+00,7.857101536094456223e-06,4.702457451465987765e-06
2.022222222222222143e+00,1.083650581911475556e-05,6.676233287460566911e-05
2.023015873015872934e+00,1.090878908262762140e-05,1.234913389299380844e-04
2.023809523809523725e+00,8.242989081548226184e-06,1.631653108204118353e-04
2.024603174603174516e+00,3.522826549731441354e-06,1.787751387373252799e-04
2.025396825396825307e+00,-2.227474070619954022e-06,1.696865267404972768e-04
2.026190476190476097e+00,-7.867663011757735180e-06,1.411854355934890649e-04
2.026984126984126888e+00,-1.236845192815246375e-05,1.021620965908577507e-04
2.027777777777777679e+00,-1.499772190430315673e-05,6.187966707277815456e-05
2.028571428571428470e+00,-1.543426596763144154e-05,2.704508599984840279e-05
2.029365079365079261e+00,-1.379473612126199098e-05,1.860665904696405835e-07
2.030158730158730052e+00,-1.057797298862932858e-05,-2.022597168636586400e-05
2.030952380952380842e+00,-6.544448471032197139e-06,-3.814988643615020768e-05
2.031746031746031633e+00,-2.555213275445397549e-06,-5.763496988470691426e-05
2.032539682539682424e+00,6.018862777895807069e-07,-8.075281388201624075e-05
2.033333333333333215e+00,2.367146360563956437e-06,-1.065599096415776595e-04
2.034126984126984006e+00,2.511600166385849538e-06,-1.313411772958884350e-04
2.034920634920634797e+00,1.161544990956029735e-06,-1.498722691785811490e-04
2.035714285714285587e+00,-1.259697269051471363e-06,-1.571517820480039247e-04
2.036507936507936378e+00,-4.152167918316710398e-06,-1.500434150914928754e-04
2.037301587301587169e+00,-6.886101659217198944e-06,-1.284233250079713957e-04
2.038095238095237960e+00,-8.939865959162999234e-06,-9.559739171303369967e-05
2.038888888888888751e+00,-1.000250771153052899e-05,-5.786496378192743475e-05
2.039682539682539542e+00,-1.002340109683448097e-05,-2.321524490040534838e-05
2.040476190476190332e+00,-9.200108324994416185e-06,6.521535419426916671e-07
2.041269841269841123e+00,-7.907933459722056260e-06,8.500790289874341949e-06
2.042063492063491914e+00,-6.590465436101815293e-06,-7.657101558687711201e-07
2.042857142857142705e+00,-5.642513250772484912e-06,-2.355346825736397454e-05
2.043650793650793496e+00,-5.317911351201403823e-06,-5.241805145856331369e-05
2.044444444444444287e+00,-5.683806897967993102e-06,-7.804760114012523377e-05
2.045238095238095077e+00,-6.625656243119584669e-06,-9.173667274141672295e-05
2.046031746031745868e+00,-7.890541968779896982e-06,-8.756146213477769503e-05
2.046825396825396659e+00,-9.145904969177043960e-06,-6.362691516763387145e-05
2.047619047619047450e+00,-1.002887391050444733e-05,-2.214183048389521224e-05
2.048412698412698241e+00,-1.016842212172026177e-05,3.146324210386377846e-05
2.049206349206349032e+00,-9.177075938107190689e-06,8.985594336385503613e-05
2.049999999999999822e+00,-6.627628107618172557e-06,1.450608892918535051e-04
2.050793650793650613e+00,-2.048337024289968588e-06,1.894505871670939688e-04
2.051587301587301404e+00,5.020433234526291530e-06,2.165709275514454766e-04
2.052380952380952195e+00,1.487483444300767071e-05,2.219866443129563127e-04
2.053174603174602986e+00,2.740475114613735930e-05,2.041542432959691567e-04
2.053968253968253777e+00,4.182205720859716032e-05,1.650712201824851516e-04
2.054761904761904567e+00,5.648040448302639265e-05,1.103310451033504686e-04
2.055555555555555358e+00,6.892738929581005141e-05,4.832567205618674527e-05
2.056349206349206149e+00,7.628341507426430806e-05,-1.137015262169946962e-05
2.057142857142856940e+00,7.592689238501121427e-05,-6.005603009064238248e-05
2.057936507936507731e+00,6.631654488914410649e-05,-9.179923371237569863e-05
2.058730158730158522e+00,4.766416577777556366e-05,-1.045776414024635157e-04
2.059523809523809312e+00,2.216167109742007033e-05,-1.003585787689179000e-04
2.060317460317460103e+00,-6.397518143928625522e-06,-8.418591681232009396e-05
2.061111111111110894e+00,-3.352689809105656395e-05,-6.265523810690714539e-05
2.061904761904761685e+00,-5.518691471390110967e-05,-4.226758660956192421e-05
2.062698412698412920e+00,-6.875792221892661020e-05,-2.807180168949764709e-05
2.063492063492063711e+00,-7.351297453073732738e-05,-2.282494395195133370e-05
2.064285714285714501e+00,-7.045932958216686692e-05,-2.672238251623684126e-05
2.065079365079365292e+00,-6.167146665239173621e-05,-3.763313203313682821e-05
2.065873015873016083e+00,-4.943412665570173602e-05,-5.172434489486606580e-05
2.066666666666666874e+00,-3.555906109310589858e-05,-6.433981495142216366e-05
2.067460317460317665e+00,-2.111148139418929351e-05,-7.098681225558080320e-05
2.068253968253968456e+00,-6.555014867794304892e-06,-6.828300758046783911e-05
2.069047619047619246e+00,7.869735668455783784e-06,-5.471957376415935534e-05
2.069841269841270037e+00,2.177502353025577463e-05,-3.109957506859148917e-05
2.070634920634920828e+00,3.442712877458191400e-05,-5.297676718557886545e-07
2.071428571428571619e+00,4.475471426173440576e-05,3.208339150260148067e-05
2.072222222222222410e+00,5.151186554029522029e-05,6.096091721641730518e-05
2.073015873015873201e+00,5.351881739948093775e-05,8.062150034456720975e-05
2.073809523809523991e+00,4.992134351285198508e-05,8.707300373366605711e-05
2.074603174603174782e+00,4.043695388644639728e-05,7.880932869768506131e-05
2.075396825396825573e+00,2.556233511261553749e-05,5.739720482632668227e-05
2.076190476190476364e+00,6.693487978168060404e-06,2.743369105172275231e-05
2.076984126984127155e+00,-1.391538793437054839e-05,-4.273359905809789078e-06
2.077777777777777946e+00,-3.341758066848059949e-05,-3.024039394323283064e-05
2.078571428571428736e+00,-4.886590621996900039e-05,-4.421301517709882707e-05
2.079365079365079527e+00,-5.783824819195639130e-05,-4.289478743117249184e-05
2.080158730158730318e+00,-5.901995861906945143e-05,-2.695880065848621531e-05
2.080952380952381109e+00,-5.254672298060572290e-05,-1.008103344228049633e-06
2.081746031746031900e+00,-3.998006064082301769e-05,2.753451242129937324e-05
2.082539682539682691e+00,-2.391350506739832116e-05,5.032167330990831085e-05
2.083333333333333481e+00,-7.329157710894919289e-06,6.026568185164809372e-05
2.084126984126984272e+00,7.103565630270729621e-06,5.344183595444606562e-05
2.084920634920635063e+00,1.758714842187026952e-05,3.021303103189074477e-05
2.085714285714285854e+00,2.346660535015400505e-05,-4.715110615939490022e-06
2.086507936507936645e+00,2.516305202506498060e-05,-4.331468466937147632e-05
2.087301587301587436e+00,2.382918315774786429e-05,-7.607776954770348462e-05
2.088095238095238226e+00,2.086204754270117492e-05,-9.426827753086692598e-05
2.088888888888889017e+00,1.743285943213354470e-05,-9.210677056110357422e-05
2.089682539682539808e+00,1.416934730499631200e-05,-6.839566817804351901e-05
2.090476190476190599e+00,1.106861853918588203e-05,-2.712885099309919517e-05
2.091269841269841390e+00,7.646288646880514107e-06,2.321119968733372763e-05
2.092063492063492181e+00,3.260459858513387757e-06,7.162978667128234349e-05
2.092857142857142971e+00,-2.495755814804064989e-06,1.073888555237871849e-04
2.093650793650793762e+00,-9.451608729774310156e-06,1.227453814659050112e-04
2.094444444444444553e+00,-1.666414156281099512e-05,1.148035013018565984e-04
2.095238095238095344e+00,-2.243222662905638366e-05,8.595073063879533069e-05
2.096031746031746135e+00,-2.454481470416032302e-05,4.287946213838822706e-05
2.096825396825396925e+00,-2.075711711998315688e-05,-5.334252731903001984e-06
2.097619047619047716e+00,-9.437634874666000139e-06,-4.941907779583701516e-05
2.098412698412698507e+00,9.748204867312635711e-06,-8.177729419448469131e-05
2.099206349206349298e+00,3.532154133005976020e-05,-9.769744293108640406e-05
2.100000000000000089e+00,6.385645854604434922e-05,-9.582695248561148784e-05
2.100793650793650880e+00,9.037380579870853072e-05,-7.798922160777094019e-05
2.101587301587301670e+00,1.092606903790457006e-04,-4.850370330737127796e-05
2.102380952380952461e+00,1.155330031749972726e-04,-1.318359275311546048e-05
2.103174603174603252e+00,1.061141458074944360e-04,2.181156019054380563e-05
2.103968253968254043e+00,8.076307574585014297e-05,5.107852649758131243e-05
2.104761904761904834e+00,4.236382014367179446e-05,7.083002384678424557e-05
2.105555555555555625e+00,-3.547499352978060581e-06,7.934631120104493666e-05
2.106349206349206415e+00,-4.993441941637345781e-05,7.695070558003401550e-05
2.107142857142857206e+00,-8.979927980924525758e-05,6.557438881721240089e-05
2.107936507936507997e+00,-1.176826056527606121e-04,4.808620595552111772e-05
2.108730158730158788e+00,-1.307064675998875129e-04,2.760373188616423241e-05
2.109523809523809579e+00,-1.289108060737470681e-04,6.963267803484605429e-06
2.110317460317460370e+00,-1.148716596839749997e-04,-1.156797961060427540e-05
2.111111111111111160e+00,-9.279742070485105549e-05,-2.636169740908677660e-05
2.111904761904761951e+00,-6.740675885460909952e-05,-3.637943184259946584e-05
2.112698412698412742e+00,-4.289142896030946590e-05,-4.111787908552996232e-05
2.113492063492063533e+00,-2.218867579911769759e-05,-4.061533732214958625e-05
2.114285714285714324e+00,-6.673241017539609051e-06,-3.550856647899876592e-05
2.115079365079365115e+00,3.736294982663520216e-06,-2.706400394219005693e-05
2.115873015873015905e+00,1.015488150968175534e-05,-1.709092238320989869e-05
2.116666666666666696e+00,1.414734409686156457e-05,-7.685427022714557115e-06
2.117460317460317487e+00,1.715529537519172395e-05,-8.287565936733869515e-07
2.118253968253968278e+00,2.008300896860049401e-05,2.068314518828107797e-06
2.119047619047619069e+00,2.313364773442899046e-05,5.505039707314532512e-07
2.119841269841269860e+00,2.590756308633846257e-05,-4.681283890541746368e-06
2.120634920634920650e+00,2.769367543706993296e-05,-1.182406595057592856e-05
2.121428571428571441e+00,2.783170683811809787e-05,-1.829520327614615659e-05
2.122222222222222232e+00,2.601599384120416503e-05,-2.128167779251287231e-05
2.123015873015873023e+00,2.244702652968453684e-05,-1.842900007961318159e-05
2.123809523809523814e+00,1.779524160015827702e-05,-8.546406170664378940e-06
2.124603174603174605e+00,1.300314026450749853e-05,7.826224601102755590e-06
2.125396825396825395e+00,9.001285015594297022e-06,2.817288183265350649e-05
2.126190476190476186e+00,6.437349511817439206e-06,4.826217037143606817e-05
2.126984126984126977e+00,5.506329616631931449e-06,6.301253984636098608e-05
2.127777777777777768e+00,5.929082549041056348e-06,6.784410400112654105e-05
2.128571428571428559e+00,7.073620431747667958e-06,6.012510059719541395e-05
2.129365079365079350e+00,8.169396380347023550e-06,4.017007013138134390e-05
2.130158730158730140e+00,8.542180451710684841e-06,1.136107366463448159e-05
2.130952380952380931e+00,7.799452259533670744e-06,-2.069418272700226976e-05
2.131746031746031722e+00,5.919014072110769683e-06,-4.967242425016184460e-05
2.132539682539682513e+00,3.227103981659553560e-06,-7.019154692903596150e-05
2.133333333333333304e+00,2.853990322905886125e-07,-7.909732853558604324e-05
2.134126984126984095e+00,-2.270962921133229821e-06,-7.605049823600030037e-05
2.134920634920634885e+00,-3.895670053224480172e-06,-6.334209878312346343e-05
2.135714285714285676e+00,-4.254020372921877676e-06,-4.509010720577092307e-05
2.136507936507936467e+00,-3.283873600719250370e-06,-2.610481232282643897e-05
2.137301587301587258e+00,-1.190557111749052666e-06,-1.073981092726734774e-05
2.138095238095238049e+00,1.614272617104204990e-06,-1.985598700492534030e-06
2.138888888888888840e+00,4.610353545113568783e-06,-9.539238236832114870e-07
2.139682539682539630e+00,7.279208732150834999e-06,-6.793157046719570438e-06
2.140476190476190421e+00,9.204465018424630825e-06,-1.699815832493384044e-05
2.141269841269841212e+00,1.014465625578651738e-05,-2.803048474823735696e-05
2.142063492063492003e+00,1.006653049243711830e-05,-3.613014223300946992e-05
2.142857142857142794e+00,9.130919260437385886e-06,-3.817091567007685997e-05
2.143650793650793585e+00,7.629275567031172448e-06,-3.239418077161565533e-05
2.144444444444444375e+00,5.881195741912300459e-06,-1.886349899692561988e-05
2.145238095238095166e+00,4.120520863243879163e-06,4.779049928920523391e-07
2.146031746031745957e+00,2.411542597456030208e-06,2.219351999042272543e-05
2.146825396825396748e+00,6.351252848573046932e-07,4.213491715675271197e-05
2.147619047619047539e+00,-1.439204040363539514e-06,5.646155448338937947e-05
2.148412698412698330e+00,-4.016553870291095961e-06,6.264810962446978068e-05
2.149206349206349120e+00,-7.128420120449821446e-06,6.018973913101773905e-05
2.149999999999999911e+00,-1.053581644943866380e-05,5.077277559630571398e-05
2.150793650793650702e+00,-1.373080278238122585e-05,3.783139481176621746e-05
2.151587301587301493e+00,-1.604843365456423983e-05,2.560367317337214663e-05
2.152380952380952284e+00,-1.685939051094361544e-05,1.795632574812314943e-05
2.153174603174603075e+00,-1.577982905324225516e-05,1.731628101831494981e-05
2.153968253968253865e+00,-1.282307296307161702e-05,2.401220814946189983e-05
2.154761904761904656e+00,-8.434913733569053746e-06,3.619538564477920757e-05
2.155555555555555447e+00,-3.395505216195156185e-06,5.032140607131795030e-05
2.156349206349206238e+00,1.380571565472538128e-06,6.201654798334316101e-05
2.157142857142857029e+00,5.078895106772754529e-06,6.708714336131307203e-05
2.157936507936507819e+00,7.178767091677307809e-06,6.244851415240264205e-05
2.158730158730158610e+00,7.551506661097793294e-06,4.680794383437304426e-05
2.159523809523809401e+00,6.450444700485103443e-06,2.100231641686020506e-05
2.160317460317460192e+00,4.419124670419340271e-06,-1.204919389372412122e-05
2.161111111111110983e+00,2.160352482733388544e-06,-4.776587351800495960e-05
2.161904761904761774e+00,3.972613368775057788e-07,-8.063805357317363042e-05
2.162698412698412564e+00,-2.627186914172945160e-07,-1.051634733495163988e-04
2.163492063492063355e+00,5.446695322733301892e-07,-1.168525916964737170e-04
2.164285714285714146e+00,2.841809627655854571e-06,-1.131597217597979973e-04
2.165079365079364937e+00,6.275506705306099458e-06,-9.418014745397242245e-05
2.165873015873015728e+00,1.017912925856505877e-05,-6.291859317415444475e-05
2.166666666666666519e+00,1.372834439591800978e-05,-2.493175463167973479e-05
2.167460317460317309e+00,1.614420787876012095e-05,1.273717442315455457e-05
2.168253968253968100e+00,1.687158579843014441e-05,4.315915799161994747e-05
2.169047619047618891e+00,1.567333359067431744e-05,6.120921023421254227e-05
2.169841269841269682e+00,1.262592374407519985e-05,6.479971093364204882e-05
2.170634920634920473e+00,8.051031549543090067e-06,5.526575916473904133e-05
2.171428571428571264e+00,2.436691010487349831e-06,3.682032829460326365e-05
2.172222222222222054e+00,-3.619880965625495866e-06,1.529203340948073338e-05
2.173015873015872845e+00,-9.455141825000775780e-06,-3.466696892831713022e-06
2.173809523809523636e+00,-1.439684001139921715e-05,-1.507258776165727415e-05
2.174603174603174427e+00,-1.785470888115087758e-05,-1.763790850144312652e-05
2.175396825396825218e+00,-1.943383579514844475e-05,-1.209273310163850611e-05
2.176190476190476009e+00,-1.903667870276181659e-05,-1.744981118975638520e-06
2.176984126984126799e+00,-1.691370871267211789e-05,8.782364955061327735e-06
2.177777777777777590e+00,-1.363500981049142788e-05,1.493611785570989418e-05
2.178571428571428381e+00,-9.980450815895376058e-06,1.356454013212041568e-05
2.179365079365079172e+00,-6.774405755111028772e-06,3.847287641118591337e-06
2.180158730158729963e+00,-4.709197723767329742e-06,-1.241766817831123898e-05
2.180952380952380754e+00,-4.200329831353638526e-06,-3.125383004545458408e-05
2.181746031746031544e+00,-5.299495223007713052e-06,-4.757346642174234088e-05
2.182539682539682335e+00,-7.672000369605225738e-06,-5.659578789807434855e-05
2.183333333333333126e+00,-1.063602915238317926e-05,-5.521548586095010425e-05
2.184126984126983917e+00,-1.326322731907428142e-05,-4.290681981523186017e-05
2.184920634920634708e+00,-1.454215486863190145e-05,-2.187724834093451786e-05
2.185714285714285499e+00,-1.359495702073176850e-05,3.570074160774375514e-06
2.186507936507936289e+00,-9.912192695034756319e-06,2.823896589628512073e-05
2.187301587301587080e+00,-3.545068955448300116e-06,4.740914630274314039e-05
2.188095238095238315e+00,4.815277975996815182e-06,5.795669080790743789e-05
2.188888888888889106e+00,1.392655768516937305e-05,5.893612479996563578e-05
2.189682539682539897e+00,2.226355316574594635e-05,5.152986489261476925e-05
2.190476190476190688e+00,2.840805173172862143e-05,3.845839053607514165e-05
2.191269841269841478e+00,3.143368709942970929e-05,2.307351455685295466e-05
2.192063492063492269e+00,3.113928658042168707e-05,8.416611901823935939e-06
2.192857142857143060e+00,2.804512909309372142e-05,-3.479180960506946722e-06
2.193650793650793851e+00,2.317578748149645861e-05,-1.183466429541889351e-05
2.194444444444444642e+00,1.773658786881116044e-05,-1.686179331368222898e-05
2.195238095238095433e+00,1.280138260423290606e-05,-1.914262982217873526e-05
2.196031746031746223e+00,9.084266597286645538e-06,-1.897007231468675993e-05
2.196825396825397014e+00,6.817581707185600573e-06,-1.599677762707773490e-05
2.197619047619047805e+00,5.735913899338075543e-06,-9.392141405742627236e-06
2.198412698412698596e+00,5.165310800177179511e-06,1.535505945077994606e-06
2.199206349206349387e+00,4.213055236868601991e-06,1.651663406123835440e-05
2.200000000000000178e+00,2.030595441729798470e-06,3.368331644285247429e-05
2.200793650793650968e+00,-1.911121472290742546e-06,4.948176992008392110e-05
2.201587301587301759e+00,-7.615649760050344741e-06,5.932368730693209915e-05
2.202380952380952550e+00,-1.449532092407018349e-05,5.886508596207318662e-05
2.203174603174603341e+00,-2.147216174844030187e-05,4.549535686719907831e-05
2.203968253968254132e+00,-2.721201764371866281e-05,1.947804002018035493e-05
2.204761904761904923e+00,-3.041402798244147501e-05,-1.569988179751254488e-05
2.205555555555555713e+00,-3.007213030502833639e-05,-5.391071862430867761e-05
2.206349206349206504e+00,-2.565693847030567465e-05,-8.771657582697419536e-05
2.207142857142857295e+00,-1.720963331269543192e-05,-1.100528894646369226e-04
2.207936507936508086e+00,-5.366982066695996368e-06,-1.158181421933490360e-04
2.208730158730158877e+00,8.662489067775658468e-06,-1.029996236261280677e-04
2.209523809523809668e+00,2.317046848453040858e-05,-7.312002069629624395e-05
2.210317460317460458e+00,3.609284114685984624e-05,-3.097429782105868635e-05
2.211111111111111249e+00,4.525974741907626416e-05,1.622018731729632832e-05
2.211904761904762040e+00,4.876221601504431062e-05,6.007077146771851688e-05
2.212698412698412831e+00,4.538524158213985856e-05,9.247226146358799529e-05
2.213492063492063622e+00,3.498726058772526251e-05,1.071089067384226187e-04
2.214285714285714413e+00,1.867536924306871754e-05,1.007759942846723193e-04
2.215079365079365203e+00,-1.330262936105425543e-06,7.425462530454831830e-05
2.215873015873015994e+00,-2.213808945951616731e-05,3.249635011097763942e-05
2.216666666666666785e+00,-4.080302065574872687e-05,-1.600891157820788689e-05
2.217460317460317576e+00,-5.492094211298149595e-05,-6.063446531017040186e-05
2.218253968253968367e+00,-6.302632984979968480e-05,-9.057154768470417224e-05
2.219047619047619158e+00,-6.471844097531042521e-05,-9.700645095144267717e-05
2.219841269841269948e+00,-6.054876951404435375e-05,-7.514357536330776061e-05
2.220634920634920739e+00,-5.176439629415291715e-05,-2.569735864809072627e-05
2.221428571428571530e+00,-4.000834827279140497e-05,4.450369284953224698e-05
2.222222222222222321e+00,-2.704643265788789141e-05,1.231027890451154478e-04
2.223015873015873112e+00,-1.454206758228525148e-05,1.941498097268347237e-04
2.223809523809523903e+00,-3.863343756432233121e-06,2.412583798769283889e-04
2.224603174603174693e+00,4.091696819378691212e-06,2.514304548843677187e-04
2.225396825396825484e+00,9.025163467315271739e-06,2.185623185352534572e-04
2.226190476190476275e+00,1.126281869150813603e-05,1.454812940733119918e-04
2.226984126984127066e+00,1.162408540385702360e-05,4.369044736767740500e-05
2.227777777777777857e+00,1.115502216181448672e-05,-6.923532021284943788e-05
2.228571428571428648e+00,1.080738202434940202e-05,-1.738111975690222113e-04
2.229365079365079438e+00,1.117498666189673128e-05,-2.530642216267817071e-04
2.230158730158730229e+00,1.237619446826240237e-05,-2.959586022942645666e-04
2.230952380952381020e+00,1.411218762430582481e-05,-2.990605230176724381e-04
2.231746031746031811e+00,1.586332901889959582e-05,-2.663217728295460998e-04
2.232539682539682602e+00,1.713899881050864695e-05,-2.073662058748113458e-04
2.233333333333333393e+00,1.768539155816972527e-05,-1.349012960617943446e-04
2.234126984126984183e+00,1.757789573409099661e-05,-6.189576671901298886e-05
2.234920634920634974e+00,1.716845944228631500e-05,9.185877142780456468e-07
2.235714285714285765e+00,1.691186360023663550e-05,4.677849298286133217e-05
2.236507936507936556e+00,1.714264481312115094e-05,7.357302733385191957e-05
2.237301587301587347e+00,1.789615200459099503e-05,8.342616440047248062e-05
2.238095238095238138e+00,1.884962039438208554e-05,8.137956308344123735e-05
2.238888888888888928e+00,1.940926737665695797e-05,7.358204729420503895e-05
2.239682539682539719e+00,1.891102964006348408e-05,6.548552231941292797e-05
2.240476190476190510e+00,1.685992430761879855e-05,6.050300462925902573e-05
2.241269841269841301e+00,1.312009354259599148e-05,5.941671664772255106e-05
2.242063492063492092e+00,7.987348792718608058e-06,6.059079936509089879e-05
2.242857142857142883e+00,2.120671412007081973e-06,6.082570904106322963e-05
2.243650793650793673e+00,-3.639200677454354876e-06,5.655366149094972908e-05
2.244444444444444464e+00,-8.497500920260622203e-06,4.503905518447236201e-05
2.245238095238095255e+00,-1.190079028574437495e-05,2.529865912999774806e-05
2.246031746031746046e+00,-1.363853595313726701e-05,-1.446752708881051310e-06
2.246825396825396837e+00,-1.382881366326612480e-05,-3.187391505316350887e-05
2.247619047619047628e+00,-1.281085993767614433e-05,-6.119502462456566448e-05
2.248412698412698418e+00,-1.099880752858161500e-05,-8.420068918851520378e-05
2.249206349206349209e+00,-8.757470410061417968e-06,-9.645462651555286549e-05
2.250000000000000000e+00,-6.341807229273113771e-06,-9.531576750769925929e-05
2.250793650793650791e+00,-3.906976013756205762e-06,-8.050821682087620378e-05
2.251587301587301582e+00,-1.562593045743113598e-06,-5.411562979812800254e-05
2.252380952380952372e+00,5.723021606777905860e-07,-2.005887726992186063e-05
2.253174603174603163e+00,2.352284080875823777e-06,1.676233128566627473e-05
2.253968253968253954e+00,3.642735959753121953e-06,5.144176218294129035e-05
2.254761904761904745e+00,4.397659282037357272e-06,7.994242327180110081e-05
2.255555555555555536e+00,4.739908152727398924e-06,9.970674286161258001e-05
2.256349206349206327e+00,4.995925996794845299e-06,1.098918195807477462e-04
2.257142857142857117e+00,5.647754393000387517e-06,1.111892130805809122e-04
2.257936507936507908e+00,7.194908072980579535e-06,1.052718648873247925e-04
2.258730158730158699e+00,9.957760004740737035e-06,9.402006910997335698e-05
2.259523809523809490e+00,1.388712675745817872e-05,7.878921955928169243e-05
2.260317460317460281e+00,1.845770180967692799e-05,6.002271677421754402e-05
2.261111111111111072e+00,2.270680461803804240e-05,3.742033564539692415e-05
2.261904761904761862e+00,2.543346889134556955e-05,1.065180537367336423e-05
2.262698412698412653e+00,2.550913455142717219e-05,-1.965440594008949768e-05
2.263492063492063444e+00,2.219959598959928828e-05,-5.109436629518128892e-05
2.264285714285714235e+00,1.538956013085790293e-05,-7.930391669688277286e-05
2.265079365079365026e+00,5.642259738588737473e-06,-9.869510081537762828e-05
2.265873015873015817e+00,-5.910107858113220233e-06,-1.040670390749250362e-04
2.266666666666666607e+00,-1.779832990354284655e-05,-9.261678437377973596e-05
2.267460317460317398e+00,-2.849895805206691655e-05,-6.554422776491937333e-05
2.268253968253968189e+00,-3.669489948759134198e-05,-2.845457576984743438e-05
2.269047619047618980e+00,-4.146004508795674411e-05,9.796302801385510121e-06
2.269841269841269771e+00,-4.234963688662792626e-05,3.949892098367364967e-05
2.270634920634920562e+00,-3.941268635297552706e-05,5.289198183185540685e-05
2.271428571428571352e+00,-3.315542534344531692e-05,4.641154221929703601e-05
2.272222222222222143e+00,-2.447152820185108976e-05,2.169719099068030479e-05
2.273015873015872934e+00,-1.453397163319175217e-05,-1.488055618143253024e-05
2.273809523809523725e+00,-4.637692482906511729e-06,-5.396469642863267215e-05
2.274603174603174516e+00,4.001411443198419620e-06,-8.569410786438553780e-05
2.275396825396825307e+00,1.045870345873108427e-05,-1.022143501138195762e-04
2.276190476190476097e+00,1.427131638895955429e-05,-9.951139748920167214e-05
2.276984126984126888e+00,1.551066962694088095e-05,-7.807357674635042179e-05
2.277777777777777679e+00,1.471898853055866452e-05,-4.227810277434590225e-05
2.278571428571428470e+00,1.271234531383332687e-05,1.157562296558219238e-06
2.279365079365079261e+00,1.030696025433641839e-05,4.502452318962308248e-05
2.280158730158730052e+00,8.068655227741831283e-06,8.314496832390137065e-05
2.280952380952380842e+00,6.185704562729818993e-06,1.112294062394689594e-04
2.281746031746031633e+00,4.511293246328608729e-06,1.270945852595811547e-04
2.282539682539682424e+00,2.740483270952778595e-06,1.304877247970369358e-04
2.283333333333333215e+00,6.278125154827626423e-07,1.227548860686843103e-04
2.284126984126984006e+00,-1.852398931160222506e-06,1.064434108715112088e-04
2.284920634920634797e+00,-4.459869285137276650e-06,8.480160197925034585e-05
2.285714285714285587e+00,-6.760768259086784329e-06,6.114485806705699273e-05
2.286507936507936378e+00,-8.282113756951595146e-06,3.818684915811855989e-05
2.287301587301587169e+00,-8.685201466261791944e-06,1.756612198450512933e-05
2.288095238095237960e+00,-7.888164497923644101e-06,-2.120822784241795503e-07
2.288888888888888751e+00,-6.089725161436950005e-06,-1.539552631655592761e-05
2.289682539682539542e+00,-3.690410451340603136e-06,-2.840277107349145760e-05
2.290476190476190332e+00,-1.148409721737598506e-06,-3.939467933540906868e-05
2.291269841269841123e+00,1.173853597697827264e-06,-4.822877219242068962e-05
2.292063492063491914e+00,3.118071601191437974e-06,-5.474594058572235792e-05
2.292857142857142705e+00,4.753728434267383236e-06,-5.910958066854657048e-05
2.293650793650793496e+00,6.303599557306522661e-06,-6.188886097165509576e-05
2.294444444444444287e+00,7.993312907902184642e-06,-6.376171042100379149e-05
2.295238095238095077e+00,9.882395567769288177e-06,-6.499146360379875760e-05
2.296031746031745868e+00,1.175126908608797742e-05,-6.502327883588372140e-05
2.296825396825396659e+00,1.310321711165632527e-05,-6.251891209570186326e-05
2.297619047619047450e+00,1.329442180280919284e-05,-5.591399982808334732e-05
2.298412698412698241e+00,1.175010016084066167e-05,-4.428815250223437194e-05
2.299206349206349032e+00,8.187964708968701273e-06,-2.815233358183663685e-05
2.299999999999999822e+00,2.767214402141201975e-06,-9.768544077093667716e-06
2.300793650793650613e+00,-3.890543046565026814e-06,7.194507676869625646e-06
2.301587301587301404e+00,-1.081662708846464408e-05,1.860289245825226396e-05
2.302380952380952195e+00,-1.690901958796026201e-05,2.111377668078571822e-05
2.303174603174602986e+00,-2.117493692399980012e-05,1.335896412974465813e-05
2.303968253968253777e+00,-2.292694327517504803e-05,-3.329650943743105492e-06
2.304761904761904567e+00,-2.188200719451995153e-05,-2.493749953255673283e-05
2.305555555555555358e+00,-1.815902007681398733e-05,-4.561260522366237483e-05
2.306349206349206149e+00,-1.221275069121372267e-05,-5.915850090425980049e-05
2.307142857142856940e+00,-4.752448276361803998e-06,-6.075477056864672719e-05
2.307936507936507731e+00,3.334537893538710552e-06,-4.837335298617122980e-05
2.308730158730158522e+00,1.107144879004311880e-05,-2.342923401853097575e-05
2.309523809523809312e+00,1.751982932489608253e-05,9.556979495903247969e-06
2.310317460317460103e+00,2.194175963134486557e-05,4.417526699552788298e-05
2.311111111111110894e+00,2.394450760819662229e-05,7.381410335433079891e-05
2.311904761904761685e+00,2.353378024923501324e-05,9.328161201728787228e-05
2.312698412698412920e+00,2.103444302068074040e-05,9.990320356510823320e-05
2.313492063492063711e+00,1.691250286094570727e-05,9.385909930283533372e-05
2.314285714285714501e+00,1.159821223150130055e-05,7.776833768438830990e-05
2.315079365079365292e+00,5.416647942425570105e-06,5.572555873826638061e-05
2.315873015873016083e+00,-1.329119874346667503e-06,3.212487054583306525e-05
2.316666666666666874e+00,-8.169593219026067185e-06,1.062808958691794238e-05
2.317460317460317665e+00,-1.429623814383440496e-05,-6.460642407626451820e-06
2.318253968253968456e+00,-1.854325254110167665e-05,-1.831799952494403110e-05
2.319047619047619246e+00,-1.960767433563606423e-05,-2.528913471908591465e-05
2.319841269841270037e+00,-1.648114300627015268e-05,-2.832257420354404440e-05
2.320634920634920828e+00,-8.949442633572105734e-06,-2.839100314072843362e-05
2.321428571428571619e+00,2.049575597586944416e-06,-2.611923946328800671e-05
2.322222222222222410e+00,1.439974800143884302e-05,-2.174209851495624945e-05
2.323015873015873201e+00,2.520051615135435644e-05,-1.536216060423418585e-05
2.323809523809523991e+00,3.151595256102407655e-05,-7.337494813607727693e-06
2.324603174603174782e+00,3.125892967378962297e-05,1.429190759543961437e-06
2.325396825396825573e+00,2.389803421934640542e-05,9.482017626454598564e-06
2.326190476190476364e+00,1.070158441151743935e-05,1.514244225119425188e-05
2.326984126984127155e+00,-5.606462850485017994e-06,1.708355969448900643e-05
2.327777777777777946e+00,-2.166649134455030454e-05,1.491698716900678729e-05
2.328571428571428736e+00,-3.446683776875273856e-05,9.502339950749973907e-06
2.329365079365079527e+00,-4.212199866518296482e-05,2.766287631556119282e-06
2.330158730158730318e+00,-4.418899462047876282e-05,-2.969751759350681754e-06
2.330952380952381109e+00,-4.147952563963152597e-05,-5.901332690520152280e-06
2.331746031746031900e+00,-3.552766693669752641e-05,-5.488995097405721779e-06
2.332539682539682691e+00,-2.797228603907656554e-05,-2.690705380523533655e-06
2.333333333333333481e+00,-2.008622461353677525e-05,4.329000630961673915e-07
2.334126984126984272e+00,-1.257224212171132419e-05,1.560511987699826559e-06
2.334920634920635063e+00,-5.617493100801206731e-06,-9.506823563856193826e-07
2.335714285714285854e+00,8.916095683987391147e-07,-7.360490628678228145e-06
2.336507936507936645e+00,7.120915680227847628e-06,-1.628129306695552211e-05
2.337301587301587436e+00,1.310669519101823772e-05,-2.493611106491868209e-05
2.338095238095238226e+00,1.868485406796295106e-05,-2.992320666424396719e-05
2.338888888888889017e+00,2.352059789037891461e-05,-2.834798763390489020e-05
2.339682539682539808e+00,2.719341364767477315e-05,-1.902285886159695258e-05
2.340476190476190599e+00,2.928534083761033088e-05,-3.313066532121058187e-06
2.341269841269841390e+00,2.944043504266434410e-05,1.477546635160558689e-05
2.342063492063492181e+00,2.739937835777445232e-05,2.946609763131607904e-05
2.342857142857142971e+00,2.304140843358068995e-05,3.489741507478041557e-05
2.343650793650793762e+00,1.646190621589734002e-05,2.713331783868518318e-05
2.344444444444444553e+00,8.078112499004376113e-06,5.805010703786328506e-06
2.345238095238095344e+00,-1.283765921445243332e-06,-2.524987309763017938e-05
2.346031746031746135e+00,-1.037965458433816808e-05,-5.867544928833814477e-05
2.346825396825396925e+00,-1.765885923490878139e-05,-8.548500481873193312e-05
2.347619047619047716e+00,-2.150465292106465987e-05,-9.758477628689496072e-05
2.348412698412698507e+00,-2.057814166545423774e-05,-9.011407362585751115e-05
2.349206349206349298e+00,-1.420550010156198606e-05,-6.282304804941872382e-05
2.350000000000000089e+00,-2.721136905077166841e-06,-2.006731163832666185e-05
2.350793650793650880e+00,1.233419531082083309e-05,3.046864435560208206e-05
2.351587301587301670e+00,2.825769690415054177e-05,7.976487611489946393e-05
2.352380952380952461e+00,4.154329234264574950e-05,1.194939649987262071e-04
2.353174603174603252e+00,4.856216911419483645e-05,1.435900204402730355e-04
2.353968253968254043e+00,4.645720550215124485e-05,1.491523840006780412e-04
2.354761904761904834e+00,3.401744681732209072e-05,1.366537114644274188e-04
2.355555555555555625e+00,1.224597727353548002e-05,1.094876642773210334e-04
2.356349206349206415e+00,-1.559233098248384103e-05,7.297654434823428122e-05
2.357142857142857206e+00,-4.449237855456956802e-05,3.309636276497422475e-05
2.357936507936507997e+00,-6.868137972899213519e-05,-4.740699843755498913e-06
2.358730158730158788e+00,-8.281744830806434020e-05,-3.656218149905656768e-05
2.359523809523809579e+00,-8.315287721845234339e-05,-6.023716954270250172e-05
2.360317460317460370e+00,-6.841617150701060984e-05,-7.542106816873000096e-05
2.361111111111111160e+00,-4.022055378244778672e-05,-8.315255978172342245e-05
2.361904761904761951e+00,-2.895043918844170492e-06,-8.525159545135659847e-05
2.362698412698412742e+00,3.724979863498646671e-05,-8.367759095431179022e-05
2.363492063492063533e+00,7.308818224383619453e-05,-7.999922625753715143e-05
2.364285714285714324e+00,9.804936825221382049e-05,-7.509463192212404001e-05
2.365079365079365115e+00,1.074187906190509885e-04,-6.913292340054067071e-05
2.365873015873015905e+00,9.930658993337119730e-05,-6.179624985898733030e-05
2.366666666666666696e+00,7.507434370435564605e-05,-5.262739017659664179e-05
2.367460317460317487e+00,3.909879745615643177e-05,-4.137003518485836206e-05
2.368253968253968278e+00,-2.121991044649409030e-06,-2.820225566762510393e-05
2.369047619047619069e+00,-4.134869053464275651e-05,-1.381454663780111203e-05
2.369841269841269860e+00,-7.213701811003151777e-05,6.644938964675949442e-07
2.370634920634920650e+00,-9.013360920174807436e-05,1.384555193408927173e-05
2.371428571428571441e+00,-9.380647549517679123e-05,2.430222533812653087e-05
2.372222222222222232e+00,-8.446372492755129077e-05,3.084118147867912852e-05
2.373015873015873023e+00,-6.562595837935665142e-05,3.287927260183586784e-05
2.373809523809523814e+00,-4.199412273668240816e-05,3.093084790214070814e-05
2.374603174603174605e+00,-1.834133288054796160e-05,2.701140881674179764e-05
2.375396825396825395e+00,1.378693018525176423e-06,2.458914193562790801e-05
2.376190476190476186e+00,1.455294379130703098e-05,2.778031326958547550e-05
2.376984126984126977e+00,2.006896859647748735e-05,3.983333262661101806e-05
2.377777777777777768e+00,1.822148468357911682e-05,6.138688051083028866e-05
2.378571428571428559e+00,1.048268357710296666e-05,8.924838235340891348e-05
2.379365079365079350e+00,-7.915992129894645761e-07,1.163697906597731778e-04
2.380158730158730140e+00,-1.269363577362739557e-05,1.333240788593185024e-04
2.380952380952380931e+00,-2.213017672332306498e-05,1.310416476634638019e-04
2.381746031746031722e+00,-2.622453824022579107e-05,1.040266342515310796e-04
2.382539682539682513e+00,-2.275024720647431285e-05,5.293374771837077672e-05
2.383333333333333304e+00,-1.057550244923485481e-05,-1.457375970559363623e-05
2.384126984126984095e+00,9.935511739271055958e-06,-8.526173562684586488e-05
2.384920634920634885e+00,3.666232865145963938e-05,-1.437853752170390863e-04
2.385714285714285676e+00,6.573977650739335355e-05,-1.770523576663359184e-04
2.386507936507936467e+00,9.196643075119084027e-05,-1.779653333691458273e-04
2.387301587301587258e+00,1.096665771250561765e-04,-1.472947352297472720e-04
2.388095238095238049e+00,1.139201948137737896e-04,-9.322157054475080178e-05
2.388888888888888840e+00,1.018844848474947153e-04,-2.894322016400457484e-05
2.389682539682539630e+00,7.378341318429151765e-05,3.075108793394342908e-05
2.390476190476190421e+00,3.316902355411083773e-05,7.296438646768131761e-05
2.391269841269841212e+00,-1.369314495041130398e-05,8.948412612204580314e-05
2.392063492063492003e+00,-5.911658320013331536e-05,7.840712472871938770e-05
2.392857142857142794e+00,-9.553669024387366948e-05,4.435791037381473341e-05
2.393650793650793585e+00,-1.168831697680254014e-04,-2.710780210234944439e-06
2.394444444444444375e+00,-1.195448595848627949e-04,-4.989037536652395413e-05
2.395238095238095166e+00,-1.028842050154456461e-04,-8.436856577805253036e-05
2.396031746031745957e+00,-6.933491656582982279e-05,-9.649594213274104756e-05
2.396825396825396748e+00,-2.408184385265795552e-05,-8.215073821145903426e-05
2.397619047619047539e+00,2.570855434261820402e-05,-4.378122883864284549e-05
2.398412698412698330e+00,7.206988208144039169e-05,1.022160454899385899e-05
2.399206349206349120e+00,1.076423779422366943e-04,6.771983584720720980e-05
2.399999999999999911e+00,1.269927628042753179e-04,1.159803058650773361e-04
2.400793650793650702e+00,1.275289790857558458e-04,1.448321768352696381e-04
2.401587301587301493e+00,1.098071292313997928e-04,1.489221224599866853e-04
2.402380952380952284e+00,7.720075419488355364e-05,1.285577817807852458e-04
2.403174603174603075e+00,3.506362198114659941e-05,8.913563722232229153e-05
2.403968253968253865e+00,-1.037237194253897984e-05,3.950581672986979912e-05
2.404761904761904656e+00,-5.308544429730448384e-05,-1.023790636804257703e-05
2.405555555555555447e+00,-8.811083691277078322e-05,-5.105115823553494140e-05
2.406349206349206238e+00,-1.120447318419697837e-04,-7.685775982332600188e-05
2.407142857142857029e+00,-1.232434892838196359e-04,-8.570302121447126301e-05
2.407936507936507819e+00,-1.218289512538013283e-04,-7.989559500621535248e-05
2.408730158730158610e+00,-1.095739456580154930e-04,-6.512683764556553986e-05
2.409523809523809401e+00,-8.963993521017060348e-05,-4.880842677797491645e-05
2.410317460317460192e+00,-6.607471751548321746e-05,-3.803270158269533201e-05
2.411111111111110983e+00,-4.303574769965441238e-05,-3.759680397077487291e-05
2.411904761904761774e+00,-2.387420759004375926e-05,-4.849879549680645701e-05
2.412698412698412564e+00,-1.038054367541080177e-05,-6.727998285990418584e-05
2.413492063492063355e+00,-2.505736394457261934e-06,-8.652718674471626876e-05
2.414285714285714146e+00,1.317259988837821451e-06,-9.665564882258366106e-05
2.415079365079364937e+00,3.407333163045701760e-06,-8.871387134578608133e-05
2.415873015873015728e+00,5.958885493332633677e-06,-5.748780842926803463e-05
2.416666666666666519e+00,1.037116941141567466e-05,-3.859897593978973725e-06
2.417460317460317309e+00,1.695125037780782602e-05,6.456922950971824863e-05
2.418253968253968100e+00,2.501154216006266158e-05,1.350583273372897813e-04
2.419047619047618891e+00,3.328312994786860707e-05,1.931073318553849208e-04
2.419841269841269682e+00,4.048102127938004656e-05,2.264785505114753634e-04
2.420634920634920473e+00,4.578971546594671962e-05,2.284447041358394354e-04
2.421428571428571264e+00,4.905196522243069767e-05,1.992379199439569528e-04
2.422222222222222054e+00,5.057379229669056075e-05,1.454170800532929677e-04
2.423015873015872845e+00,5.064876870364506977e-05,7.758182798130872017e-05
2.423809523809523636e+00,4.905821388158309546e-05,7.308152505142601119e-06
2.424603174603174427e+00,4.484786232258582746e-05,-5.569860710872157950e-05
2.425396825396825218e+00,3.657776818330873097e-05,-1.054260048244499656e-04
2.426190476190476009e+00,2.300922833903079162e-05,-1.399609799060843977e-04
2.426984126984126799e+00,3.944659050773708701e-06,-1.605762581000667389e-04
2.427777777777777590e+00,-1.916654542151167198e-05,-1.699876263812102981e-04
2.428571428571428381e+00,-4.313824093088929290e-05,-1.704916887500265395e-04
2.429365079365079172e+00,-6.353462282621577767e-05,-1.627059453218416608e-04
2.430158730158729963e+00,-7.559785276551827626e-05,-1.454143604806649992e-04
2.430952380952380754e+00,-7.537387771018031802e-05,-1.165937138597059801e-04
2.431746031746031544e+00,-6.076693116314141270e-05,-7.519240105218021584e-05
2.432539682539682335e+00,-3.228342339328109676e-05,-2.286323192933414095e-05
2.433333333333333126e+00,6.691273022022298532e-06,3.520100781001576744e-05
2.434126984126983917e+00,5.013356331377030018e-05,9.083962685798477961e-05
2.434920634920634708e+00,9.012651679650029882e-05,1.347848536724106634e-04
2.435714285714285499e+00,1.180986615772426618e-04,1.590891741621722135e-04
2.436507936507936289e+00,1.265303302549998846e-04,1.591841233474685095e-04
2.437301587301587080e+00,1.109394900595221130e-04,1.349268315015022027e-04
2.438095238095238315e+00,7.165987860058171943e-05,9.052805401754501931e-05
2.438888888888889106e+00,1.470053008984902802e-05,3.364969688363514481e-05
2.439682539682539897e+00,-4.891753275639464311e-05,-2.596382880837527521e-05
2.440476190476190688e+00,-1.054627907424034145e-04,-7.807106669361911131e-05
2.441269841269841478e+00,-1.418952529970436260e-04,-1.135712597323699033e-04
2.442063492063492269e+00,-1.493418110778230330e-04,-1.260034157278666753e-04
2.442857142857143060e+00,-1.255255415887855121e-04,-1.126639430509994487e-04
2.443650793650793851e+00,-7.537415941405614759e-05,-7.512136187165810127e-05
2.444444444444444642e+00,-9.659172637733659644e-06,-1.900386213249244518e-05
2.445238095238095433e+00,5.784532519391533362e-05,4.692788082304622817e-05
2.446031746031746223e+00,1.137896920050283440e-04,1.122451176718883536e-04
2.446825396825397014e+00,1.482898309585294592e-04,1.665271810459102784e-04
2.447619047619047805e+00,1.568170486294796068e-04,2.009053284055509919e-04
2.448412698412698596e+00,1.405594468860124689e-04,2.092818981263966762e-04
2.449206349206349387e+00,1.053345458035477485e-04,1.892138026879893516e-04
2.450000000000000178e+00,5.953479728184640128e-05,1.424692494028345603e-04
2.450793650793650968e+00,1.181553261133575330e-05,7.510881710284686387e-05
2.451587301587301759e+00,-3.078140832885873756e-05,-3.189767546820528174e-06
2.452380952380952550e+00,-6.382053696728179164e-05,-8.072203413074952733e-05
2.453174603174603341e+00,-8.550655540942039097e-05,-1.460401934326123528e-04
2.453968253968254132e+00,-9.602963006586316946e-05,-1.903145452999950940e-04
2.454761904761904923e+00,-9.667289953098862174e-05,-2.090290418045645103e-04
2.455555555555555713e+00,-8.909233063830375736e-05,-2.024905167081378864e-04
2.456349206349206504e+00,-7.497611266251211345e-05,-1.750906184979847673e-04
2.457142857142857295e+00,-5.605503388506948497e-05,-1.337261475953842381e-04
2.457936507936508086e+00,-3.427934509491592898e-05,-8.602113672081942118e-05
2.458730158730158877e+00,-1.194262488233216488e-05,-3.890074017337573960e-05
2.459523809523809668e+00,8.401222815830225687e-06,2.241827191478833157e-06
2.460317460317460458e+00,2.426215303597740357e-05,3.384275326298171951e-05
2.461111111111111249e+00,3.369206732830033984e-05,5.412966814909206642e-05
2.461904761904762040e+00,3.575233347596734580e-05,6.293453284014595222e-05
2.462698412698412831e+00,3.080145210908058630e-05,6.145170097440427292e-05
2.463492063492063622e+00,2.049810763737321622e-05,5.194898659203626892e-05
2.464285714285714413e+00,7.512845369388034290e-06,3.740703281050189720e-05
2.465079365079365203e+00,-4.976063180484884373e-06,2.108233749482165965e-05
2.465873015873015994e+00,-1.388976713907873753e-05,6.031330360360716795e-06
2.466666666666666785e+00,-1.684834823149734752e-05,-5.331004485971070270e-06
2.467460317460317576e+00,-1.266975229037594261e-05,-1.155509454992940282e-05
2.468253968253968367e+00,-1.691238535105507617e-06,-1.230965782120501443e-05
2.469047619047619158e+00,1.415312442192601584e-05,-8.361453808522898481e-06
2.469841269841269948e+00,3.155741493090879454e-05,-1.416738412126214609e-06
2.470634920634920739e+00,4.641139399439087780e-05,6.140279558010112793e-06
2.471428571428571530e+00,5.469072213395177051e-05,1.160273366959926559e-05
2.472222222222222321e+00,5.352055748440210265e-05,1.240209575913628484e-05
2.473015873015873112e+00,4.210101351700294893e-05,6.666682769890155094e-06
2.473809523809523903e+00,2.211160241247758348e-05,-6.201477568034768784e-06
2.474603174603174693e+00,-2.650809279600229552e-06,-2.508715644484814689e-05
2.475396825396825484e+00,-2.732757792560685015e-05,-4.703077626814172838e-05
2.476190476190476275e+00,-4.736150567069568094e-05,-6.751429434289348767e-05
2.476984126984127066e+00,-5.966574252175470624e-05,-8.117869760832486744e-05
2.477777777777777857e+00,-6.322132510493781309e-05,-8.290145644872721532e-05
2.478571428571428648e+00,-5.898921294407440217e-05,-6.907727401281886688e-05
2.479365079365079438e+00,-4.928031313483591415e-05,-3.884732641005308248e-05
2.480158730158730229e+00,-3.688256601321191001e-05,5.069803475151181135e-06
2.480952380952381020e+00,-2.426692462582123188e-05,5.632688592262503045e-05
2.481746031746031811e+00,-1.310255766139912888e-05,1.059541350305900171e-04
2.482539682539682602e+00,-4.155966798826953762e-06,1.443786658803694449e-04
2.483333333333333393e+00,2.502865599982171589e-06,1.639267062766355126e-04
2.484126984126984183e+00,7.149939234833477620e-06,1.609038690799233977e-04
2.484920634920634974e+00,1.007425189292543667e-05,1.364125224366298809e-04
2.485714285714285765e+00,1.136812600019249832e-05,9.560993823341916453e-05
2.486507936507936556e+00,1.088381454388126558e-05,4.581223564811740770e-05
2.487301587301587347e+00,8.354413726003070528e-06,-5.711029220933945036e-06
2.488095238095238138e+00,3.642702467392099204e-06,-5.341658148924722052e-05
2.488888888888888928e+00,-2.958089096648351989e-06,-9.415172595229416889e-05
2.489682539682539719e+00,-1.049126357224135381e-05,-1.267522007780126463e-04
2.490476190476190510e+00,-1.731041962108223782e-05,-1.508838257722963660e-04
2.491269841269841301e+00,-2.135476111372898360e-05,-1.656664275510999615e-04
2.492063492063492092e+00,-2.070278217789235371e-05,-1.686960736874546559e-04
2.492857142857142883e+00,-1.423563946391733946e-05,-1.559805394846054607e-04
2.493650793650793673e+00,-2.151649798142965062e-06,-1.230099610415418530e-04
2.494444444444444464e+00,1.389477078199334363e-05,-6.674701343324483541e-05
2.495238095238095255e+00,3.110608327409991294e-05,1.211889862729651693e-05
2.496031746031746046e+00,4.619636491430262874e-05,1.075398914188097272e-04
2.496825396825396837e+00,5.616111254092617653e-05,2.078630955761687769e-04
2.497619047619047628e+00,5.893716699644885689e-05,2.973030759614994699e-04
2.498412698412698418e+00,5.380950248201453326e-05,3.589267842916881520e-04
2.499206349206349209e+00,4.151060674696475104e-05,3.784683559371766195e-04
2.500000000000000000e+00,2.402002664657809224e-05,3.479831538516710461e-04
2.500793650793650791e+00,4.122783252176149356e-06,2.683111425712049773e-04
2.501587301587301582e+00,-1.515846829668016067e-05,1.496129597380246520e-04
2.502380952380952372e+00,-3.110721607969320633e-05,9.774699477641789552e-06
2.503174603174603163e+00,-4.170859335821945922e-05,-1.289751941323208730e-04
2.503968253968253954e+00,-4.585582453099711580e-05,-2.445014306894353917e-04
2.504761904761904745e+00,-4.340475008993851884e-05,-3.192974348080978002e-04
2.505555555555555536e+00,-3.512592105862094734e-05,-3.440929437691814556e-04
2.506349206349206327e+00,-2.256244965879257010e-05,-3.196041140349881833e-04
2.507142857142857117e+00,-7.775975417656050566e-06,-2.558619656901100397e-04
2.507936507936507908e+00,7.006414457534755390e-06,-1.692169951663711309e-04
2.508730158730158699e+00,1.977593171247730782e-05,-7.790636661144814494e-05
2.509523809523809490e+00,2.906312273207129764e-05,2.389417538164931113e-06
2.510317460317460281e+00,3.412528602167970502e-05,6.162511191910411844e-05
2.511111111111111072e+00,3.497432766003368888e-05,9.637437006614735886e-05
2.511904761904761862e+00,3.225839420157358678e-05,1.088502071872563952e-04
2.512698412698412653e+00,2.703745188897513130e-05,1.047219749728008873e-04
2.513492063492063444e+00,2.051226462710418824e-05,9.066436275609522058e-05
2.514285714285714235e+00,1.377475073517547933e-05,7.236846401323256378e-05
2.515079365079365026e+00,7.635719064977907291e-06,5.338127325778603034e-05
2.515873015873015817e+00,2.555412579117367978e-06,3.482378132767839369e-05
2.516666666666666607e+00,-1.330589705105586092e-06,1.585357974181560487e-05
2.517460317460317398e+00,-4.119193586466671651e-06,-5.346300216549315159e-06
2.518253968253968189e+00,-6.019146801372936264e-06,-3.032134992665500101e-05
2.519047619047618980e+00,-7.238498102837998834e-06,-5.915830767113941854e-05
2.519841269841269771e+00,-7.907348581844745558e-06,-8.969625975993719604e-05
2.520634920634920562e+00,-8.049157069384325916e-06,-1.174356082195662267e-04
2.521428571428571352e+00,-7.601154859976636616e-06,-1.363075250696859535e-04
2.522222222222222143e+00,-6.475446304603857536e-06,-1.402273162336919944e-04
2.523015873015872934e+00,-4.644132519679254403e-06,-1.250566277032580951e-04
2.523809523809523725e+00,-2.221842534307465313e-06,-9.034794370529515019e-05
2.524603174603174516e+00,4.882941261779398362e-07,-4.018626232014994751e-05
2.525396825396825307e+00,3.014983205261321835e-06,1.731994684550596620e-05
2.526190476190476097e+00,4.813912607197945960e-06,7.185806648383739914e-05
2.526984126984126888e+00,5.413399701209372352e-06,1.134806443001251653e-04
2.527777777777777679e+00,4.559153353263959175e-06,1.350880128318820192e-04
2.528571428571428470e+00,2.303589932444518829e-06,1.340852811421795656e-04
2.529365079365079261e+00,-9.916306044480995008e-07,1.128329748157280775e-04
2.530158730158730052e+00,-4.737237151073880671e-06,7.789050295299384283e-05
2.530952380952380842e+00,-8.253159925163232804e-06,3.831238367875981949e-05
2.531746031746031633e+00,-1.092032369146690059e-05,3.422523782413063589e-06
2.532539682539682424e+00,-1.230935880557289646e-05,-1.939345423750709726e-05
2.533333333333333215e+00,-1.225883045845166042e-05,-2.632266686174532499e-05
2.534126984126984006e+00,-1.089012684746254416e-05,-1.778422261676632744e-05
2.534920634920634797e+00,-8.561192005269188752e-06,1.999001075129602422e-06
2.535714285714285587e+00,-5.774562668236172530e-06,2.632430502194961033e-05
2.536507936507936378e+00,-3.064326369085026307e-06,4.782679686680503062e-05
2.537301587301587169e+00,-8.893354757662960348e-07,6.030606738221696135e-05
2.538095238095237960e+00,4.445455047135485385e-07,6.010725827873928962e-05
2.538888888888888751e+00,8.205669876055220669e-07,4.673054544822769662e-05
2.539682539682539542e+00,3.050308577722240670e-07,2.256612074929202521e-05
2.540476190476190332e+00,-8.918554081652165413e-07,-8.073477552056346077e-06
2.541269841269841123e+00,-2.474182077844081945e-06,-4.023390057857964547e-05
2.542063492063491914e+00,-4.123201042384313185e-06,-6.946756861266216768e-05
2.542857142857142705e+00,-5.552948023722209142e-06,-9.252675610305169818e-05
2.543650793650793496e+00,-6.550543094129883237e-06,-1.075010552500390540e-04
2.544444444444444287e+00,-6.997379409662674818e-06,-1.135269425284130478e-04
2.545238095238095077e+00,-6.871546793795560448e-06,-1.103429531923062220e-04
2.546031746031745868e+00,-6.235125405315642132e-06,-9.797370610766846185e-05
2.546825396825396659e+00,-5.211895436277886084e-06,-7.671105894742917726e-05
2.547619047619047450e+00,-3.961412888874436205e-06,-4.739277139568999660e-05
2.548412698412698241e+00,-2.654509463226075504e-06,-1.183335666513928175e-05
2.549206349206349032e+00,-1.453482053526368665e-06,2.682460750536262435e-05
2.549999999999999822e+00,-4.979242601409855065e-07,6.408556557517808814e-05
2.550793650793650613e+00,1.053635399161227496e-07,9.458340003218322666e-05
2.551587301587301404e+00,2.919190232638644073e-07,1.131028619515547979e-04
2.552380952380952195e+00,5.205590467734153196e-08,1.159575528910539589e-04
2.553174603174602986e+00,-5.536960450719882067e-07,1.023164351128543170e-04
2.553968253968253777e+00,-1.381633296332379232e-06,7.494402006672887012e-05
2.554761904761904567e+00,-2.204680180206332922e-06,3.992059621026246573e-05
2.555555555555555358e+00,-2.736068418342226239e-06,5.260871782002397338e-06
2.556349206349206149e+00,-2.683214711747570202e-06,-2.119936355355946789e-05
2.557142857142856940e+00,-1.827872570467625847e-06,-3.395416212465902841e-05
2.557936507936507731e+00,-1.155673764856113928e-07,-3.127666367196144586e-05
2.558730158730158522e+00,2.273496264659733127e-06,-1.548413186890576504e-05
2.559523809523809312e+00,4.903026086606452165e-06,8.017129182091130635e-06
2.560317460317460103e+00,7.132229105093388873e-06,3.251144385660612658e-05
2.561111111111110894e+00,8.246025356868150733e-06,5.194799342561225560e-05
2.561904761904761685e+00,7.644289717466315871e-06,6.249310926767934963e-05
2.562698412698412920e+00,5.044332270389561982e-06,6.324462824358899381e-05
2.563492063492063711e+00,6.337417839768742224e-07,5.598755613276626034e-05
2.564285714285714501e+00,-4.887056962948402170e-06,4.416687249616866706e-05
2.565079365079365292e+00,-1.040779450033133098e-05,3.146498812542652290e-05
2.565873015873016083e+00,-1.464931793473084937e-05,2.045325445619676689e-05
2.566666666666666874e+00,-1.648686985782879029e-05,1.174351960169915173e-05
2.567460317460317665e+00,-1.526250898437702237e-05,3.911190838724000499e-06
2.568253968253968456e+00,-1.098535641892758406e-05,-5.791648147388362924e-06
2.569047619047619246e+00,-4.352257792743478955e-06,-2.020431276946705216e-05
2.569841269841270037e+00,3.413786528981748961e-06,-4.097423946799919303e-05
2.570634920634920828e+00,1.084965238883840014e-05,-6.767776244465691213e-05
2.571428571428571619e+00,1.658053465564659947e-05,-9.759361328639696654e-05
2.572222222222222410e+00,1.962343275507530668e-05,-1.261197538470434671e-04
2.573015873015873201e+00,1.962603434348545445e-05,-1.476632121439921507e-04
2.573809523809523991e+00,1.700932496883267222e-05,-1.567999046245185512e-04
2.574603174603174782e+00,1.296428195724514086e-05,-1.495144638574243188e-04
2.575396825396825573e+00,9.246666221263109706e-06,-1.243058726671281589e-04
2.576190476190476364e+00,7.762600775744419107e-06,-8.289326924262347014e-05
2.576984126984127155e+00,1.002892630803110131e-05,-3.026170052450226776e-05
2.577777777777777946e+00,1.666139343163206598e-05,2.608517755981026086e-05
2.578571428571428736e+00,2.704437855158241521e-05,7.756594727232335993e-05
2.579365079365079527e+00,3.928187510787733592e-05,1.163075089198349946e-04
2.580158730158730318e+00,5.046221672045132366e-05,1.367815472815286525e-04
2.580952380952381109e+00,5.720986002633316316e-05,1.368408635417881771e-04
2.581746031746031900e+00,5.644349967926072466e-05,1.179282053127813566e-04
2.582539682539682691e+00,4.620489675653019187e-05,8.451123097470399428e-05
2.583333333333333481e+00,2.637008992435800232e-05,4.300008449865587673e-05
2.584126984126984272e+00,-9.805923532923861188e-07,4.721325412680535677e-07
2.584920634920635063e+00,-3.173723104426252976e-05,-3.651560876990143765e-05
2.585714285714285854e+00,-6.055834232244162524e-05,-6.285046535968140933e-05
2.586507936507936645e+00,-8.214269859177430002e-05,-7.546170390623786457e-05
2.587301587301587436e+00,-9.259741371740177584e-05,-7.360602821055829226e-05
2.588095238095238226e+00,-9.044333436902903445e-05,-5.887321704389762196e-05
2.588888888888889017e+00,-7.692630978328874453e-05,-3.491324297886581039e-05
2.589682539682539808e+00,-5.556822287694147854e-05,-6.848043814720228965e-06
2.590476190476190599e+00,-3.115648067875578906e-05,1.965508704790034879e-05
2.591269841269841390e+00,-8.521371435182572117e-06,3.956164813588714652e-05
2.592063492063492181e+00,8.549274571535676144e-06,4.963703475045712945e-05
2.592857142857142971e+00,1.801588345282367629e-05,4.922410287178389442e-05
2.593650793650793762e+00,1.981023994674335393e-05,4.032114693514927831e-05
2.594444444444444553e+00,1.559470376209803967e-05,2.689319850233104942e-05
2.595238095238095344e+00,8.167065780203715738e-06,1.362917638027819036e-05
2.596031746031746135e+00,6.755567772700862529e-07,4.545153651259414661e-06
2.596825396825396925e+00,-4.173092501532746158e-06,1.884765577028216896e-06
2.597619047619047716e+00,-4.739866059500601497e-06,5.668596742661174083e-06
2.598412698412698507e+00,-7.753446285366087254e-07,1.399471022487077174e-05
2.599206349206349298e+00,6.635782897773398851e-06,2.388341520710985901e-05
2.600000000000000089e+00,1.548235802024822551e-05,3.227384776550339465e-05
2.600793650793650880e+00,2.345828615531314067e-05,3.682443502658164393e-05
2.601587301587301670e+00,2.862782472637533286e-05,3.635714287543388690e-05
2.602380952380952461e+00,2.994013351271505874e-05,3.094861427951818453e-05
2.603174603174603252e+00,2.746805950308678595e-05,2.173930880229430913e-05
2.603968253968254043e+00,2.232555635706759084e-05,1.054958854392844151e-05
2.604761904761904834e+00,1.629633439637379223e-05,-5.910035862882548640e-07
2.605555555555555625e+00,1.127757470152162221e-05,-9.886380412823027612e-06
2.606349206349206415e+00,8.694295062780542561e-06,-1.609894129428515302e-05
2.607142857142857206e+00,9.049896339270571878e-06,-1.871943471598539548e-05
2.607936507936507997e+00,1.173877701407082381e-05,-1.799056401791265469e-05
2.608730158730158788e+00,1.517618850404903672e-05,-1.481253633435891151e-05
2.609523809523809579e+00,1.722468784690661640e-05,-1.055400988323434315e-05
2.610317460317460370e+00,1.582725960265261671e-05,-6.782075372491321315e-06
2.611111111111111160e+00,9.693100859531940332e-06,-4.929349996905300407e-06
2.611904761904761951e+00,-1.168629433242396329e-06,-5.942194860813505723e-06
2.612698412698412742e+00,-1.527325874739192163e-05,-9.990311676900162546e-06
2.613492063492063533e+00,-2.995895096865185773e-05,-1.633863043523889306e-05
2.614285714285714324e+00,-4.209979481334213378e-05,-2.346212694240805210e-05
2.615079365079365115e+00,-4.899822385264206463e-05,-2.941731433226051374e-05
2.615873015873015905e+00,-4.914581109038739036e-05,-3.239125056025012164e-05
2.616666666666666696e+00,-4.260462572904061772e-05,-3.126569136372657601e-05
2.617460317460317487e+00,-3.091703509951157671e-05,-2.599855471138298862e-05
2.618253968253968278e+00,-1.661782174716979851e-05,-1.766982626380190545e-05
2.619047619047619069e+00,-2.534469144886258118e-06,-8.166974590239100727e-06
2.619841269841269860e+00,8.905639814874656939e-06,3.640490144951705946e-07
2.620634920634920650e+00,1.617978751633019176e-05,6.098170290391479912e-06
2.621428571428571441e+00,1.888480278469240110e-05,7.972177352183483951e-06
2.622222222222222232e+00,1.765145330568241021e-05,5.909204335239614877e-06
2.623015873015873023e+00,1.382419282334052126e-05,8.146780082442590633e-07
2.623809523809523814e+00,9.020305207032585141e-06,-5.641226498373391254e-06
2.624603174603174605e+00,4.696253062043835251e-06,-1.141793557944454320e-05
2.625396825396825395e+00,1.829371829225616536e-06,-1.460521493466147398e-05
2.626190476190476186e+00,7.782995949691352189e-07,-1.392351306031218513e-05
2.626984126984126977e+00,1.330018310424967552e-06,-9.093826146560030920e-06
2.627777777777777768e+00,2.890793812573536938e-06,-9.578341651651086538e-07
2.628571428571428559e+00,4.745035772972152472e-06,8.708074566931482094e-06
2.629365079365079350e+00,6.296964909649679028e-06,1.764362542295050992e-05
2.630158730158730140e+00,7.225626019281531254e-06,2.369522687500355491e-05
2.630952380952380931e+00,7.518818836930940928e-06,2.538244043125072354e-05
2.631746031746031722e+00,7.395139077775542431e-06,2.228308705666568891e-05
2.632539682539682513e+00,7.161020681331740962e-06,1.513041062588253201e-05
2.633333333333333304e+00,7.067168189326737435e-06,5.605066701929008942e-06
2.634126984126984095e+00,7.218875074927817481e-06,-4.101668359793694585e-06
2.634920634920634885e+00,7.563385983773876358e-06,-1.182196614059830940e-05
2.635714285714285676e+00,7.941772156756917253e-06,-1.590645020482722792e-05
2.636507936507936467e+00,8.169872975140923650e-06,-1.557284754618865001e-05
2.637301587301587258e+00,8.109578757296258408e-06,-1.104719434735410023e-05
2.638095238095238049e+00,7.704347195311942191e-06,-3.490332722790415751e-06
2.638888888888888840e+00,6.973052430958370996e-06,5.249527036311149631e-06
2.639682539682539630e+00,5.975414157195962767e-06,1.299435662997322112e-05
2.640476190476190421e+00,4.772970003219450574e-06,1.764844911032637274e-05
2.641269841269841212e+00,3.407835527281798995e-06,1.762703665123731834e-05
2.642063492063492003e+00,1.908739252762806232e-06,1.225686439637851990e-05
2.642857142857142794e+00,3.166636223477307826e-07,2.069801897568921608e-06
2.643650793650793585e+00,-1.290025826523371088e-06,-1.111504104230935666e-05
2.644444444444444375e+00,-2.791962316993030304e-06,-2.440087905568433355e-05
2.645238095238095166e+00,-4.056427283450492572e-06,-3.432146119346423600e-05
2.646031746031745957e+00,-4.988391252630796862e-06,-3.757477373101396112e-05
2.646825396825396748e+00,-5.581590203057568795e-06,-3.185254045092375926e-05
2.647619047619047539e+00,-5.940636395626750510e-06,-1.659101609411431662e-05
2.648412698412698330e+00,-6.253328073339604728e-06,6.577665461772107486e-06
2.649206349206349120e+00,-6.712809517392617588e-06,3.390080559388200542e-05
2.649999999999999911e+00,-7.415300833393673728e-06,6.022397073702089352e-05
2.650793650793650702e+00,-8.279714607623217884e-06,8.022517669845469462e-05
2.651587301587301493e+00,-9.037079475846226178e-06,8.977215907205899899e-05
2.652380952380952284e+00,-9.311822777127846362e-06,8.691467735914297954e-05
2.653174603174603075e+00,-8.771414897742690911e-06,7.218292764710634130e-05
2.653968253968253865e+00,-7.280253468280790330e-06,4.817289621341715752e-05
2.654761904761904656e+00,-4.983572616416736613e-06,1.866896757750321795e-05
2.655555555555555447e+00,-2.276776598713336397e-06,-1.233496699063328033e-05
2.656349206349206238e+00,3.284774439922251174e-07,-4.140502369609157821e-05
2.657142857142857029e+00,2.378311025031714004e-06,-6.606794154862006554e-05
2.657936507936507819e+00,3.610079195943352011e-06,-8.485588186793262787e-05
2.658730158730158610e+00,3.990400876328539674e-06,-9.712517333531442041e-05
2.659523809523809401e+00,3.655653596327621137e-06,-1.028007320130421871e-04
2.660317460317460192e+00,2.803192416647084599e-06,-1.021499322916111804e-04
2.661111111111110983e+00,1.602000463685038489e-06,-9.563033464042149730e-05
2.661904761904761774e+00,1.693447531395423147e-07,-8.382087003557022061e-05
2.662698412698412564e+00,-1.390004209495697605e-06,-6.743121718594828802e-05
2.663492063492063355e+00,-2.926769183535648174e-06,-4.736950163666557627e-05
2.664285714285714146e+00,-4.221535156148351249e-06,-2.482613935427414859e-05
2.665079365079364937e+00,-5.011448495594392922e-06,-1.311664458862892057e-06
2.665873015873015728e+00,-5.056431861264670528e-06,2.141227679048644323e-05
2.666666666666666519e+00,-4.214605833258939392e-06,4.153485978646892149e-05
2.667460317460317309e+00,-2.499410748128936810e-06,5.749614737527840319e-05
2.668253968253968100e+00,-1.049193030450077726e-07,6.828890398477376316e-05
2.669047619047618891e+00,2.602128599140530093e-06,7.363473861233866982e-05
2.669841269841269682e+00,5.122026874287018083e-06,7.393051313284978781e-05
2.670634920634920473e+00,6.893558107353562693e-06,6.994637161900807865e-05
2.671428571428571264e+00,7.394217088280983293e-06,6.238305496213291030e-05
2.672222222222222054e+00,6.255837980068928594e-06,5.150103240321737098e-05
2.673015873015872845e+00,3.370157463261621696e-06,3.703947634763772844e-05
2.673809523809523636e+00,-1.046400113304566511e-06,1.852376990218618195e-05
2.674603174603174427e+00,-6.452302651709360045e-06,-4.122307347630577890e-06
2.675396825396825218e+00,-1.205070748890672647e-05,-2.989023662640407560e-05
2.676190476190476009e+00,-1.691610446290343095e-05,-5.620641788570498619e-05
2.676984126984126799e+00,-2.015268258683454802e-05,-7.889275412698282784e-05
2.677777777777777590e+00,-2.105555560276995564e-05,-9.269938921279604065e-05
2.678571428571428381e+00,-1.924573323722333505e-05,-9.240567070738822230e-05
2.679365079365079172e+00,-1.475316544554551924e-05,-7.432019420038360480e-05
2.680158730158729963e+00,-8.032761486181790882e-06,-3.781941660225406228e-05
2.680952380952380754e+00,8.694601395183703261e-08,1.359902301293234249e-05
2.681746031746031544e+00,8.512168957337472693e-06,7.228573278560539183e-05
2.682539682539682335e+00,1.603563931849225822e-05,1.277119290020426899e-04
2.683333333333333126e+00,2.151742180311435582e-05,1.688257734235972451e-04
2.684126984126983917e+00,2.407598948053457215e-05,1.867853213314088772e-04
2.684920634920634708e+00,2.326133285667484992e-05,1.771893845701966110e-04
2.685714285714285499e+00,1.917275016178761655e-05,1.411573679393948711e-04
2.686507936507936289e+00,1.248478199883313103e-05,8.504955113238998822e-05
2.687301587301587080e+00,4.361317841824161248e-06,1.901901309351801178e-05
2.688095238095238315e+00,-3.735101808145538712e-06,-4.517552320087332571e-05
2.688888888888889106e+00,-1.030693755261432780e-05,-9.658322974272659945e-05
2.689682539682539897e+00,-1.411147077133684835e-05,-1.272114989915668830e-04
2.690476190476190688e+00,-1.442343510441545284e-05,-1.335071042068557308e-04
2.691269841269841478e+00,-1.121589699720938280e-05,-1.168779646064801265e-04
2.692063492063492269e+00,-5.210602503094607657e-06,-8.312420368958422785e-05
2.692857142857143060e+00,2.234081507845317565e-06,-4.088284937496642382e-05
2.693650793650793851e+00,9.397967675635149570e-06,5.211707506724971184e-07
2.694444444444444642e+00,1.459198866912991335e-05,3.321162322762475147e-05
2.695238095238095433e+00,1.657976772066931259e-05,5.228593908270910164e-05
2.696031746031746223e+00,1.491641530321431983e-05,5.637839430500594495e-05
2.696825396825397014e+00,1.010744149254101196e-05,4.726968086193300664e-05
2.697619047619047805e+00,3.533091183233397802e-06,2.884243276817801969e-05
2.698412698412698596e+00,-2.861714743730792360e-06,5.807433318589002600e-06
2.699206349206349387e+00,-7.053092156658300660e-06,-1.741401703436267940e-05
2.700000000000000178e+00,-7.486886398811322301e-06,-3.741105203003754372e-05
2.700793650793650968e+00,-3.544953267701904792e-06,-5.204458160634198375e-05
2.701587301587301759e+00,4.210965723231145408e-06,-6.033371249473484208e-05
2.702380952380952550e+00,1.410857413198726368e-05,-6.213538018282578688e-05
2.703174603174603341e+00,2.375296538916565420e-05,-5.780267772531052324e-05
2.703968253968254132e+00,3.063818280139968243e-05,-4.797335639087077703e-05
2.704761904761904923e+00,3.280687814409641734e-05,-3.356610006837549838e-05
2.705555555555555713e+00,2.935857848325647775e-05,-1.595376758244154130e-05
2.706349206349206504e+00,2.065572034582321764e-05,2.838617240763901412e-06
2.707142857142857295e+00,8.180444618572995261e-06,2.013700354237722782e-05
2.707936507936508086e+00,-5.888107915957389080e-06,3.299835517978585601e-05
2.708730158730158877e+00,-1.922155624851536239e-05,3.895259830304136301e-05
2.709523809523809668e+00,-2.983705632546737417e-05,3.685265934712468789e-05
2.710317460317460458e+00,-3.640434798033347151e-05,2.744654292302244181e-05
2.711111111111111249e+00,-3.832112995378174564e-05,1.335854704391011293e-05
2.711904761904762040e+00,-3.560960889300450233e-05,-1.585511242946432919e-06
2.712698412698412831e+00,-2.874372704505582152e-05,-1.346042572464619259e-05
2.713492063492063622e+00,-1.851029479901299425e-05,-1.935067300407761022e-05
2.714285714285714413e+00,-5.951901576514607593e-06,-1.805969530418506482e-05
2.715079365079365203e+00,7.628176187301006066e-06,-1.023031226448784749e-05
2.715873015873015994e+00,2.066398459846447824e-05,2.031442896005976143e-06
2.716666666666666785e+00,3.139795516469118090e-05,1.578499318064376526e-05
2.717460317460317576e+00,3.806335626358430527e-05,2.793506280261294603e-05
2.718253968253968367e+00,3.916646728396495789e-05,3.586955053796926239e-05
2.719047619047619158e+00,3.381239899912576608e-05,3.798208075505411595e-05
2.719841269841269948e+00,2.199394684159207392e-05,3.395397795137941469e-05
2.720634920634920739e+00,4.758788023274010433e-06,2.468684086817402051e-05
2.721428571428571530e+00,-1.581488853044429725e-05,1.191517502518847860e-05
2.722222222222222321e+00,-3.686672598508001104e-05,-2.316955644280732173e-06
2.723015873015873112e+00,-5.520088266215554437e-05,-1.609227532237605734e-05
2.723809523809523903e+00,-6.784637964371395449e-05,-2.784419136251248199e-05
2.724603174603174693e+00,-7.261183716480415409e-05,-3.638966832405496544e-05
2.725396825396825484e+00,-6.851658930096652419e-05,-4.088678324608126859e-05
2.726190476190476275e+00,-5.601028241657916417e-05,-4.083432935728198931e-05
2.726984126984127066e+00,-3.693653187191697204e-05,-3.616734243384380089e-05
2.727777777777777857e+00,-1.424164627983882350e-05,-2.742301129251396323e-05
2.728571428571428648e+00,8.524766652963640420e-06,-1.588872866558125701e-05
2.729365079365079438e+00,2.782540575775938795e-05,-3.614373754922121092e-06
2.730158730158730229e+00,4.074489938401310067e-05,6.811002626561989935e-06
2.730952380952381020e+00,4.547530101261389017e-05,1.274534185576066997e-05
2.731746031746031811e+00,4.159772305088896640e-05,1.216233019205394228e-05
2.732539682539682602e+00,3.012873764510802394e-05,4.323135410115711977e-06
2.733333333333333393e+00,1.333699560611677440e-05,-9.775229869917270459e-06
2.734126984126984183e+00,-5.636397538753893319e-06,-2.736572382349792759e-05
2.734920634920634974e+00,-2.328934463341032771e-05,-4.436134541621700259e-05
2.735714285714285765e+00,-3.631026291442773324e-05,-5.619475937523030396e-05
2.736507936507936556e+00,-4.207363307070585175e-05,-5.882189881722261327e-05
2.737301587301587347e+00,-3.900921221316628880e-05,-4.962954009640771036e-05
2.738095238095238138e+00,-2.681403521973810727e-05,-2.804867940144779306e-05
2.738888888888888928e+00,-6.507054537631543177e-06,4.215773035584689117e-06
2.739682539682539719e+00,1.966215117179361861e-05,4.332800132845582124e-05
2.740476190476190510e+00,4.843939937131076990e-05,8.377566167241453515e-05
2.741269841269841301e+00,7.591423320681381002e-05,1.190859430419141738e-04
2.742063492063492092e+00,9.797325420467680433e-05,1.427771536337861589e-04
2.742857142857142883e+00,1.108389762222698765e-04,1.494732709903681493e-04
2.743650793650793673e+00,1.116685145724911866e-04,1.359889110125636180e-04
2.744444444444444464e+00,9.915350788946684262e-05,1.021104228548209384e-04
2.745238095238095255e+00,7.399723176332515515e-05,5.085936778419301559e-05
2.746031746031746046e+00,3.908752487898002853e-05,-1.180420525264221825e-05
2.746825396825396837e+00,-7.967343270074801886e-07,-7.773127726182294862e-05
2.747619047619047628e+00,-3.977883924105015339e-05,-1.376402750774847062e-04
2.748412698412698418e+00,-7.202148443207681669e-05,-1.823783729333837130e-04
2.749206349206349209e+00,-9.290921023890758295e-05,-2.043135353603196000e-04
2.750000000000000000e+00,-9.995504982597615035e-05,-1.987300609311319557e-04
2.750793650793650791e+00,-9.320416612002604398e-05,-1.649862903238941527e-04
2.751587301587301582e+00,-7.506162561740589462e-05,-1.071008284599110394e-04
2.752380952380952372e+00,-4.962962297175954840e-05,-3.345422116301704699e-05
2.753174603174603163e+00,-2.175857562116165783e-05,4.452810625592712343e-05
2.753968253968253954e+00,3.934737593948817606e-06,1.145433863430348522e-04
2.754761904761904745e+00,2.386095386460978436e-05,1.659447753055632484e-04
2.755555555555555536e+00,3.593365987260739851e-05,1.919637902359136981e-04
2.756349206349206327e+00,3.969960621262307601e-05,1.909828581517795585e-04
2.757142857142857117e+00,3.616971904277989938e-05,1.665005912138568507e-04
2.757936507936507908e+00,2.742856258635730378e-05,1.258584055684095718e-04
2.758730158730158699e+00,1.610835769840597895e-05,7.818827741606965327e-05
2.759523809523809490e+00,4.822661332973722317e-06,3.223435333298976200e-05
2.760317460317460281e+00,-4.332818316911148466e-06,-5.360324986077559372e-06
2.761111111111111072e+00,-1.010893422516275892e-05,-3.095787818076920812e-05
2.761904761904761862e+00,-1.219787904388733989e-05,-4.397744991655280116e-05
2.762698412698412653e+00,-1.110017476660894574e-05,-4.629241244890460263e-05
2.763492063492063444e+00,-7.838218219938738554e-06,-4.128928818975587675e-05
2.764285714285714235e+00,-3.624703111869074182e-06,-3.289087237835490343e-05
2.765079365079365026e+00,4.178424470987878881e-07,-2.473822444342897009e-05
2.765873015873015817e+00,3.434117354937495992e-06,-1.960453914652293231e-05
2.766666666666666607e+00,4.905575669047380300e-06,-1.904668131059555000e-05
2.767460317460317398e+00,4.639410572575966966e-06,-2.329093207507507978e-05
2.768253968253968189e+00,2.714313604365973087e-06,-3.135503478371867118e-05
2.769047619047618980e+00,-5.828664889606719955e-07,-4.139657672847791003e-05
2.769841269841269771e+00,-4.807062196404441905e-06,-5.124371452520697713e-05
2.770634920634920562e+00,-9.388890623399949036e-06,-5.901078752561258567e-05
2.771428571428571352e+00,-1.367273767953161267e-05,-6.363862516485418639e-05
2.772222222222222143e+00,-1.698874655208276440e-05,-6.516578902717469598e-05
2.773015873015872934e+00,-1.877002502547400420e-05,-6.458206590799480003e-05
2.773809523809523725e+00,-1.868706516550939454e-05,-6.324833191846060008e-05
2.774603174603174516e+00,-1.674107085216959150e-05,-6.204173861037656649e-05
2.775396825396825307e+00,-1.326598203720898386e-05,-6.053829245657511333e-05
2.776190476190476097e+00,-8.835722681506142382e-06,-5.661998315144983334e-05
2.776984126984126888e+00,-4.124215107482658114e-06,-4.683532872182677171e-05
2.777777777777777679e+00,2.194145716098950509e-07,-2.760989119717207206e-05
2.778571428571428470e+00,3.647610817766841144e-06,2.974830923333294260e-06
2.779365079365079261e+00,5.753512069973678457e-06,4.350084010485941074e-05
2.780158730158730052e+00,6.302002172936924969e-06,8.846795199552310836e-05
2.780952380952380842e+00,5.269211010266107480e-06,1.290837201407593322e-04
2.781746031746031633e+00,2.883044346755361433e-06,1.555565068033561713e-04
2.782539682539682424e+00,-3.570712019351938002e-07,1.601224690660627481e-04
2.783333333333333215e+00,-3.706776993736117901e-06,1.396350119163910380e-04
2.784126984126984006e+00,-6.271770579115318381e-06,9.673669289702960543e-05
2.784920634920634797e+00,-7.176059117979153600e-06,3.927938739394370044e-05
2.785714285714285587e+00,-5.775531229681384332e-06,-2.165870768899397260e-05
2.786507936507936378e+00,-1.858042494663577920e-06,-7.443766737909780524e-05
2.787301587301587169e+00,4.236936338256186317e-06,-1.094632291303445455e-04
2.788095238095237960e+00,1.162870046860331165e-05,-1.211639940970840341e-04
2.788888888888888751e+00,1.905138744880651558e-05,-1.089654229263522622e-04
2.789682539682539542e+00,2.512809732775628794e-05,-7.710860809647616249e-05
2.790476190476190332e+00,2.869235232480221918e-05,-3.342573554969097230e-05
2.791269841269841123e+00,2.906151230212280058e-05,1.256808386685406641e-05
2.792063492063491914e+00,2.617735626735914043e-05,5.177627303116416537e-05
2.792857142857142705e+00,2.057554056969509120e-05,7.734583333540153783e-05
2.793650793650793496e+00,1.320774233917147773e-05,8.586783465583466433e-05
2.794444444444444287e+00,5.188323239011636609e-06,7.776273470455448357e-05
2.795238095238095077e+00,-2.448740566277950405e-06,5.682495268656409456e-05
2.796031746031745868e+00,-8.918661952486416178e-06,2.906665769864820759e-05
2.796825396825396659e+00,-1.375991041073438141e-05,1.143239610492653659e-06
2.797619047619047450e+00,-1.683430276719996108e-05,-2.127819114902172620e-05
2.798412698412698241e+00,-1.828939313763464002e-05,-3.485288167095800047e-05
2.799206349206349032e+00,-1.850508201841609632e-05,-3.931633596914451431e-05
2.799999999999999822e+00,-1.802260039219446498e-05,-3.749289351782214276e-05
2.800793650793650613e+00,-1.744523656984856973e-05,-3.449526126408417981e-05
2.801587301587301404e+00,-1.731126176088641146e-05,-3.619427062689614986e-05
2.802380952380952195e+00,-1.795725186403248274e-05,-4.723130059841774167e-05
2.803174603174602986e+00,-1.940157471294333852e-05,-6.906210736745999903e-05
2.803968253968253777e+00,-2.128058388457013152e-05,-9.864815598298589468e-05
2.804761904761904567e+00,-2.286638730298069309e-05,-1.283396832085177469e-04
2.805555555555555358e+00,-2.318500517651052209e-05,-1.472148875653772908e-04
2.806349206349206149e+00,-2.123372383390177757e-05,-1.437420002651433560e-04
2.807142857142856940e+00,-1.626347960582079339e-05,-1.092199450805276568e-04
2.807936507936507731e+00,-8.053070938481582549e-06,-4.110557869408057734e-05
2.808730158730158522e+00,2.920002723241039980e-06,5.485004835841423583e-05
2.809523809523809312e+00,1.548692466235562911e-05,1.646013492746032497e-04
2.810317460317460103e+00,2.798691703590798770e-05,2.683297623988720464e-04
2.811111111111110894e+00,3.860487331135148962e-05,3.450038720936619103e-04
2.811904761904761685e+00,4.575418778369172949e-05,3.776779756281305666e-04
2.812698412698412920e+00,4.840671232035750806e-05,3.578709051625403401e-04
2.813492063492063711e+00,4.629119446959504408e-05,2.876648170430354170e-04
2.814285714285714501e+00,3.991979740935562300e-05,1.789902141762017768e-04
2.815079365079365292e+00,3.045195413236266737e-05,5.053301285788867566e-05
2.815873015873016083e+00,1.944589465938423260e-05,-7.661747589709914149e-05
2.816666666666666874e+00,8.562635292377771286e-06,-1.832947576729566529e-04
2.817460317460317665e+00,-7.217991984900997952e-07,-2.555614443765426313e-04
2.818253968253968456e+00,-7.354279468557722594e-06,-2.865088353508680021e-04
2.819047619047619246e+00,-1.085846030131625519e-05,-2.765417113754012877e-04
2.819841269841270037e+00,-1.137638855675937650e-05,-2.324379766805590710e-04
2.820634920634920828e+00,-9.585921354903318445e-06,-1.655521955764464664e-04
2.821428571428571619e+00,-6.511400807360853078e-06,-8.947474533182326868e-05
2.822222222222222410e+00,-3.274948240568068842e-06,-1.742256029313314481e-05
2.823015873015873201e+00,-8.501118082680602795e-07,4.027104275882144134e-05
2.823809523809523991e+00,1.274397544990314620e-07,7.804685918512361880e-05
2.824603174603174782e+00,-5.412779953729260740e-07,9.584892532391136026e-05
2.825396825396825573e+00,-2.620773086982242228e-06,9.839595767061408394e-05
2.826190476190476364e+00,-5.536868657114160136e-06,9.314733335174218683e-05
2.826984126984127155e+00,-8.542932972680889706e-06,8.755705100760946102e-05
2.827777777777777946e+00,-1.091664355802184206e-05,8.645109264666563781e-05
2.828571428571428736e+00,-1.213521111525120801e-05,9.033348730763317389e-05
2.829365079365079527e+00,-1.198046955608724185e-05,9.514966330799126291e-05
2.830158730158730318e+00,-1.055007283454598678e-05,9.359321893818650586e-05
2.830952380952381109e+00,-8.189525332584485020e-06,7.756664378074639983e-05
2.831746031746031900e+00,-5.390317918588641173e-06,4.106036163239571736e-05
2.832539682539682691e+00,-2.700119101885293355e-06,-1.739032393871813272e-05
2.833333333333333481e+00,-6.613328028301317876e-07,-9.337411912928787305e-05
2.834126984126984272e+00,2.394923049761124328e-07,-1.768004974916061395e-04
2.834920634920635063e+00,-3.633500616229853120e-07,-2.536428467200598381e-04
2.835714285714285854e+00,-2.634524612418033057e-06,-3.088604627370399231e-04
2.836507936507936645e+00,-6.472859816027057860e-06,-3.298318892827329491e-04
2.837301587301587436e+00,-1.149736629907938992e-05,-3.094856137420213659e-04
2.838095238095238226e+00,-1.709027221250981058e-05,-2.483377960188238318e-04
2.838888888888889017e+00,-2.246878497616359812e-05,-1.548350993086750028e-04
2.839682539682539808e+00,-2.675153780124565377e-05,-4.375731468608308759e-05
2.840476190476190599e+00,-2.901217872172971976e-05,6.705946382988595383e-05
2.841269841269841390e+00,-2.834504584024883703e-05,1.608661568727812186e-04
2.842063492063492181e+00,-2.397849700209696153e-05,2.258073413862346718e-04
2.842857142857142971e+00,-1.545024051135343381e-05,2.571961318029760942e-04
2.843650793650793762e+00,-2.816257770304434180e-06,2.575651133582562312e-04
2.844444444444444553e+00,1.317354391434071393e-05,2.346274389546270701e-04
2.845238095238095344e+00,3.100839779191304858e-05,1.980595977303941204e-04
2.846031746031746135e+00,4.850926731926355983e-05,1.563905277694031164e-04
2.846825396825396925e+00,6.309282862085771842e-05,1.150913484468861584e-04
2.847619047619047716e+00,7.218208397093501736e-05,7.630814934384489627e-05
2.848412698412698507e+00,7.370521002847422651e-05,3.990478355911457445e-05
2.849206349206349298e+00,6.659110634973361203e-05,4.996891527162710622e-06
2.850000000000000089e+00,5.114431622004786502e-05,-2.882131920561612306e-05
2.850793650793650880e+00,2.917545375835649222e-05,-6.096322208011766117e-05
2.851587301587301670e+00,3.789030137404702610e-06,-9.001934677394922988e-05
2.852380952380952461e+00,-2.119373543923841729e-05,-1.143314829692720924e-04
2.853174603174603252e+00,-4.206979859062719330e-05,-1.326351879290106844e-04
2.853968253968254043e+00,-5.610479931592432512e-05,-1.444805186838706197e-04
2.854761904761904834e+00,-6.211115843958122697e-05,-1.502482287648381160e-04
2.855555555555555625e+00,-6.056288338459248668e-05,-1.507441734685058276e-04
2.856349206349206415e+00,-5.324681592675715959e-05,-1.465407956779639083e-04
2.857142857142857206e+00,-4.262137532409978615e-05,-1.373695078247711993e-04
2.857936507936507997e+00,-3.112454577160157977e-05,-1.218950735049787262e-04
2.858730158730158788e+00,-2.063802530036531631e-05,-9.809871212447913112e-05
2.859523809523809579e+00,-1.221984907195601147e-05,-6.426429262932937137e-05
2.860317460317460370e+00,-6.113778118972507590e-06,-2.025874635893290041e-05
2.861111111111111160e+00,-1.962903801802880089e-06,3.143938435189478161e-05
2.861904761904761951e+00,8.856443604390634672e-07,8.551804168123043788e-05
2.862698412698412742e+00,3.093434753802444779e-06,1.346890655101839584e-04
2.863492063492063533e+00,5.131074791272908532e-06,1.714380603893979847e-04
2.864285714285714324e+00,7.188426647285132745e-06,1.900739263184284781e-04
2.865079365079365115e+00,9.181806612555693179e-06,1.883409205653926619e-04
2.865873015873015905e+00,1.083036959454738162e-05,1.680376214203161691e-04
2.866666666666666696e+00,1.177244180398781179e-05,1.344844015934434857e-04
2.867460317460317487e+00,1.169362549600161052e-05,9.508714252056278118e-05
2.868253968253968278e+00,1.043821841417924186e-05,5.748688111942932281e-05
2.869047619047619069e+00,8.080015041330847222e-06,2.781170601321177575e-05
2.869841269841269860e+00,4.942740800156109765e-06,9.424743032729953493e-06
2.870634920634920650e+00,1.574984578497418109e-06,2.394429065120854850e-06
2.871428571428571441e+00,-1.315327515864950339e-06,3.755831952971434105e-06
2.872222222222222232e+00,-2.972532178286313192e-06,8.479501536010345178e-06
2.873015873015873023e+00,-2.752383937253130047e-06,1.091359110058597941e-05
2.873809523809523814e+00,-2.953465701307862872e-07,6.353366533600501106e-06
2.874603174603174605e+00,4.358902502975094871e-06,-7.635790072531907258e-06
2.875396825396825395e+00,1.077976140706001904e-05,-3.045509670058881951e-05
2.876190476190476186e+00,1.826673984671353364e-05,-5.846063904275491702e-05
2.876984126984126977e+00,2.599170820925750323e-05,-8.573958894966319491e-05
2.877777777777777768e+00,3.306366204485589955e-05,-1.055355006477886324e-04
2.878571428571428559e+00,3.850070896759369188e-05,-1.120072217045976737e-04
2.879365079365079350e+00,4.119580932337395783e-05,-1.018700259099075190e-04
2.880158730158730140e+00,3.999117874049776868e-05,-7.543579819198596183e-05
2.880952380952380931e+00,3.390705222338990469e-05,-3.669399385176187007e-05
2.881746031746031722e+00,2.246542972813739164e-05,7.646205590098555571e-06
2.882539682539682513e+00,5.987903378318309114e-06,4.988033103213498898e-05
2.883333333333333304e+00,-1.424556048457886385e-05,8.324386897282486509e-05
2.884126984126984095e+00,-3.603888431575854912e-05,1.034274163368143189e-04
2.884920634920634885e+00,-5.652641841141653749e-05,1.092251996071759066e-04
2.885714285714285676e+00,-7.258415555626358449e-05,1.022288244666001998e-04
2.886507936507936467e+00,-8.134355914175832216e-05,8.583663546513904230e-05
2.887301587301587258e+00,-8.072955364912340619e-05,6.404446913555317115e-05
2.888095238095238049e+00,-6.992368556257457901e-05,4.044422452591291828e-05
2.888888888888888840e+00,-4.964372048480619385e-05,1.764333929493929913e-05
2.889682539682539630e+00,-2.215617336468276370e-05,-2.906791532014145500e-06
2.890476190476190421e+00,9.000785665551699091e-06,-2.078580368471472420e-05
2.891269841269841212e+00,3.953834476083317663e-05,-3.627842365229705493e-05
2.892063492063492003e+00,6.509155690216741105e-05,-4.992015408684835929e-05
2.892857142857142794e+00,8.194172566432850657e-05,-6.201790092363079526e-05
2.893650793650793585e+00,8.767865389889601844e-05,-7.228339053001458928e-05
2.894444444444444375e+00,8.169241166524677557e-05,-7.969081887232554282e-05
2.895238095238095166e+00,6.538840647191959069e-05,-8.259480456026627193e-05
2.896031746031745957e+00,4.204038254351328223e-05,-7.907675148540466571e-05
2.896825396825396748e+00,1.623586336837666195e-05,-6.745509384938835429e-05
2.897619047619047539e+00,-7.058958791100769606e-06,-4.688847686188650797e-05
2.898412698412698330e+00,-2.365829203733730540e-05,-1.799657819572824291e-05
2.899206349206349120e+00,-3.122467481388611698e-05,1.661294751836785667e-05
2.899999999999999911e+00,-2.986079690703285762e-05,5.210640666647993561e-05
2.900793650793650702e+00,-2.196936912019276425e-05,8.174419770755416727e-05
2.901587301587301493e+00,-1.141776763497039937e-05,9.797457573000499184e-05
2.902380952380952284e+00,-2.325772970225806094e-06,9.425715414037970233e-05
2.903174603174603075e+00,2.093441695148452150e-06,6.718127284499520629e-05
2.903968253968253865e+00,2.918116434878033045e-07,1.814464937055763571e-05
2.904761904761904656e+00,-7.409512334110390432e-06,-4.612339137272806805e-05
2.905555555555555447e+00,-1.912407308780293545e-05,-1.145263600017339703e-04
2.906349206349206238e+00,-3.203104679872821473e-05,-1.738324941487477844e-04
2.907142857142857029e+00,-4.311463122333719785e-05,-2.115300663639026841e-04
2.907936507936507819e+00,-4.983694846240396814e-05,-2.185434853573580891e-04
2.908730158730158610e+00,-5.064201216456471887e-05,-1.911936416241636141e-04
2.909523809523809401e+00,-4.524085452341178873e-05,-1.320438645682337462e-04
2.910317460317460192e+00,-3.465004127875941108e-05,-4.952877043421497117e-05
2.911111111111110983e+00,-2.097061718486620309e-05,4.352355690190778443e-05
2.911904761904761774e+00,-6.928123064424316515e-06,1.322075746977842783e-04
2.912698412698412564e+00,4.748777476841341937e-06,2.023151127279764524e-04
2.913492063492063355e+00,1.197532788864541865e-05,2.430900177527371383e-04
2.914285714285714146e+00,1.382277728590022969e-05,2.493889894944310718e-04
2.915079365079364937e+00,1.076432623713806531e-05,2.226723200434922354e-04
2.915873015873015728e+00,4.595327766088717382e-06,1.704603315934887149e-04
2.916666666666666519e+00,-1.951087227987667292e-06,1.043313100252458737e-04
2.917460317460317309e+00,-5.806438617319203319e-06,3.703885604183964139e-05
2.918253968253968100e+00,-4.259931884028409176e-06,-2.036738988286206561e-05
2.919047619047618891e+00,4.393474718896871024e-06,-6.059710505670093091e-05
2.919841269841269682e+00,2.035897302009612319e-05,-8.091688517758519744e-05
2.920634920634920473e+00,4.207445123188959202e-05,-8.273603944661749683e-05
2.921428571428571264e+00,6.623016470209618057e-05,-7.037359588205155891e-05
2.922222222222222054e+00,8.814343629939345027e-05,-4.953113020803739681e-05
2.923015873015872845e+00,1.025335940999134863e-04,-2.593698972651955838e-05
2.923809523809523636e+00,1.046445987346717962e-04,-4.429320842901118645e-06
2.924603174603174427e+00,9.150224178050679494e-05,1.150560783063459055e-05
2.925396825396825218e+00,6.294874855852828114e-05,1.989287525777120664e-05
2.926190476190476009e+00,2.207433269229709102e-05,2.027790054311162817e-05
2.926984126984126799e+00,-2.518338881980847891e-05,1.361647615881758172e-05
2.927777777777777590e+00,-7.122351108244786633e-05,1.981386052295626365e-06
2.928571428571428381e+00,-1.084247872507981516e-04,-1.195835556674910376e-05
2.929365079365079172e+00,-1.307757394829377954e-04,-2.561484416393818996e-05
2.930158730158729963e+00,-1.350564372978227791e-04,-3.712495434869943775e-05
2.930952380952380754e+00,-1.213163198722272320e-04,-4.573364764665207113e-05
2.931746031746031544e+00,-9.261971198468266588e-05,-5.177554013346519457e-05
2.932539682539682335e+00,-5.421607437317912812e-05,-5.628011448843081718e-05
2.933333333333333126e+00,-1.239626316182150834e-05,-6.037209933797920531e-05
2.934126984126983917e+00,2.668003882724915375e-05,-6.468409628688325788e-05
2.934920634920634708e+00,5.794781503288878036e-05,-6.895289309361552735e-05
2.935714285714285499e+00,7.805276891834006861e-05,-7.189808274233892220e-05
2.936507936507936289e+00,8.559026335166682075e-05,-7.142106456180612986e-05
2.937301587301587080e+00,8.101388725741714611e-05,-6.510971157519659588e-05
2.938095238095238315e+00,6.630016607324013315e-05,-5.097312014472353737e-05
2.938888888888889106e+00,4.447698403362891303e-05,-2.825916779046949495e-05
2.939682539682539897e+00,1.912886327568479714e-05,1.855047168006178075e-06
2.940476190476190688e+00,-6.032669399759504292e-06,3.592574560269433051e-05
2.941269841269841478e+00,-2.750629396874221231e-05,6.843298208311753147e-05
2.942063492063492269e+00,-4.228697154151852156e-05,9.257992231478346192e-05
2.942857142857143060e+00,-4.816882621032194317e-05,1.016718859171822478e-04
2.943650793650793851e+00,-4.409260151357078181e-05,9.090083352801736009e-05
2.944444444444444642e+00,-3.048369519382016323e-05,5.915218556395019766e-05
2.945238095238095433e+00,-9.452154490328299575e-06,1.024568072847868837e-05
2.946031746031746223e+00,1.530349423631718837e-05,-4.701044725568676301e-05
2.946825396825397014e+00,3.900516902219766972e-05,-1.003031965387618193e-04
2.947619047619047805e+00,5.670561347335784064e-05,-1.366603471166032927e-04
2.948412698412698596e+00,6.440287840186307189e-05,-1.459040944718348191e-04
2.949206349206349387e+00,6.001516383888754613e-05,-1.236046674498839136e-04
2.950000000000000178e+00,4.388096283379266851e-05,-7.251202907704433368e-05
2.950793650793650968e+00,1.863824569662457867e-05,-1.974319133004825273e-06
2.951587301587301759e+00,-1.140523941832883781e-05,7.444214791861551044e-05
2.952380952380952550e+00,-4.113607698689928478e-05,1.423778067665989837e-04
2.953174603174603341e+00,-6.547996128191007118e-05,1.901763324227213111e-04
2.953968253968254132e+00,-8.012125286642175857e-05,2.115297319524678883e-04
2.954761904761904923e+00,-8.212251871355761852e-05,2.065979265216162522e-04
2.955555555555555713e+00,-7.047573170945438479e-05,1.813416543802989821e-04
2.956349206349206504e+00,-4.650987898687358724e-05,1.453126534484827767e-04
2.957142857142857295e+00,-1.396809470962805493e-05,1.086010640514585129e-04
2.957936507936508086e+00,2.143356920770001669e-05,7.888333484567916205e-05
2.958730158730158877e+00,5.300842047332472170e-05,5.943612698330918753e-05
2.959523809523809668e+00,7.448562243283506665e-05,4.861422829253750854e-05
2.960317460317460458e+00,8.143482156622910344e-05,4.081352425619978259e-05
2.961111111111111249e+00,7.234474488522823013e-05,2.855257627151710855e-05
2.961904761904762040e+00,4.905694908490095349e-05,5.087394401039192326e-06
2.962698412698412831e+00,1.641209381358218211e-05,-3.310675520804618924e-05
2.963492063492063622e+00,-1.883913254068704754e-05,-8.462892850059008389e-05
2.964285714285714413e+00,-4.959099575990227941e-05,-1.427227783701659491e-04
2.965079365079365203e+00,-6.996119099156880919e-05,-1.963499379682755186e-04
2.965873015873015994e+00,-7.644299003669310043e-05,-2.326241143304482535e-04
2.966666666666666785e+00,-6.838484625515431857e-05,-2.400923260745235473e-04
2.967460317460317576e+00,-4.783474826261006571e-05,-2.120620581009451469e-04
2.968253968253968367e+00,-1.895493953214706718e-05,-1.490381748207200935e-04
2.969047619047619158e+00,1.279340928157401759e-05,-5.944666263537231975e-05
2.969841269841269948e+00,4.157725707004118309e-05,4.174050221662640965e-05
2.970634920634920739e+00,6.215956503022335990e-05,1.361970307883682849e-04
2.971428571428571530e+00,7.082683885723306864e-05,2.063574261840394242e-04
2.972222222222222321e+00,6.615338726692072252e-05,2.392935417356902841e-04
2.973015873015873112e+00,4.943346653600197530e-05,2.293463153900859918e-04
2.973809523809523903e+00,2.459937959917396925e-05,1.789633678703751133e-04
2.974603174603174693e+00,-2.488169095533149614e-06,9.774013360629590387e-05
2.975396825396825484e+00,-2.532619275414162185e-05,1.079130356702346879e-07
2.976190476190476275e+00,-3.837281829709368461e-05,-9.764845717672719129e-05
2.976984126984127066e+00,-3.855374957174947275e-05,-1.803330793173620820e-04
2.977777777777777857e+00,-2.622941178513578769e-05,-2.361666621545350077e-04
2.978571428571428648e+00,-5.292103854696154692e-06,-2.581713894920028510e-04
2.979365079365079438e+00,1.772169454685445253e-05,-2.445892765806042569e-04
2.980158730158730229e+00,3.534923795989414284e-05,-1.985737859958139643e-04
2.980952380952381020e+00,4.132586621257726059e-05,-1.274784570396906951e-04
2.981746031746031811e+00,3.249930520811585558e-05,-4.190765886049334132e-05
2.982539682539682602e+00,9.902557102826350404e-06,4.555983450555982410e-05
2.983333333333333393e+00,-2.141591041065595892e-05,1.221319647568627905e-04
2.984126984126984183e+00,-5.378715639241959555e-05,1.769580553150382576e-04
2.984920634920634974e+00,-7.910110082845140994e-05,2.032032233491117197e-04
2.985714285714285765e+00,-9.108809516916637687e-05,1.993757645135076030e-04
2.986507936507936556e+00,-8.702328105519002287e-05,1.694072207126376731e-04
2.987301587301587347e+00,-6.837070252476840483e-05,1.214166715070603834e-04
2.988095238095238138e+00,-4.020421479937722907e-05,6.554612296342725395e-05
2.988888888888888928e+00,-9.615910159320474729e-06,1.152802005363939319e-05
2.989682539682539719e+00,1.636036053683170513e-05,-3.332754656436803895e-05
2.990476190476190510e+00,3.264858967920026802e-05,-6.521613360993091971e-05
2.991269841269841301e+00,3.729350341522649390e-05,-8.379263483403587146e-05
2.992063492063492092e+00,3.161106283369397642e-05,-9.116079371700646847e-05
2.992857142857142883e+00,1.939874444969921899e-05,-9.037615993462366716e-05
2.993650793650793673e+00,5.561114850306042615e-06,-8.407025353742345031e-05
2.994444444444444464e+00,-5.367853716521565746e-06,-7.368824478605069911e-05
2.995238095238095255e+00,-1.037372277381392731e-05,-5.952896086371200449e-05
2.996031746031746046e+00,-8.517495179765847128e-06,-4.142382159638912070e-05
2.996825396825396837e+00,-8.390709777836109375e-07,-1.963832555733798556e-05
2.997619047619047628e+00,1.026582384955301811e-05,4.469324193689072014e-06
2.998412698412698418e+00,2.193446468521633848e-05,2.833031418890655888e-05
2.999206349206349209e+00,3.167651405610975179e-05,4.860570589091438510e-05
3.000000000000000000e+00,3.790206560287184633e-05,6.196878322684694514e-05
3.000793650793650791e+00,4.002652812587575396e-05,6.592528800381165267e-05
3.001587301587301582e+00,3.822170555010187553e-05,5.942048117507132835e-05
3.002380952380952372e+00,3.301072075489837527e-05,4.310531922219680058e-05
3.003174603174603163e+00,2.493035780971776465e-05,1.925657892359782514e-05
3.003968253968253954e+00,1.441353312970007733e-05,-8.577390642440203835e-06
3.004761904761904745e+00,1.921262278159159070e-06,-3.611384369190962776e-05
3.005555555555555536e+00,-1.176867405034793505e-05,-5.897891817878510220e-05
3.006349206349206327e+00,-2.528726778600079192e-05,-7.339104231697128654e-05
3.007142857142857117e+00,-3.659305689804447651e-05,-7.680330367315259938e-05
3.007936507936507908e+00,-4.319658695181484030e-05,-6.839194360789295675e-05
3.008730158730158699e+00,-4.268526383657716055e-05,-4.926280334746320835e-05
3.009523809523809490e+00,-3.342223326211152343e-05,-2.228161147739949913e-05
3.010317460317460281e+00,-1.521754577148980327e-05,8.474239253433310810e-06
3.011111111111111072e+00,1.023753343415913946e-05,3.852240573834954943e-05
3.011904761904761862e+00,3.933532303002559567e-05,6.382032884649969538e-05
3.012698412698412653e+00,6.700395839270420950e-05,8.140483858245474642e-05
3.013492063492063444e+00,8.763961668528022617e-05,8.966880025950312364e-05
3.014285714285714235e+00,9.637776678226570904e-05,8.828253603596785716e-05
3.015079365079365026e+00,9.040531588783201806e-05,7.791826127147415007e-05
3.015873015873015817e+00,6.991076034489583646e-05,5.996835288895366697e-05
3.016666666666666607e+00,3.830668176482803216e-05,3.635559786314175189e-05
3.017460317460317398e+00,1.561888560772078826e-06,9.417020627297612834e-06
3.018253968253968189e+00,-3.321869758888611700e-05,-1.820405798088712423e-05
3.019047619047618980e+00,-5.955485615509387490e-05,-4.370342907240955173e-05
3.019841269841269771e+00,-7.315681403144168912e-05,-6.431216798580324985e-05
3.020634920634920562e+00,-7.283716989722651683e-05,-7.753651902416907281e-05
3.021428571428571352e+00,-6.054263148752193229e-05,-8.141852473516823882e-05
3.022222222222222143e+00,-4.056582553229190144e-05,-7.478516543363462887e-05
3.023015873015872934e+00,-1.823973255819355188e-05,-5.746758021037558472e-05
3.023809523809523725e+00,1.459846352438229000e-06,-3.049436947692153418e-05
3.024603174603174516e+00,1.500963215709426790e-05,3.761939815820247270e-06
3.025396825396825307e+00,2.089209075275326276e-05,4.159276221768505035e-05
3.026190476190476097e+00,1.956345974940660755e-05,7.827643639650215350e-05
3.026984126984126888e+00,1.295794091937634685e-05,1.087847370830385193e-04
3.027777777777777679e+00,3.742836891154982540e-06,1.287304199980377547e-04
3.028571428571428470e+00,-5.444395828802242296e-06,1.352492688911480548e-04
3.029365079365079261e+00,-1.259116606739168210e-05,1.275275909355470512e-04
3.030158730158730052e+00,-1.662962234069246821e-05,1.068562453109487409e-04
3.030952380952380842e+00,-1.746165252520118439e-05,7.627032203636893921e-05
3.031746031746031633e+00,-1.574614355111589445e-05,3.991585156391341225e-05
3.032539682539682424e+00,-1.255449061312008002e-05,2.286524972287369056e-06
3.033333333333333215e+00,-9.010472209700710384e-06,-3.253892395398287526e-05
3.034126984126984006e+00,-6.007119329161355298e-06,-6.152536465235830824e-05
3.034920634920634797e+00,-4.052844184429630096e-06,-8.304470726263773778e-05
3.035714285714285587e+00,-3.256522975984634388e-06,-9.688122806945570552e-05
3.036507936507936378e+00,-3.423975437030273278e-06,-1.038712147831780277e-04
3.037301587301587169e+00,-4.211838991096941802e-06,-1.052788746492073672e-04
3.038095238095237960e+00,-5.276178428333107224e-06,-1.021034624950619774e-04
3.038888888888888751e+00,-6.367146772261379371e-06,-9.455870160877049646e-05
3.039682539682539542e+00,-7.352813711369432159e-06,-8.194846774547579708e-05
3.040476190476190332e+00,-8.188153889846280499e-06,-6.306607050322189493e-05
3.041269841269841123e+00,-8.861344822687876660e-06,-3.706195193621377115e-05
3.042063492063491914e+00,-9.345632369512337975e-06,-4.494193107242451937e-06
3.042857142857142705e+00,-9.572461016035772188e-06,3.190458189336794744e-05
3.043650793650793496e+00,-9.431215375449872738e-06,6.721253618557377089e-05
3.044444444444444287e+00,-8.794040019812146631e-06,9.526330038679771037e-05
3.045238095238095077e+00,-7.557953214806566163e-06,1.103007844655390206e-04
3.046031746031745868e+00,-5.690912500284650543e-06,1.087036012055442438e-04
3.046825396825396659e+00,-3.266181626581706028e-06,9.008972770772392491e-05
3.047619047619047450e+00,-4.718987988329062023e-07,5.743563956863267499e-05
3.048412698412698241e+00,2.410481790026496306e-06,1.628952303110606532e-05
3.049206349206349032e+00,5.056190507745065798e-06,-2.655293150727431624e-05
3.049999999999999822e+00,7.163788231957465823e-06,-6.449006020689165136e-05
3.050793650793650613e+00,8.519826112834003043e-06,-9.234929729580218624e-05
3.051587301587301404e+00,9.041555482173786645e-06,-1.072288323238181816e-04
3.052380952380952195e+00,8.784421874551185153e-06,-1.088769670309376050e-04
3.053174603174602986e+00,7.914231005527763460e-06,-9.960509493378818580e-05
3.053968253968253777e+00,6.657257205620485796e-06,-8.373679052472875249e-05
3.054761904761904567e+00,5.248425980425627514e-06,-6.660187674257621174e-05
3.055555555555555358e+00,3.895176776579436632e-06,-5.317381041583651709e-05
3.056349206349206149e+00,2.764634838136792143e-06,-4.662512234155582623e-05
3.057142857142856940e+00,1.989380664131311405e-06,-4.722814638298885600e-05
3.057936507936507731e+00,1.678192857733249220e-06,-5.202835228611134473e-05
3.058730158730158522e+00,1.916636039646597390e-06,-5.552987700501453886e-05
3.059523809523809312e+00,2.748932291277905989e-06,-5.131855716457543466e-05
3.060317460317460103e+00,4.144484645102840785e-06,-3.420971207789276860e-05
3.061111111111110894e+00,5.964457173762398893e-06,-2.263234721031654306e-06
3.061904761904761685e+00,7.949789534422032513e-06,4.203816426950683741e-05
3.062698412698412920e+00,9.747514572604287048e-06,9.195362785759392395e-05
3.063492063492063711e+00,1.097751739647891702e-05,1.380834859419691717e-04
3.064285714285714501e+00,1.132316418677563883e-05,1.709747010144114024e-04
3.065079365079365292e+00,1.061620101311444629e-05,1.838785719786212086e-04
3.065873015873016083e+00,8.886176729956435206e-06,1.746954240968632253e-04
3.066666666666666874e+00,6.357440227918207246e-06,1.464307904371063855e-04
3.067460317460317665e+00,3.395794769298278560e-06,1.060599377821465832e-04
3.068253968253968456e+00,4.231985180647603293e-07,6.229361507890467358e-05
3.069047619047619246e+00,-2.173695727755477050e-06,2.309348833034006665e-05
3.069841269841270037e+00,-4.117636735201387303e-06,-6.235016475228086664e-06
3.070634920634920828e+00,-5.282381468462393309e-06,-2.388164132409178084e-05
3.071428571428571619e+00,-5.696864039860156168e-06,-3.126014127205710414e-05
3.072222222222222410e+00,-5.516143379935605835e-06,-3.193383105516903859e-05
3.073015873015873201e+00,-4.970055797579120367e-06,-3.018728068442749036e-05
3.073809523809523991e+00,-4.303954917981327948e-06,-2.965701827909115250e-05
3.074603174603174782e+00,-3.725952532779844767e-06,-3.231641630144340484e-05
3.075396825396825573e+00,-3.371920298113333859e-06,-3.799144854360890803e-05
3.076190476190476364e+00,-3.293701578114309974e-06,-4.448235396498041250e-05
3.076984126984127155e+00,-3.468876730673230700e-06,-4.826013938267090063e-05
3.077777777777777946e+00,-3.824221107245509290e-06,-4.558543412511663117e-05
3.078571428571428736e+00,-4.261596012556578921e-06,-3.378276986168124338e-05
3.079365079365079527e+00,-4.675104636421347874e-06,-1.233780574598702022e-05
3.080158730158730318e+00,-4.951535630130824891e-06,1.649769576636646174e-05
3.080952380952381109e+00,-4.952047976945656963e-06,4.780368065248341434e-05
3.081746031746031900e+00,-4.482720729305034775e-06,7.483925235435585628e-05
3.082539682539682691e+00,-3.275636832999109472e-06,9.050591194434904404e-05
3.083333333333333481e+00,-1.014502963531807558e-06,8.912776183721572427e-05
3.084126984126984272e+00,2.565720862364504461e-06,6.812582009696798509e-05
3.084920634920635063e+00,7.509008406379551882e-06,2.911558633990726552e-05
3.085714285714285854e+00,1.345493266665856837e-05,-2.197388673890582526e-05
3.086507936507936645e+00,1.953978375453182555e-05,-7.595388193871542690e-05
3.087301587301587436e+00,2.447704164874117067e-05,-1.224722910010213371e-04
3.088095238095238226e+00,2.685119516276331445e-05,-1.526530212181101583e-04
3.088888888888889017e+00,2.555760071027386452e-05,-1.614973872669982842e-04
3.089682539682539808e+00,2.022891687647600478e-05,-1.492263719623008013e-04
3.090476190476190599e+00,1.146534909488094534e-05,-1.210424278014034846e-04
3.091269841269841390e+00,7.562934736844996098e-07,-8.536381360129731161e-05
3.092063492063492181e+00,-9.891177862897430355e-06,-5.117338992340616447e-05
3.092857142857142971e+00,-1.848631486537079838e-05,-2.542009708377069712e-05
3.093650793650793762e+00,-2.357035037592903481e-05,-1.129461650821958778e-05
3.094444444444444553e+00,-2.455659726636393332e-05,-7.801653427871191941e-06
3.095238095238095344e+00,-2.181037978718109401e-05,-1.059535097905533451e-05
3.096031746031746135e+00,-1.647141228095729720e-05,-1.369228386589604353e-05
3.096825396825396925e+00,-1.009387938777681721e-05,-1.149213368779337041e-05
3.097619047619047716e+00,-4.218957780290005785e-06,-5.193479514047132227e-07
3.098412698412698507e+00,3.461658198987234864e-09,1.958035764596978090e-05
3.099206349206349298e+00,2.053230282665267340e-06,4.603134265080898547e-05
3.100000000000000089e+00,2.089003281428989334e-06,7.385862328919522298e-05
3.100793650793650880e+00,8.065158193850996374e-07,9.741365900728501861e-05
3.101587301587301670e+00,-8.440579577526426160e-07,1.119624890911944071e-04
3.102380952380952461e+00,-1.987692926220850295e-06,1.148223727026760193e-04
3.103174603174603252e+00,-2.090323466314821731e-06,1.057558487060836352e-04
3.103968253968254043e+00,-1.076849851652959594e-06,8.663873444762871059e-05
3.104761904761904834e+00,7.211406026914803997e-07,6.066879941224506874e-05
3.105555555555555625e+00,2.745952251046976614e-06,3.148776987926606320e-05
3.106349206349206415e+00,4.442395527749969320e-06,2.532741934592326521e-06
3.107142857142857206e+00,5.450230356918856612e-06,-2.324754475237690457e-05
3.107936507936507997e+00,5.700592587842765173e-06,-4.339522530289060908e-05
3.108730158730158788e+00,5.398835848705574529e-06,-5.589307830118519208e-05
3.109523809523809579e+00,4.919806517153825125e-06,-5.927611787974835448e-05
3.110317460317460370e+00,4.666740274701299148e-06,-5.296018913292453294e-05
3.111111111111111160e+00,4.943820812402653737e-06,-3.764932462366420401e-05
3.111904761904761951e+00,5.874126230412800528e-06,-1.557605254002969786e-05
3.112698412698412742e+00,7.372674757462664179e-06,9.647267183586073121e-06
3.113492063492063533e+00,9.165768777015916710e-06,3.365524917235880755e-05
3.114285714285714324e+00,1.083659708731082028e-05,5.232531151526362864e-05
3.115079365079365115e+00,1.187740279108172137e-05,6.283077299672461952e-05
3.115873015873015905e+00,1.174038065958710617e-05,6.433452538770196953e-05
3.116666666666666696e+00,9.893725775744414733e-06,5.800211986501979032e-05
3.117460317460317487e+00,5.895756230898578492e-06,4.631053027557695701e-05
3.118253968253968278e+00,-5.029002864229787816e-07,3.197857139704500648e-05
3.119047619047619069e+00,-9.230978732786722233e-06,1.702910151452486346e-05
3.119841269841269860e+00,-1.976743212189274455e-05,2.389210331095384619e-06
3.120634920634920650e+00,-3.106239660030769113e-05,-1.188244354358311360e-05
3.121428571428571441e+00,-4.156430139494322038e-05,-2.597344778935804658e-05
3.122222222222222232e+00,-4.938894905945431807e-05,-3.968282709913506187e-05
3.123015873015873023e+00,-5.264094899766676996e-05,-5.209305037843655440e-05
3.123809523809523814e+00,-4.986888497741983484e-05,-6.166864543319960945e-05
3.124603174603174605e+00,-4.057478032621454823e-05,-6.668972860785276019e-05
3.125396825396825395e+00,-2.560926825116600903e-05,-6.580849124147165852e-05
3.126190476190476186e+00,-7.238758173158882886e-06,-5.851645612814696494e-05
3.126984126984126977e+00,1.125180947801575679e-05,-4.538948063871332708e-05
3.127777777777777768e+00,2.636407493039850871e-05,-2.807441234945799738e-05
3.128571428571428559e+00,3.533832451350811261e-05,-9.050555970522339337e-06
3.129365079365079350e+00,3.690171736276596885e-05,8.773649654548796954e-06
3.130158730158730140e+00,3.154274176047464111e-05,2.256393162816420161e-05
3.130952380952380931e+00,2.124490192429307199e-05,3.008853349383626996e-05
3.131746031746031722e+00,8.824198475750788634e-06,3.017832845593258916e-05
3.132539682539682513e+00,-2.865302421369662234e-06,2.302045905298235004e-05
3.133333333333333304e+00,-1.159861178009375402e-05,1.020961229008038422e-05
3.134126984126984095e+00,-1.615655150043546076e-05,-5.474629760049203744e-06
3.134920634920634885e+00,-1.637388478906703570e-05,-2.054163845006114848e-05
3.135714285714285676e+00,-1.292323250090049676e-05,-3.144019636896324890e-05
3.136507936507936467e+00,-6.956164963365936501e-06,-3.527325408276860445e-05
3.137301587301587258e+00,2.664673354963859743e-07,-3.044527013397708097e-05
3.138095238095238049e+00,7.650109546832786208e-06,-1.710521571791118160e-05
3.138888888888888840e+00,1.439656167809067451e-05,2.741385637389582231e-06
3.139682539682539630e+00,1.999938366438412302e-05,2.553653779437544300e-05
3.140476190476190421e+00,2.416363830764650756e-05,4.688661647732026707e-05
3.141269841269841212e+00,2.672328814005979733e-05,6.256184900407797775e-05
3.142063492063492003e+00,2.760633672138940474e-05,6.952582729979710479e-05
3.142857142857142794e+00,2.685409677360919048e-05,6.668692458373012551e-05
3.143650793650793585e+00,2.466400043761836570e-05,5.512500575102069738e-05
3.144444444444444375e+00,2.141328369806324073e-05,3.772089247306622536e-05
3.145238095238095166e+00,1.763349225602838798e-05,1.832806169675405740e-05
3.146031746031745957e+00,1.393119691774795747e-05,7.731929155415237173e-07
3.146825396825396748e+00,1.087503616017507911e-05,-1.200951713414093746e-05
3.147619047619047539e+00,8.882795312222196052e-06,-1.850558151964097343e-05
3.148412698412698330e+00,8.140119595954658894e-06,-1.875063655911482870e-05
3.149206349206349120e+00,8.568201506058378925e-06,-1.411322720200879562e-05
3.149999999999999911e+00,9.840932293141308200e-06,-6.815469991855429899e-06
3.150793650793650702e+00,1.144149919098006909e-05,7.124805855617939033e-07
3.151587301587301493e+00,1.274699122436199438e-05,6.501924428786840720e-06
3.152380952380952284e+00,1.313273463293733673e-05,9.533375681130259527e-06
3.153174603174603075e+00,1.208741910972010025e-05,9.854762853636496028e-06
3.153968253968253865e+00,9.321266147151471653e-06,8.291582781757877283e-06
3.154761904761904656e+00,4.839687249539596649e-06,5.906737048378191161e-06
3.155555555555555447e+00,-1.042648786022987335e-06,3.473760840689001085e-06
3.156349206349206238e+00,-7.755159011921215623e-06,1.187200998024617170e-06
3.157142857142857029e+00,-1.458083898395999228e-05,-1.302849958290817966e-06
3.157936507936507819e+00,-2.080061801139160171e-05,-4.593733236703288518e-06
3.158730158730158610e+00,-2.584518119832103405e-05,-9.131465253724438269e-06
3.159523809523809401e+00,-2.941592711982978956e-05,-1.489545774461749292e-05
3.160317460317460192e+00,-3.152898206984003484e-05,-2.130316158713443610e-05
3.161111111111110983e+00,-3.245210883078322571e-05,-2.736985386013939813e-05
3.161904761904761774e+00,-3.254918595214287399e-05,-3.204596885364347387e-05
3.162698412698412564e+00,-3.209576013423853617e-05,-3.458164945723411944e-05
3.163492063492063355e+00,-3.114741823000446682e-05,-3.476981800414925150e-05
3.164285714285714146e+00,-2.951854472625751346e-05,-3.298638856557950495e-05
3.165079365079364937e+00,-2.687960709124570446e-05,-3.003454899002924573e-05
3.165873015873015728e+00,-2.293239921620627596e-05,-2.686454095642725522e-05
3.166666666666666519e+00,-1.759231110587020867e-05,-2.426484473536607867e-05
3.167460317460317309e+00,-1.110345729145487940e-05,-2.261415780614695840e-05
3.168253968253968100e+00,-4.038821014611580211e-06,-2.175987255898627627e-05
3.169047619047618891e+00,2.815303794168215624e-06,-2.105544613870413627e-05
3.169841269841269682e+00,8.645591326820365756e-06,-1.955017999132300455e-05
3.170634920634920473e+00,1.280235840714448182e-05,-1.628630437649635456e-05
3.171428571428571264e+00,1.493709474643356471e-05,-1.062766300385748667e-05
3.172222222222222054e+00,1.505589243430400648e-05,-2.528603602290622895e-06
3.173015873015872845e+00,1.348691641084430340e-05,7.343664926109565112e-06
3.173809523809523636e+00,1.078311014690859562e-05,1.768978642420356606e-05
3.174603174603174427e+00,7.594285070761722033e-06,2.686208830439344150e-05
3.175396825396825218e+00,4.543527431962645189e-06,3.328223039211648793e-05
3.176190476190476009e+00,2.132861633868566639e-06,3.586965507587689636e-05
3.176984126984126799e+00,6.878665078810850080e-07,3.434676072452961984e-05
3.177777777777777590e+00,3.379104292482141716e-07,2.932473915354589139e-05
3.178571428571428381e+00,1.023152315841325778e-06,2.214378082463085867e-05
3.179365079365079172e+00,2.521444077275666261e-06,1.451422052025344898e-05
3.180158730158729963e+00,4.493305761420793125e-06,8.057762110705072074e-06
3.180952380952380754e+00,6.545618416243694293e-06,3.871896543327211364e-06
3.181746031746031544e+00,8.310724877706548546e-06,2.238602398488252725e-06
3.182539682539682335e+00,9.527972917257539513e-06,2.571204039537854045e-06
3.183333333333333126e+00,1.010568624151554833e-05,3.636643553614139077e-06
3.184126984126983917e+00,1.014051963111646396e-05,4.007032596974470750e-06
3.184920634920634708e+00,9.880515564278786301e-06,2.605885417454574467e-06
3.185714285714285499e+00,9.634572531297153170e-06,-8.411319476798298450e-07
3.186507936507936289e+00,9.649259332734789601e-06,-5.628960938988059898e-06
3.187301587301587080e+00,9.989371994674317286e-06,-1.026005375793647719e-05
3.188095238095238315e+00,1.046642274879623151e-05,-1.295199404924853275e-05
3.188888888888889106e+00,1.065302575435854517e-05,-1.229311956993466298e-05
3.189682539682539897e+00,9.996266681061863958e-06,-7.803731419093070363e-06
3.190476190476190688e+00,8.004366581400839469e-06,-1.894556839474263766e-07
3.191269841269841478e+00,4.445920263392464660e-06,8.802977431259817419e-06
3.192063492063492269e+00,-5.100193860351489091e-07,1.685946449950927959e-05
3.192857142857143060e+00,-6.265751420716962320e-06,2.172335095773348830e-05
3.193650793650793851e+00,-1.189421615157508986e-05,2.177309850548460866e-05
3.194444444444444642e+00,-1.634219867255879213e-05,1.640914253853870627e-05
3.195238095238095433e+00,-1.868258956952394348e-05,6.188556308023217845e-06
3.196031746031746223e+00,-1.834403051913242714e-05,-7.283889184204054884e-06
3.196825396825397014e+00,-1.525118035681189472e-05,-2.165781119765494307e-05
3.197619047619047805e+00,-9.837311849444202631e-06,-3.426331901955525285e-05
3.198412698412698596e+00,-2.932921978043752861e-06,-4.258546106653960230e-05
3.199206349206349387e+00,4.427928030499154636e-06,-4.471256328709909502e-05
3.200000000000000178e+00,1.122168216613126592e-05,-3.969544976895507664e-05
3.200793650793650968e+00,1.661058451250374191e-05,-2.777421774794898700e-05
3.201587301587301759e+00,2.004264292543525035e-05,-1.044511267299013024e-05
3.202380952380952550e+00,2.127293838468878641e-05,9.658152236534467706e-06
3.203174603174603341e+00,2.033140462218069658e-05,2.909808003714585106e-05
3.203968253968254132e+00,1.747046895964843126e-05,4.419382219759786234e-05
3.204761904761904923e+00,1.311113872000370025e-05,5.175873836568697315e-05
3.205555555555555713e+00,7.783896720444558558e-06,4.987274287210322104e-05
3.206349206349206504e+00,2.053142245982225882e-06,3.847397724450009381e-05
3.207142857142857295e+00,-3.571641462690861335e-06,1.955670677313394576e-05
3.207936507936508086e+00,-8.712486158906804665e-06,-3.140222356851086649e-06
3.208730158730158877e+00,-1.315359171200224395e-05,-2.490796830972462263e-05
3.209523809523809668e+00,-1.680838500142178767e-05,-4.109943537208572131e-05
3.210317460317460458e+00,-1.963658064530365469e-05,-4.812867846436288109e-05
3.211111111111111249e+00,-2.155164422694168439e-05,-4.417888436308364868e-05
3.211904761904762040e+00,-2.236626576123766839e-05,-2.948250955939369313e-05
3.212698412698412831e+00,-2.180879949552187125e-05,-6.185338497712785939e-06
3.213492063492063622e+00,-1.961502351393808167e-05,2.209231055813693704e-05
3.214285714285714413e+00,-1.566816989185929493e-05,5.086613972655158809e-05
3.215079365079365203e+00,-1.013692329625945731e-05,7.547992927312843162e-05
3.215873015873015994e+00,-3.555002206278434141e-06,9.182047917569205713e-05
3.216666666666666785e+00,3.199901884954053983e-06,9.697684055584243298e-05
3.217460317460317576e+00,9.040888898518556409e-06,8.972367721470667036e-05
3.218253968253968367e+00,1.289872584785397873e-05,7.071022075094430398e-05
3.219047619047619158e+00,1.398754788412431645e-05,4.230601898445937451e-05
3.219841269841269948e+00,1.203513178022165736e-05,8.156091654163660467e-06
3.220634920634920739e+00,7.402213450137973536e-06,-2.742630772784322561e-05
3.221428571428571530e+00,1.040396592674554326e-06,-6.008512713234905278e-05
3.222222222222222321e+00,-5.711945885014812707e-06,-8.596028814160409307e-05
3.223015873015873112e+00,-1.143594930554100045e-05,-1.020981369194100925e-04
3.223809523809523903e+00,-1.493865547773373125e-05,-1.067421226192918926e-04
3.224603174603174693e+00,-1.546503463452556892e-05,-9.952804212514572446e-05
3.225396825396825484e+00,-1.278191573167103894e-05,-8.158990116589244523e-05
3.226190476190476275e+00,-7.170818837006537884e-06,-5.554246135704861127e-05
3.226984126984127066e+00,6.111429301294830078e-07,-2.526329131563685438e-05
3.227777777777777857e+00,9.383845373216095892e-06,4.614561382200891367e-06
3.228571428571428648e+00,1.764781546235134356e-05,2.951929448423692222e-05
3.229365079365079438e+00,2.378728334545193710e-05,4.592502440839765776e-05
3.230158730158730229e+00,2.637234017894362240e-05,5.219191884994573777e-05
3.230952380952381020e+00,2.449192845470188047e-05,4.891171035221673869e-05
3.231746031746031811e+00,1.801355376979676081e-05,3.857864193345997002e-05
3.232539682539682602e+00,7.682636090433013601e-06,2.470439587843064577e-05
3.233333333333333393e+00,-4.973141290005517086e-06,1.074378588223049607e-05
3.234126984126984183e+00,-1.791281963916066143e-05,-7.500729683101029034e-07
3.234920634920634974e+00,-2.896262048190168306e-05,-8.484663219068928086e-06
