Timestamp,Flexor carpi radialis,Extensor digitorum
2.000000000000000000e+00,-9.512828948902889032e-06,2.500363006517359251e-05
2.000793650793650791e+00,-7.193499880383349557e-06,2.921699256167337465e-05
2.001587301587301582e+00,-5.162440063422557705e-06,3.251607917970755480e-05
2.002380952380952372e+00,-3.824026659342434643e-06,3.678300548551002597e-05
2.003174603174603163e+00,-3.383340736258751873e-06,4.339984388395769693e-05
2.003968253968253954e+00,-3.817684123886761331e-06,5.246754094553487773e-05
2.004761904761904745e+00,-4.898161957013584635e-06,6.248735425717780526e-05
2.005555555555555536e+00,-6.253984355813528417e-06,7.061383349451640329e-05
2.006349206349206327e+00,-7.464094690026730072e-06,7.339001897919911275e-05
2.007142857142857117e+00,-8.155164043115819452e-06,6.773319847269747502e-05
2.007936507936507908e+00,-8.083112533004201488e-06,5.187856793989629111e-05
2.008730158730158699e+00,-7.179391334438906575e-06,2.601457885407244469e-05
2.009523809523809490e+00,-5.553723259103035271e-06,-7.558195887952478298e-06
2.010317460317460281e+00,-3.457849674732496456e-06,-4.477783605344331537e-05
2.011111111111111072e+00,-1.223967841929711593e-06,-8.058004291219100334e-05
2.011904761904761862e+00,8.060726886993788265e-07,-1.098678732606027560e-04
2.012698412698412653e+00,2.347135702021645992e-06,-1.284697586014258504e-04
2.013492063492063444e+00,3.222127516654352331e-06,-1.339009586209615030e-04
2.014285714285714235e+00,3.389465020363356028e-06,-1.257970546680384086e-04
2.015079365079365026e+00,2.940130621614232751e-06,-1.059359745990130867e-04
2.015873015873015817e+00,2.063914913108452449e-06,-7.783251603276331000e-05
2.016666666666666607e+00,9.944913703297628436e-07,-4.598672005933444727e-05
2.017460317460317398e+00,-4.874063464886793021e-08,-1.495725814994467091e-05
2.018253968253968189e+00,-9.039037352970249510e-07,1.152606769338663674e-05
2.019047619047618980e+00,-1.484846045505371631e-06,3.120381555957206439e-05
2.019841269841269771e+00,-1.774738620553194934e-06,4.352330595323136069e-05
2.020634920634920562e+00,-1.803464212155561581e-06,4.940526510715205683e-05
2.021428571428571352e+00,-1.620810344872637532e-06,5.061761218477517642e-05
2.022222222222222143e+00,-1.276746101155996614e-06,4.897903316586379969e-05
2.023015873015872934e+00,-8.154155746701442153e-07,4.568817743126645019e-05
2.023809523809523725e+00,-2.823733589353445610e-07,4.102365019728369886e-05
2.024603174603174516e+00,2.623344017248858966e-07,3.450391679272285880e-05
2.025396825396825307e+00,7.363040012787781873e-07,2.540967233196269329e-05
2.026190476190476097e+00,1.041394942263312861e-06,1.343657848242101254e-05
2.026984126984126888e+00,1.087111531639433371e-06,-7.872526558296603622e-07
2.027777777777777679e+00,8.239755571782053828e-07,-1.551670321466010213e-05
2.028571428571428470e+00,2.736072918836031113e-07,-2.810800961822979582e-05
2.029365079365079261e+00,-4.582510564814824683e-07,-3.558079923921006693e-05
2.030158730158730052e+00,-1.193560620243004621e-06,-3.537700615380776623e-05
2.030952380952380842e+00,-1.716990064063540592e-06,-2.613401641922888900e-05
2.031746031746031633e+00,-1.824139945184862175e-06,-8.287678067396997173e-06
2.032539682539682424e+00,-1.369589703761168164e-06,1.566501806407341344e-05
2.033333333333333215e+00,-3.034155702555265175e-07,4.137631110793337896e-05
2.034126984126984006e+00,1.310312151269434939e-06,6.337750634633954505e-05
2.034920634920634797e+00,3.295618875472058464e-06,7.623636705884208168e-05
2.035714285714285587e+00,5.388325634967321963e-06,7.590272810057452119e-05
2.036507936507936378e+00,7.281078967371906848e-06,6.090670992880973850e-05
2.037301587301587169e+00,8.685063822373110731e-06,3.306155086668465231e-05
2.038095238095237960e+00,9.395944696258478498e-06,-2.600775936947601699e-06
2.038888888888888751e+00,9.344807475522124652e-06,-3.876343993692139372e-05
2.039682539682539542e+00,8.615606585508220404e-06,-6.747729711969912875e-05
2.040476190476190332e+00,7.421206826173766453e-06,-8.212040547291885137e-05
2.041269841269841123e+00,6.045442860024977950e-06,-7.911079503224207319e-05
2.042063492063491914e+00,4.769985201089974448e-06,-5.887423541656911137e-05
2.042857142857142705e+00,3.807177387321829718e-06,-2.579184602168320840e-05
2.043650793650793496e+00,3.255065197973147085e-06,1.285139164608228743e-05
2.044444444444444287e+00,3.083511475508009292e-06,4.862042411166276630e-05
2.045238095238095077e+00,3.153830618617384193e-06,7.391003432345007661e-05
2.046031746031745868e+00,3.268589654972120110e-06,8.364331578954437420e-05
2.046825396825396659e+00,3.241250355945593920e-06,7.629694912292671219e-05
2.047619047619047450e+00,2.966876074444098687e-06,5.406588852553243809e-05
2.048412698412698241e+00,2.468658006428857120e-06,2.219667118864024563e-05
2.049206349206349032e+00,1.896845930117397021e-06,-1.230688295361283105e-05
2.049999999999999822e+00,1.471509363499000865e-06,-4.229068708643209161e-05
2.050793650793650613e+00,1.385611786329159648e-06,-6.200798135049155548e-05
2.051587301587301404e+00,1.707759651206857561e-06,-6.828482944855921940e-05
2.052380952380952195e+00,2.329373554650998693e-06,-6.104573923603430680e-05
2.053174603174602986e+00,2.982883706419522961e-06,-4.311067215883201720e-05
2.053968253968253777e+00,3.325299724694696622e-06,-1.935565749278400310e-05
2.054761904761904567e+00,3.053385579255547885e-06,4.522370816182830485e-06
2.055555555555555358e+00,2.006547796982159614e-06,2.332579906831051713e-05
2.056349206349206149e+00,2.228839836775780145e-07,3.347033017956708078e-05
2.057142857142856940e+00,-2.065966260905929480e-06,3.367322832731938702e-05
2.057936507936507731e+00,-4.495040683055949529e-06,2.508150699918649886e-05
2.058730158730158522e+00,-6.660814661292318229e-06,1.081443816771465295e-05
2.059523809523809312e+00,-8.222979116693726688e-06,-4.958287176170764904e-06
2.060317460317460103e+00,-8.985287432499242398e-06,-1.814456878257449706e-05
2.061111111111110894e+00,-8.933680057268296505e-06,-2.575572245457743092e-05
2.061904761904761685e+00,-8.222921170574000352e-06,-2.657881723449547108e-05
2.062698412698412920e+00,-7.119774854766830415e-06,-2.136325668851698793e-05
2.063492063492063711e+00,-5.924078830988049775e-06,-1.251449185558846342e-05
2.064285714285714501e+00,-4.892645774567797303e-06,-3.390101862512211127e-06
2.065079365079365292e+00,-4.184759132540037423e-06,2.632437701314202059e-06
2.065873015873016083e+00,-3.837935720570552188e-06,3.099877011594957105e-06
2.066666666666666874e+00,-3.774546768148860809e-06,-2.793248003281660011e-06
2.067460317460317665e+00,-3.835280105200970934e-06,-1.390494643501761960e-05
2.068253968253968456e+00,-3.831987439422093218e-06,-2.738413480664158886e-05
2.069047619047619246e+00,-3.608344956413172780e-06,-3.941679461115791589e-05
2.069841269841270037e+00,-3.093064601217152882e-06,-4.628671546066897809e-05
2.070634920634920828e+00,-2.329931220474488889e-06,-4.543451476774774798e-05
2.071428571428571619e+00,-1.473591201056229559e-06,-3.617279613095727308e-05
2.072222222222222410e+00,-7.492551723775984834e-07,-1.981867770773058731e-05
2.073015873015873201e+00,-3.854867405186416875e-07,7.818057961395879930e-07
2.073809523809523991e+00,-5.382711725049913335e-07,2.212603302858114629e-05
2.074603174603174782e+00,-1.228544582049374940e-06,4.097311565494578701e-05
2.075396825396825573e+00,-2.312905885392271524e-06,5.498907272281358872e-05
2.076190476190476364e+00,-3.498874453103517640e-06,6.297165626905780510e-05
2.076984126984127155e+00,-4.404366050033640770e-06,6.471383133758931976e-05
2.077777777777777946e+00,-4.649632570681230176e-06,6.069744370187539007e-05
2.078571428571428736e+00,-3.961237777106566488e-06,5.181496339383817037e-05
2.079365079365079527e+00,-2.262265887113710312e-06,3.922128356393280840e-05
2.080158730158730318e+00,2.784222741949674676e-07,2.429675189613810706e-05
2.080952380952381109e+00,3.259481597442572952e-06,8.632066627658403868e-06
2.081746031746031900e+00,6.128824528160537855e-06,-6.048603586449832176e-06
2.082539682539682691e+00,8.315889331909056745e-06,-1.805737380075952760e-05
2.083333333333333481e+00,9.374373770481001970e-06,-2.598600435568942523e-05
2.084126984126984272e+00,9.088481780632287090e-06,-2.897568979342276597e-05
2.084920634920635063e+00,7.510789494078542349e-06,-2.694658298341020986e-05
2.085714285714285854e+00,4.928475279658713083e-06,-2.070424619959661220e-05
2.086507936507936645e+00,1.779560058512085236e-06,-1.185050687831435600e-05
2.087301587301587436e+00,-1.448945185727036878e-06,-2.477274364157212864e-06
2.088095238095238226e+00,-4.312445876312852858e-06,5.305009155306542382e-06
2.088888888888889017e+00,-6.472130131946121798e-06,9.886728556650765639e-06
2.089682539682539808e+00,-7.725682918699385438e-06,1.057186345155739430e-05
2.090476190476190599e+00,-8.010643949647946411e-06,7.744044105584526531e-06
2.091269841269841390e+00,-7.389120172268155407e-06,2.723354077124571663e-06
2.092063492063492181e+00,-6.020519959060674113e-06,-2.636242285389286844e-06
2.092857142857142971e+00,-4.126053704992742057e-06,-6.473365853225068772e-06
2.093650793650793762e+00,-1.948606175949021139e-06,-7.416071582417310755e-06
2.094444444444444553e+00,2.860384224202465879e-07,-4.932753368603309226e-06
2.095238095238095344e+00,2.398804901553297277e-06,5.265684522520633260e-07
2.096031746031746135e+00,4.271364062077049252e-06,7.620138528626827358e-06
2.096825396825396925e+00,5.843121985555787903e-06,1.442444571866673727e-05
2.097619047619047716e+00,7.095809054226164487e-06,1.891388675319130238e-05
2.098412698412698507e+00,8.034144195455993615e-06,1.950488796943291610e-05
2.099206349206349298e+00,8.670477464312270369e-06,1.550798326069336111e-05
2.100000000000000089e+00,9.017220391021032460e-06,7.328180757160842198e-06
2.100793650793650880e+00,9.085944106482599797e-06,-3.668576768587287667e-06
2.101587301587301670e+00,8.888437949431335236e-06,-1.556942169001249127e-05
2.102380952380952461e+00,8.433993405755173663e-06,-2.643777205760729310e-05
2.103174603174603252e+00,7.719919665973655115e-06,-3.474827713795202545e-05
2.103968253968254043e+00,6.719187621188884816e-06,-3.961223870898914579e-05
2.104761904761904834e+00,5.376811880076308166e-06,-4.079030931536819398e-05
2.105555555555555625e+00,3.627864925510499300e-06,-3.856999423337279843e-05
2.106349206349206415e+00,1.439852993556901740e-06,-3.359444944438967493e-05
2.107142857142857206e+00,-1.134861810600622897e-06,-2.669276351525990480e-05
2.107936507936507997e+00,-3.922460873920063258e-06,-1.872868071252514291e-05
2.108730158730158788e+00,-6.629868651542500606e-06,-1.047694992923797790e-05
2.109523809523809579e+00,-8.893491428487222976e-06,-2.541290235360724193e-06
2.110317460317460370e+00,-1.036360084600536264e-05,4.675764607763139652e-06
2.111111111111111160e+00,-1.079916626868701309e-05,1.095705847939833454e-05
2.111904761904761951e+00,-1.014217552554706312e-05,1.623005216378776695e-05
2.112698412698412742e+00,-8.545324162922740256e-06,2.052250127350183090e-05
2.113492063492063533e+00,-6.341446039308416344e-06,2.392267550663171248e-05
2.114285714285714324e+00,-3.961952040612982517e-06,2.653945864504546321e-05
2.115079365079365115e+00,-1.827860328739899144e-06,2.845729805069802267e-05
2.115873015873015905e+00,-2.456945739610734302e-07,2.968987369344475697e-05
2.116666666666666696e+00,6.608573414690358579e-07,3.014190510859070520e-05
2.117460317460317487e+00,9.641386643471455219e-07,2.958587089251904888e-05
2.118253968253968278e+00,8.893444516912538416e-07,2.765886224490345238e-05
2.119047619047619069e+00,7.318526267766876307e-07,2.389473180266856825e-05
2.119841269841269860e+00,7.631460919573301456e-07,1.782248726930295692e-05
2.120634920634920650e+00,1.153923565033729395e-06,9.159103040362334564e-06
2.121428571428571441e+00,1.933775477202338277e-06,-1.919379295959766424e-06
2.122222222222222232e+00,2.992832375285767931e-06,-1.452002242248028983e-05
2.123015873015873023e+00,4.118335141507807601e-06,-2.693499350532489058e-05
2.123809523809523814e+00,5.052264224509551014e-06,-3.682961793029082808e-05
2.124603174603174605e+00,5.555061271292645845e-06,-4.173742467691261756e-05
2.125396825396825395e+00,5.461823343834213558e-06,-3.973924068037591826e-05
2.126190476190476186e+00,4.718242009825488893e-06,-3.009757410264415407e-05
2.126984126984126977e+00,3.385340660246834841e-06,-1.361638926972034447e-05
2.127777777777777768e+00,1.609346243480578461e-06,7.393329288757702683e-06
2.128571428571428559e+00,-4.328765631561322285e-07,2.951453351711374678e-05
2.129365079365079350e+00,-2.588378392479224597e-06,4.887171492317339615e-05
2.130158730158730140e+00,-4.755138023648690842e-06,6.188428586693460844e-05
2.130952380952380931e+00,-6.866630874169078377e-06,6.598251978041020694e-05
2.131746031746031722e+00,-8.841235482355652947e-06,6.013319169159655103e-05
2.132539682539682513e+00,-1.052381450151380248e-05,4.504004439307272996e-05
2.133333333333333304e+00,-1.165534136035356609e-05,2.296281076275126872e-05
2.134126984126984095e+00,-1.189919913377515253e-05,-2.784233578362731695e-06
2.134920634920634885e+00,-1.093049132129765920e-05,-2.849722743995324558e-05
2.135714285714285676e+00,-8.564394393449095171e-06,-5.072792282506265356e-05
2.136507936507936467e+00,-4.874795899741371466e-06,-6.677410661467355929e-05
2.137301587301587258e+00,-2.494933326280387820e-07,-7.496636066488191190e-05
2.138095238095238049e+00,4.651634226168551854e-06,-7.477514279884746881e-05
2.138888888888888840e+00,9.032400055702059026e-06,-6.678796254563030080e-05
2.139682539682539630e+00,1.215078992792203282e-05,-5.258648620062745523e-05
2.140476190476190421e+00,1.350427298881748789e-05,-3.451889976308772980e-05
2.141269841269841212e+00,1.295173234972215271e-05,-1.535092666938564894e-05
2.142063492063492003e+00,1.073636015604638619e-05,2.192720072138954650e-06
2.142857142857142794e+00,7.408724108154293507e-06,1.592789933813520460e-05
2.143650793650793585e+00,3.681965402014044790e-06,2.463103192830841479e-05
2.144444444444444375e+00,2.678329366489936726e-07,2.824707001687311035e-05
2.145238095238095166e+00,-2.261450044653512513e-06,2.780011447023483331e-05
2.146031746031745957e+00,-3.557747181625604760e-06,2.501697856046853255e-05
2.146825396825396748e+00,-3.520360332655566965e-06,2.177788148190559040e-05
2.147619047619047539e+00,-2.266928469926853616e-06,1.957006035597755428e-05
2.148412698412698330e+00,-7.138300167181047243e-08,1.911108842019997834e-05
2.149206349206349120e+00,2.707539883873980727e-06,2.023961756033920822e-05
2.149999999999999911e+00,5.687451133795301096e-06,2.207686765756491275e-05
2.150793650793650702e+00,8.503117504718482914e-06,2.337729786804330041e-05
2.151587301587301493e+00,1.082809456322576012e-05,2.293716250737094708e-05
2.152380952380952284e+00,1.238594537156692912e-05,1.993045073227163967e-05
2.153174603174603075e+00,1.296106817379940846e-05,1.409117990026345457e-05
2.153968253968253865e+00,1.241474762631016958e-05,5.734618279614712177e-06
2.154761904761904656e+00,1.070572525034383667e-05,-4.331221024030128284e-06
2.155555555555555447e+00,7.910461876054208512e-06,-1.494163351926750693e-05
2.156349206349206238e+00,4.236922525687907973e-06,-2.473426620347133232e-05
2.157142857142857029e+00,2.430772790685111942e-08,-3.234819935225493481e-05
2.157936507936507819e+00,-4.281123588856623043e-06,-3.667312595733246091e-05
2.158730158730158610e+00,-8.182443642080234689e-06,-3.710441425052637406e-05
2.159523809523809401e+00,-1.121828139356744216e-05,-3.371496804099964460e-05
2.160317460317460192e+00,-1.305910437443628721e-05,-2.726482859553350021e-05
2.161111111111110983e+00,-1.358114654671218991e-05,-1.902661827145838371e-05
2.161904761904761774e+00,-1.288930358570549731e-05,-1.047153678392730345e-05
2.162698412698412564e+00,-1.128052579078339832e-05,-2.906545907475424577e-06
2.163492063492063355e+00,-9.163225114132233742e-06,2.833066456208370004e-06
2.164285714285714146e+00,-6.961785980358548577e-06,6.549573710792880935e-06
2.165079365079364937e+00,-5.033860833702966093e-06,8.662577764773142126e-06
2.165873015873015728e+00,-3.616989365497964440e-06,1.001029837376084611e-05
2.166666666666666519e+00,-2.808443207087096382e-06,1.152870833134196085e-05
2.167460317460317309e+00,-2.573692137784096476e-06,1.389939436162066386e-05
2.168253968253968100e+00,-2.775678377677632471e-06,1.727047391714221959e-05
2.169047619047618891e+00,-3.216977020569488561e-06,2.114100617774097973e-05
2.169841269841269682e+00,-3.687043211810919023e-06,2.445593688957061582e-05
2.170634920634920473e+00,-4.005922576192044175e-06,2.589494371105712124e-05
2.171428571428571264e+00,-4.055279511873708404e-06,2.427504185637970104e-05
2.172222222222222054e+00,-3.789792806663879084e-06,1.894689206594317980e-05
2.173015873015872845e+00,-3.227882703965018795e-06,1.006477708726436933e-05
2.173809523809523636e+00,-2.428198525081390491e-06,-1.350091266149749788e-06
2.174603174603174427e+00,-1.462951603976537190e-06,-1.357235550812317704e-05
2.175396825396825218e+00,-3.979538223014645654e-07,-2.452196445442221716e-05
2.176190476190476009e+00,7.165002871809996373e-07,-3.221671579557037677e-05
2.176984126984126799e+00,1.845176617096871260e-06,-3.521725773454044780e-05
2.177777777777777590e+00,2.961024902585628861e-06,-3.294822681700176870e-05
2.178571428571428381e+00,4.034715558755469103e-06,-2.580521144018108279e-05
2.179365079365079172e+00,5.023702881173140775e-06,-1.502042829867762822e-05
2.180158730158729963e+00,5.864962980986035004e-06,-2.345159238806550019e-06
2.180952380952380754e+00,6.475317468295392487e-06,1.032647225438227156e-05
2.181746031746031544e+00,6.760846011352132629e-06,2.126707896585381926e-05
2.182539682539682335e+00,6.633616520927527442e-06,2.911085152786181056e-05
2.183333333333333126e+00,6.031688171650070434e-06,3.298442338905756575e-05
2.184126984126983917e+00,4.937970801310607246e-06,3.264962884127364144e-05
2.184920634920634708e+00,3.394607231684125372e-06,2.864700549080988602e-05
2.185714285714285499e+00,1.510722646134989928e-06,2.231175953868973211e-05
2.186507936507936289e+00,-5.383997526210579546e-07,1.552132832204953616e-05
2.187301587301587080e+00,-2.523081177506281591e-06,1.017031992803374085e-05
2.188095238095238315e+00,-4.183970989082925152e-06,7.556014302107519559e-06
2.188888888888889106e+00,-5.269498838484372750e-06,7.948665982825178089e-06
2.189682539682539897e+00,-5.581912463691078803e-06,1.054761698791045319e-05
2.190476190476190688e+00,-5.023760965204181356e-06,1.383782595357178907e-05
2.191269841269841478e+00,-3.633909575977034035e-06,1.617919731366689945e-05
2.192063492063492269e+00,-1.601050321123254417e-06,1.638225901181191699e-05
2.192857142857143060e+00,7.554004269858978163e-07,1.407085833032306225e-05
2.193650793650793851e+00,3.039549194093254322e-06,9.752151084464977466e-06
2.194444444444444642e+00,4.858181225778198285e-06,4.627347165645727554e-06
2.195238095238095433e+00,5.902923834490125144e-06,2.346667870415510833e-07
2.196031746031746223e+00,6.010611421656771057e-06,-1.979028237164271734e-06
2.196825396825397014e+00,5.185018225727906078e-06,-1.076252832825997488e-06
2.197619047619047805e+00,3.577263865102302241e-06,3.038268776380716337e-06
2.198412698412698596e+00,1.435553573904969476e-06,9.447761189510714408e-06
2.199206349206349387e+00,-9.572301006963492217e-07,1.628894733381665462e-05
2.200000000000000178e+00,-3.338834297755041269e-06,2.109166183051816291e-05
2.200793650793650968e+00,-5.502221939303248474e-06,2.136333217807918035e-05
2.201587301587301759e+00,-7.305058001261757912e-06,1.530112051637684095e-05
2.202380952380952550e+00,-8.658880212734724866e-06,2.435612255986014230e-06
2.203174603174603341e+00,-9.508811652699405945e-06,-1.602151723363464027e-05
2.203968253968254132e+00,-9.815970402417863917e-06,-3.730020870632510898e-05
2.204761904761904923e+00,-9.551103928792698089e-06,-5.769175809551475609e-05
2.205555555555555713e+00,-8.701291691053428777e-06,-7.349559299163256371e-05
2.206349206349206504e+00,-7.285207159534348580e-06,-8.197273497374346716e-05
2.207142857142857295e+00,-5.369243796172541704e-06,-8.197441507964613541e-05
2.207936507936508086e+00,-3.077115565624201205e-06,-7.406069966864408619e-05
2.208730158730158877e+00,-5.875273695421135329e-07,-6.014322096042098406e-05
2.209523809523809668e+00,1.883195040765094615e-06,-4.285167563147025178e-05
2.210317460317460458e+00,4.113333056913286722e-06,-2.486592039516869994e-05
2.211111111111111249e+00,5.917309050440683800e-06,-8.394510322909575970e-06
2.211904761904762040e+00,7.184801748934342777e-06,5.118991079988552635e-06
2.212698412698412831e+00,7.902634364702281031e-06,1.506475898301123434e-05
2.213492063492063622e+00,8.148451345236093493e-06,2.156058708727876208e-05
2.214285714285714413e+00,8.056128108636907513e-06,2.523569140976920854e-05
2.215079365079365203e+00,7.765985248810461996e-06,2.696575941403158815e-05
2.215873015873015994e+00,7.380759723626270993e-06,2.761230999111458092e-05
2.216666666666666785e+00,6.945839275320000486e-06,2.781312343881162807e-05
2.217460317460317576e+00,6.460166799414745394e-06,2.786219901242648791e-05
2.218253968253968367e+00,5.908761467832437040e-06,2.769889517319315168e-05
2.219047619047619158e+00,5.297439127194019293e-06,2.699780428310157753e-05
2.219841269841269948e+00,4.670534105594193562e-06,2.532604769909287609e-05
2.220634920634920739e+00,4.102290487658289862e-06,2.232300806317720406e-05
2.221428571428571530e+00,3.665869058631364926e-06,1.785848523006166420e-05
2.222222222222222321e+00,3.393868698559620670e-06,1.213372888528246520e-05
2.223015873015873112e+00,3.247691154073035989e-06,5.702367861072107932e-06
2.223809523809523903e+00,3.110377193696541098e-06,-5.970380309686417374e-07
2.224603174603174693e+00,2.810212761671973074e-06,-5.789992810030184452e-06
2.225396825396825484e+00,2.171904748762379817e-06,-8.974635525904870500e-06
2.226190476190476275e+00,1.081112194673524272e-06,-9.551435649845497041e-06
2.226984126984127066e+00,-4.588810259669238462e-07,-7.418566166887168636e-06
2.227777777777777857e+00,-2.298641444092600069e-06,-3.068198846189706959e-06
2.228571428571428648e+00,-4.153686694388134158e-06,2.469007981387405804e-06
2.229365079365079438e+00,-5.653968395660081141e-06,7.843303662017556331e-06
2.230158730158730229e+00,-6.419077268980689029e-06,1.172173214218358323e-05
2.230952380952381020e+00,-6.140600238769653455e-06,1.314000039158854371e-05
2.231746031746031811e+00,-4.654133161204456341e-06,1.175115575127520390e-05
2.232539682539682602e+00,-1.989061079777856291e-06,7.883892493754724779e-06
2.233333333333333393e+00,1.610331625621278245e-06,2.397633557122180898e-06
2.234126984126984183e+00,5.696450834167047351e-06,-3.597007835861141315e-06
2.234920634920634974e+00,9.666299161319603234e-06,-9.039593589137403314e-06
2.235714285714285765e+00,1.284733151702690313e-05,-1.314569825779321005e-05
2.236507936507936556e+00,1.461589221722586656e-05,-1.551665098322741203e-05
2.237301587301587347e+00,1.453010356297145448e-05,-1.614660301620447593e-05
2.238095238095238138e+00,1.244507187101640851e-05,-1.535920135326986595e-05
2.238888888888888928e+00,8.572671497415674158e-06,-1.369473090887618807e-05
2.239682539682539719e+00,3.459215711983273308e-06,-1.175761197917380801e-05
2.240476190476190510e+00,-2.119907283957232859e-06,-1.004575253905375305e-05
2.241269841269841301e+00,-7.321757262993273304e-06,-8.809672959026609929e-06
2.242063492063492092e+00,-1.141045774091352829e-05,-8.002208923325587273e-06
2.242857142857142883e+00,-1.390228747457375805e-05,-7.355897712228311289e-06
2.243650793650793673e+00,-1.465130786270549348e-05,-6.567672885460568689e-06
2.244444444444444464e+00,-1.386201193639853716e-05,-5.509929290930899074e-06
2.245238095238095255e+00,-1.202920261882424006e-05,-4.361426976927206198e-06
2.246031746031746046e+00,-9.815503198218399227e-06,-3.578563514981285048e-06
2.246825396825396837e+00,-7.886908017236394613e-06,-3.695023700957971166e-06
2.247619047619047628e+00,-6.738407016648740603e-06,-5.015354773563944825e-06
2.248412698412698418e+00,-6.551406451598506991e-06,-7.323335433463774189e-06
2.249206349206349209e+00,-7.125640302537299988e-06,-9.736933180525448822e-06
2.250000000000000000e+00,-7.915682298604199854e-06,-1.080330734905141982e-05
2.250793650793650791e+00,-8.176278795491895133e-06,-8.850831445603311564e-06
2.251587301587301582e+00,-7.187253619184875303e-06,-2.521540139350917637e-06
2.252380952380952372e+00,-4.498423717673500831e-06,8.673265615425487443e-06
2.253174603174603163e+00,-1.208452419994631653e-07,2.396344230322500817e-05
2.253968253968253954e+00,5.399376830280472455e-06,4.124716341280496869e-05
2.254761904761904745e+00,1.105801139874757508e-05,5.739224896620149130e-05
2.255555555555555536e+00,1.561317736867351479e-05,6.886514141912272182e-05
2.256349206349206327e+00,1.790069934784627046e-05,7.255994165743218614e-05
2.257142857142857117e+00,1.716072784349818430e-05,6.664457803861124679e-05
2.257936507936507908e+00,1.327576152770993124e-05,5.120854145730709280e-05
2.258730158730158699e+00,6.836748627058434699e-06,2.850581300240749764e-05
2.259523809523809490e+00,-9.937672891205623786e-07,2.663177305691853884e-06
2.260317460317460281e+00,-8.781891618478313176e-06,-2.113749305364218286e-05
2.261111111111111072e+00,-1.518852247745303519e-05,-3.783707852915741700e-05
2.261904761904761862e+00,-1.928462840553952229e-05,-4.374702207581101403e-05
2.262698412698412653e+00,-2.072468587583291849e-05,-3.752554791240460589e-05
2.263492063492063444e+00,-1.974385512119460848e-05,-2.059067203670681919e-05
2.264285714285714235e+00,-1.700601174793663447e-05,3.163377833194654122e-06
2.265079365079365026e+00,-1.337200662404131862e-05,2.826137939360537471e-05
2.265873015873015817e+00,-9.668375111399793274e-06,4.889125476312470285e-05
2.266666666666666607e+00,-6.518932986261492174e-06,6.017336169024448789e-05
2.267460317460317398e+00,-4.267708142838834430e-06,5.917340603631181598e-05
2.268253968253968189e+00,-2.986494916662006536e-06,4.546162659635951948e-05
2.269047619047618980e+00,-2.536822162735976057e-06,2.112007111926611020e-05
2.269841269841269771e+00,-2.650947131675129172e-06,-9.778313736146591653e-06
2.270634920634920562e+00,-3.006864831981453656e-06,-4.206724094442912431e-05
2.271428571428571352e+00,-3.287994840267359628e-06,-7.052742635021081645e-05
2.272222222222222143e+00,-3.228891367701866997e-06,-9.083394725697533539e-05
2.273015873015872934e+00,-2.649968789827768248e-06,-1.002383183993537692e-04
2.273809523809523725e+00,-1.479550173621519083e-06,-9.789866168723243480e-05
2.274603174603174516e+00,2.430166744438436962e-07,-8.484884102058512186e-05
2.275396825396825307e+00,2.387989919786884934e-06,-6.366148082009532650e-05
2.276190476190476097e+00,4.776301293796908759e-06,-3.790747661977193078e-05
2.276984126984126888e+00,7.228453534147588417e-06,-1.152924361936188765e-05
2.277777777777777679e+00,9.604730712360539727e-06,1.177926804621851539e-05
2.278571428571428470e+00,1.182346961052190363e-05,2.912425904136563612e-05
2.279365079365079261e+00,1.385183320051738322e-05,3.883435698696908702e-05
2.280158730158730052e+00,1.567264560202503122e-05,4.067144624935755239e-05
2.280952380952380842e+00,1.723974021195505649e-05,3.575782349242798559e-05
2.281746031746031633e+00,1.844067558248632232e-05,2.621726773797069962e-05
2.282539682539682424e+00,1.908587955885285571e-05,1.462498639689216619e-05
2.283333333333333215e+00,1.893499594920249212e-05,3.424267944964523779e-06
2.284126984126984006e+00,1.775717914270607051e-05,-5.537250350673149796e-06
2.284920634920634797e+00,1.540935089079382885e-05,-1.125601121625726458e-05
2.285714285714285587e+00,1.191049032428527115e-05,-1.358334227261244724e-05
2.286507936507936378e+00,7.490495523894588412e-06,-1.304100149360535705e-05
2.287301587301587169e+00,2.595695656989998028e-06,-1.052788253124282559e-05
2.288095238095237960e+00,-2.160867068479658139e-06,-7.017962118772616435e-06
2.288888888888888751e+00,-6.105451499212912490e-06,-3.329841441451270517e-06
2.289682539682539542e+00,-8.651360617151653256e-06,-6.860849590303291950e-09
2.290476190476190332e+00,-9.457958129588085616e-06,2.696494417379422806e-06
2.291269841269841123e+00,-8.560339334016690548e-06,4.755588714399330483e-06
2.292063492063491914e+00,-6.428204090756618046e-06,6.286998753113757516e-06
2.292857142857142705e+00,-3.922043341786544931e-06,7.465254789829920045e-06
2.293650793650793496e+00,-2.134855651037247685e-06,8.463167353668180431e-06
2.294444444444444287e+00,-2.136751973011144177e-06,9.417326458934803849e-06
2.295238095238095077e+00,-4.671987093267084726e-06,1.041021202679479651e-05
2.296031746031745868e+00,-9.882680330269042078e-06,1.145887432701910931e-05
2.296825396825396659e+00,-1.714074153449555933e-05,1.250546414602835201e-05
2.297619047619047450e+00,-2.505504044856365724e-05,1.341222887779545428e-05
2.298412698412698241e+00,-3.168661105125879435e-05,1.396792151360517807e-05
2.299206349206349032e+00,-3.495540084475545940e-05,1.391186827270483290e-05
2.299999999999999822e+00,-3.316331759025892213e-05,1.297794750850734462e-05
2.300793650793650613e+00,-2.550107988872593644e-05,1.095626292495515861e-05
2.301587301587301404e+00,-1.237513677454671667e-05,7.765816492392461220e-06
2.302380952380952195e+00,4.581476737422777744e-06,3.524699787440918843e-06
2.303174603174602986e+00,2.285237334408689861e-05,-1.405471014389029339e-06
2.303968253968253777e+00,3.964110053903487676e-05,-6.430614980398755604e-06
2.304761904761904567e+00,5.254181995790610174e-05,-1.081227880628793636e-05
2.305555555555555358e+00,6.006673520993959046e-05,-1.382652811992982335e-05
2.306349206349206149e+00,6.188114812043685425e-05,-1.495098923313317718e-05
2.307142857142856940e+00,5.870375809366935231e-05,-1.401433611723931842e-05
2.307936507936507731e+00,5.194045575635767594e-05,-1.124958447258878641e-05
2.308730158730158522e+00,4.319822418657292662e-05,-7.228517860924270816e-06
2.309523809523809312e+00,3.384699745842424787e-05,-2.701629951192556860e-06
2.310317460317460103e+00,2.475790640151505912e-05,1.596951407760959720e-06
2.311111111111110894e+00,1.626784571645208493e-05,5.113138731644051038e-06
2.311904761904761685e+00,8.336413879633530223e-06,7.560118516263912259e-06
2.312698412698412920e+00,7.990587631019011563e-07,8.918192249665573667e-06
2.313492063492063711e+00,-6.405839424610685775e-06,9.364524962180609025e-06
2.314285714285714501e+00,-1.314024153284307083e-05,9.164746646438668744e-06
2.315079365079365292e+00,-1.914042368581336847e-05,8.562368068436904849e-06
2.315873015873016083e+00,-2.420983680068398031e-05,7.699352037991519725e-06
2.316666666666666874e+00,-2.840481106378512450e-05,6.591480546124482359e-06
2.317460317460317665e+00,-3.208242038666209487e-05,5.163924842705777420e-06
2.318253968253968456e+00,-3.575730522487957440e-05,3.329086585131355289e-06
2.319047619047619246e+00,-3.982832714384507990e-05,1.069723555521289597e-06
2.319841269841270037e+00,-4.431449641450578428e-05,-1.513858929587413971e-06
2.320634920634920828e+00,-4.873649331764646001e-05,-4.217982066442552750e-06
2.321428571428571619e+00,-5.220376133778002552e-05,-6.805388717912281310e-06
2.322222222222222410e+00,-5.366857475742404290e-05,-9.093317153766550950e-06
2.323015873015873201e+00,-5.224230880642894716e-05,-1.100896315534222866e-05
2.323809523809523991e+00,-4.745966560562452530e-05,-1.257535225418906340e-05
2.324603174603174782e+00,-3.941327434169435108e-05,-1.382518971730347588e-05
2.325396825396825573e+00,-2.873676800292410157e-05,-1.467783394156053388e-05
2.326190476190476364e+00,-1.646308943388801078e-05,-1.483841354619095670e-05
2.326984126984127155e+00,-3.810908113856945675e-06,-1.377974398592897170e-05
2.327777777777777946e+00,8.044483942940706532e-06,-1.084650193758200224e-05
2.328571428571428736e+00,1.816767214810002687e-05,-5.481610601514903683e-06
2.329365079365079527e+00,2.598991643964987332e-05,2.473805498081445363e-06
2.330158730158730318e+00,3.134315315471176701e-05,1.249957864722032924e-05
2.330952380952381109e+00,3.439868349047461106e-05,2.325129189326223777e-05
2.331746031746031900e+00,3.553342247498843763e-05,3.265534637468580828e-05
2.332539682539682691e+00,3.516816760789961141e-05,3.829057705533450018e-05
2.333333333333333481e+00,3.363012270438862325e-05,3.800391768268217919e-05
2.334126984126984272e+00,3.108127126171671850e-05,3.059996715646005151e-05
2.334920634920635063e+00,2.752888908467936423e-05,1.637447194869214872e-05
2.335714285714285854e+00,2.290494169954475530e-05,-2.730852660623547737e-06
2.336507936507936645e+00,1.717974120808349924e-05,-2.347419125042164356e-05
2.337301587301587436e+00,1.046971496935394488e-05,-4.210568848852021425e-05
2.338095238095238226e+00,3.107192699684927321e-06,-5.535744382982769272e-05
2.338888888888889017e+00,-4.347342790679437604e-06,-6.126545867173956346e-05
2.339682539682539808e+00,-1.115872365701769721e-05,-5.950073273912997432e-05
2.340476190476190599e+00,-1.653201767637957285e-05,-5.110169849555267542e-05
2.341269841269841390e+00,-1.976857905021645159e-05,-3.778726835916420494e-05
2.342063492063492181e+00,-2.042780240180536912e-05,-2.122246397733852495e-05
2.342857142857142971e+00,-1.845257277187634427e-05,-2.590585366204773481e-06
2.343650793650793762e+00,-1.422132020281233246e-05,1.737732081593938607e-05
2.344444444444444553e+00,-8.504632097287460673e-06,3.801715749404552058e-05
2.345238095238095344e+00,-2.327804539802619225e-06,5.825905758159363317e-05
2.346031746031746135e+00,3.231217453363212145e-06,7.635679050804157952e-05
2.346825396825396925e+00,7.255995017376626947e-06,8.999685963825834680e-05
2.347619047619047716e+00,9.159219989058116514e-06,9.678171730737207675e-05
2.348412698412698507e+00,8.760742231978409686e-06,9.491143719673886736e-05
2.349206349206349298e+00,6.263586751675907258e-06,8.380331262737207999e-05
2.350000000000000089e+00,2.148571988300571005e-06,6.441804275908012288e-05
2.350793650793650880e+00,-2.968381347850906030e-06,3.917857468537698723e-05
2.351587301587301670e+00,-8.465722132773532011e-06,1.151004208171685626e-05
2.352380952380952461e+00,-1.379400689969568608e-05,-1.486351396087799020e-05
2.353174603174603252e+00,-1.848880179219038723e-05,-3.667982610465745822e-05
2.353968253968254043e+00,-2.213488662698138933e-05,-5.176711304034683217e-05
2.354761904761904834e+00,-2.431998642296610816e-05,-5.938726465823769362e-05
2.355555555555555625e+00,-2.462169346787350125e-05,-6.022006879227613860e-05
2.356349206349206415e+00,-2.265594472320847845e-05,-5.602313124283645889e-05
2.357142857142857206e+00,-1.818455381209284845e-05,-4.908919916356633943e-05
2.357936507936507997e+00,-1.124599956631279391e-05,-4.165265634671231151e-05
2.358730158730158788e+00,-2.252349631641410359e-06,-3.538194225663555590e-05
2.359523809523809579e+00,8.003606373599040386e-06,-3.106319430393562279e-05
2.360317460317460370e+00,1.845830481291634400e-05,-2.853773181070498249e-05
2.361111111111111160e+00,2.798138371825794514e-05,-2.689713294042807520e-05
2.361904761904761951e+00,3.560090966014017362e-05,-2.487629312742672705e-05
2.362698412698412742e+00,4.065928670266957861e-05,-2.133542742243121394e-05
2.363492063492063533e+00,4.284114651520115418e-05,-1.569524904659747028e-05
2.364285714285714324e+00,4.208311035206914051e-05,-8.193371969426603533e-06
2.365079365079365115e+00,3.844174106061501982e-05,1.244864188771494168e-07
2.365873015873015905e+00,3.201848069170488270e-05,7.681918481650385465e-06
2.366666666666666696e+00,2.300184376902752984e-05,1.283024403182713757e-05
2.367460317460317487e+00,1.180978646275625072e-05,1.433948800869860250e-05
2.368253968253968278e+00,-7.532743361557956439e-07,1.176743114378873864e-05
2.369047619047619069e+00,-1.343123844133441479e-05,5.599857481970154036e-06
2.369841269841269860e+00,-2.461753575940826141e-05,-2.868287590019609881e-06
2.370634920634920650e+00,-3.263374878337799802e-05,-1.186613402727214117e-05
2.371428571428571441e+00,-3.612494004605327596e-05,-1.959523103099077712e-05
2.372222222222222232e+00,-3.445036998873941792e-05,-2.466689700985722503e-05
2.373015873015873023e+00,-2.792255877225307149e-05,-2.640831142569835527e-05
2.373809523809523814e+00,-1.778277907449185289e-05,-2.495601149054232256e-05
2.374603174603174605e+00,-5.897887402463029435e-06,-2.111649019543609436e-05
2.375396825396825395e+00,5.721781355899920228e-06,-1.603783478952625468e-05
2.376190476190476186e+00,1.541428070426775754e-05,-1.078784347909436554e-05
2.376984126984126977e+00,2.220770064406268150e-05,-5.964370170293994143e-06
2.377777777777777768e+00,2.592293027094024334e-05,-1.466779532793332070e-06
2.378571428571428559e+00,2.704152122425426585e-05,3.474718526066013117e-06
2.379365079365079350e+00,2.642182693794081200e-05,9.986552970070746409e-06
2.380158730158730140e+00,2.498613803566034980e-05,1.902962933854574778e-05
2.380952380952380931e+00,2.348183387668138704e-05,3.083426103732295897e-05
2.381746031746031722e+00,2.235113797769796890e-05,4.450286692290442332e-05
2.382539682539682513e+00,2.168180128141822206e-05,5.795593042392810514e-05
2.383333333333333304e+00,2.120721997503841394e-05,6.828931281858410200e-05
2.384126984126984095e+00,2.036458932107564293e-05,7.247344356549982321e-05
2.384920634920634885e+00,1.843800517354406317e-05,6.820915823917496118e-05
2.385714285714285676e+00,1.477733596506514432e-05,5.469964930469629227e-05
2.386507936507936467e+00,9.030064847187100488e-06,3.311740318343972712e-05
2.387301587301587258e+00,1.304140384964887940e-06,6.623978808247853504e-06
2.388095238095238049e+00,-7.795763021552434439e-06,-2.009590413746156797e-05
2.388888888888888840e+00,-1.727329133296844302e-05,-4.172377144780210344e-05
2.389682539682539630e+00,-2.596044771947839285e-05,-5.346568890167161989e-05
2.390476190476190421e+00,-3.279281412209433138e-05,-5.224112438810546433e-05
2.391269841269841212e+00,-3.705929664784546047e-05,-3.760698054080263849e-05
2.392063492063492003e+00,-3.854745506284638207e-05,-1.212676068793214948e-05
2.392857142857142794e+00,-3.753549585634158151e-05,1.900240041660172647e-05
2.393650793650793585e+00,-3.463361915665764436e-05,4.904700736430033826e-05
2.394444444444444375e+00,-3.053335728901228043e-05,7.129152532334197484e-05
2.395238095238095166e+00,-2.576351075262257255e-05,8.060692032758521208e-05
2.396031746031745957e+00,-2.055752446279050463e-05,7.458998822055199352e-05
2.396825396825396748e+00,-1.489942139865753297e-05,5.399748825415903898e-05
2.397619047619047539e+00,-8.739333053123232980e-06,2.242997592471385299e-05
2.398412698412698330e+00,-2.282769651177862629e-06,-1.458657184351970623e-05
2.399206349206349120e+00,3.797149951270050692e-06,-5.085431536411573998e-05
2.399999999999999911e+00,8.361759944181493427e-06,-8.077981584781620508e-05
2.400793650793650702e+00,1.007413557235484974e-05,-1.003880304904303456e-04
2.401587301587301493e+00,7.861653049669699704e-06,-1.078826353323765876e-04
2.402380952380952284e+00,1.409437068272711580e-06,-1.036896321897190883e-04
2.403174603174603075e+00,-8.502994831161126991e-06,-9.004281064124014522e-05
2.403968253968253865e+00,-1.995878209853291024e-05,-7.026111327173843496e-05
2.404761904761904656e+00,-3.019729235959215866e-05,-4.792255009065610416e-05
2.405555555555555447e+00,-3.618867720274914531e-05,-2.614521695862912344e-05
2.406349206349206238e+00,-3.535925289880099970e-05,-7.130119692743925743e-06
2.407142857142857029e+00,-2.629910729734455608e-05,7.984632943811493489e-06
2.407936507936507819e+00,-9.281884929266157958e-06,1.901836770670372202e-05
2.408730158730158610e+00,1.354273759571437325e-05,2.651315132810690080e-05
2.409523809523809401e+00,3.836650020877926872e-05,3.147942019948601374e-05
2.410317460317460192e+00,6.035436453327223911e-05,3.516378971210773442e-05
2.411111111111110983e+00,7.460334297665941969e-05,3.881419704566586057e-05
2.411904761904761774e+00,7.724847566482888502e-05,4.340449130520603163e-05
2.412698412698412564e+00,6.646316802615012632e-05,4.932968639643931522e-05
2.413492063492063355e+00,4.308103974994607460e-05,5.615533512243089091e-05
2.414285714285714146e+00,1.063186270871402892e-05,6.254446647711248771e-05
2.415079365079364937e+00,-2.526881164265688833e-05,6.645719372236686046e-05
2.415873015873015728e+00,-5.805839819665894027e-05,6.562588618450407047e-05
2.416666666666666519e+00,-8.162725362518752554e-05,5.819616144145981315e-05
2.417460317460317309e+00,-9.163284731114962139e-05,4.334698140933581213e-05
2.418253968253968100e+00,-8.639287218832871688e-05,2.169695892748746465e-05
2.419047619047618891e+00,-6.713086191126274203e-05,-4.631930572659607435e-06
2.419841269841269682e+00,-3.753002823153736220e-05,-3.231741059074197761e-05
2.420634920634920473e+00,-2.753416861090437539e-06,-5.742892513012726278e-05
2.421428571428571264e+00,3.175718839406176547e-05,-7.616686174615876779e-05
2.422222222222222054e+00,6.134687257459731265e-05,-8.559138297121778179e-05
2.423015873015872845e+00,8.280917005567105531e-05,-8.420161562404393247e-05
2.423809523809523636e+00,9.455505125548758463e-05,-7.225742430908595052e-05
2.424603174603174427e+00,9.638705902953546151e-05,-5.176963257702111795e-05
2.425396825396825218e+00,8.908751099867838518e-05,-2.612947897504843583e-05
2.426190476190476009e+00,7.402778971750596272e-05,5.753589859692739984e-07
2.426984126984126799e+00,5.291146413677331502e-05,2.440727199292973059e-05
2.427777777777777590e+00,2.764534630852046203e-05,4.236049641827082345e-05
2.428571428571428381e+00,2.635222641025794225e-07,5.286550645873459961e-05
2.429365079365079172e+00,-2.716145576707772381e-05,5.591047444101805301e-05
2.430158730158729963e+00,-5.263177933688925099e-05,5.280536764865108594e-05
2.430952380952380754e+00,-7.433310432089362005e-05,4.569982874830781731e-05
2.431746031746031544e+00,-9.071437085174395272e-05,3.699150328234010454e-05
2.432539682539682335e+00,-1.005463998854582927e-04,2.875314896259129971e-05
2.433333333333333126e+00,-1.029873345700540294e-04,2.228767190639989148e-05
2.434126984126983917e+00,-9.767110951965450171e-05,1.789451637868185078e-05
2.434920634920634708e+00,-8.480205066279148610e-05,1.489578732696525984e-05
2.435714285714285499e+00,-6.520840205109445999e-05,1.192347465225935325e-05
2.436507936507936289e+00,-4.029907934571771478e-05,7.408874480435433467e-06
2.437301587301587080e+00,-1.189458170957966704e-05,1.505829232191417745e-07
2.438095238095238315e+00,1.803461486957620065e-05,-1.020634906644617028e-05
2.438888888888889106e+00,4.762195905696917303e-05,-2.294118461478606704e-05
2.439682539682539897e+00,7.523383412077039561e-05,-3.637149018589121429e-05
2.440476190476190688e+00,9.941827938330968892e-05,-4.829057171130022252e-05
2.441269841269841478e+00,1.187278701207543824e-04,-5.658990406109510007e-05
2.442063492063492269e+00,1.315616296695432683e-04,-5.985427254430494121e-05
2.442857142857143060e+00,1.361872906007745255e-04,-5.772692039205816385e-05
2.443650793650793851e+00,1.310349629845992947e-04,-5.093614651118975141e-05
2.444444444444444642e+00,1.152246461641011821e-04,-4.100869345897929698e-05
2.445238095238095433e+00,8.915685306236571274e-05,-2.980136281159537069e-05
2.446031746031746223e+00,5.491667008903605138e-05,-1.901612209028293379e-05
2.446825396825397014e+00,1.625967755211881610e-05,-9.832798589516228438e-06
2.447619047619047805e+00,-2.192763629094814502e-05,-2.736914936812694628e-06
2.448412698412698596e+00,-5.460690053350067343e-05,2.433168297573843579e-06
2.449206349206349387e+00,-7.773653103706206380e-05,6.245344558110721826e-06
2.450000000000000178e+00,-8.923335315411701110e-05,9.318063627597949431e-06
2.450793650793650968e+00,-8.944283655777380670e-05,1.197673713619644141e-05
2.451587301587301759e+00,-8.097506758719972891e-05,1.406379802839763535e-05
2.452380952380952550e+00,-6.795968714806044809e-05,1.500052683853621669e-05
2.453174603174603341e+00,-5.493709988353701474e-05,1.410087267492807763e-05
2.453968253968254132e+00,-4.569652125706226436e-05,1.102287473983729875e-05
2.454761904761904923e+00,-4.237382792336806937e-05,6.163484437951124535e-06
2.455555555555555713e+00,-4.503431543633325219e-05,7.967754404037154844e-07
2.456349206349206504e+00,-5.181763174002920779e-05,-3.163269434043676976e-06
2.457142857142857295e+00,-5.956400739532466935e-05,-3.743940033353195071e-06
2.457936507936508086e+00,-6.472040295399627803e-05,3.572797659106651608e-07
2.458730158730158877e+00,-6.427326156101637554e-05,9.186145747808512486e-06
2.459523809523809668e+00,-5.647571459432708152e-05,2.133056287501039274e-05
2.460317460317460458e+00,-4.121349593755758842e-05,3.417736896773307029e-05
2.461111111111111249e+00,-1.996134189044178350e-05,4.451643464609009388e-05
2.461904761904762040e+00,4.606951480867124852e-06,4.929243678059778934e-05
2.462698412698412831e+00,2.921320320410468254e-05,4.631644978168919020e-05
2.463492063492063622e+00,5.061586127207744960e-05,3.480085441992259582e-05
2.464285714285714413e+00,6.617491103499518557e-05,1.563030969685586888e-05
2.465079365079365203e+00,7.426772999579017427e-05,-8.673579227968714720e-06
2.465873015873015994e+00,7.451579848968875781e-05,-3.429195802188072595e-05
2.466666666666666785e+00,6.779835960505306862e-05,-5.670939069429416592e-05
2.467460317460317576e+00,5.604602344151314006e-05,-7.149303501700187281e-05
2.468253968253968367e+00,4.183761799227824770e-05,-7.512975306311794584e-05
2.469047619047619158e+00,2.786461776603089919e-05,-6.577052881796987107e-05
2.469841269841269948e+00,1.636538457084552923e-05,-4.372545084364658062e-05
2.470634920634920739e+00,8.652374423169357061e-06,-1.158437648420677369e-05
2.471428571428571530e+00,4.851251201655387451e-06,2.609120616211959033e-05
2.472222222222222321e+00,3.936031999435772001e-06,6.346929524228919241e-05
2.473015873015873112e+00,4.075685318093610798e-06,9.442580111470056932e-05
2.473809523809523903e+00,3.214603675352807847e-06,1.136331246065925150e-04
2.474603174603174693e+00,-2.759565571321937802e-07,1.175619467547862846e-04
2.475396825396825484e+00,-7.073707424046472850e-06,1.051885115093627353e-04
2.476190476190476275e+00,-1.666899134124123733e-05,7.823551184094899088e-05
2.476984126984127066e+00,-2.748102185819230895e-05,4.088050635709466975e-05
2.477777777777777857e+00,-3.727988109816333603e-05,-9.936237348659247651e-07
2.478571428571428648e+00,-4.378259435943245465e-05,-4.083323445666930962e-05
2.479365079365079438e+00,-4.525553893304932389e-05,-7.254204003619766207e-05
2.480158730158730229e+00,-4.096789178171757933e-05,-9.153343451331881844e-05
2.480952380952381020e+00,-3.138922631959923808e-05,-9.554322898567543581e-05
2.481746031746031811e+00,-1.809239831064850092e-05,-8.503089052939338159e-05
2.482539682539682602e+00,-3.393493108493882657e-06,-6.303342092042842667e-05
2.483333333333333393e+00,1.018034588571793250e-05,-3.445576350653087457e-05
2.484126984126984183e+00,2.046531327255933337e-05,-4.954269569610180708e-06
2.484920634920634974e+00,2.613451494930608398e-05,2.029113823790806178e-05
2.485714285714285765e+00,2.694790615040690152e-05,3.759321263223304628e-05
2.486507936507936556e+00,2.371321151554927861e-05,4.533170216791481246e-05
2.487301587301587347e+00,1.797706978041825414e-05,4.400535074418657992e-05
2.488095238095238138e+00,1.155043427511250494e-05,3.581783316456967027e-05
2.488888888888888928e+00,6.022284458535726399e-06,2.394615208944701455e-05
2.489682539682539719e+00,2.407091700906266983e-06,1.168704854256582413e-05
2.490476190476190510e+00,1.008901148833205899e-06,1.681965756130498160e-06
2.491269841269841301e+00,1.500975376154705002e-06,-4.612593909631144926e-06
2.492063492063492092e+00,3.153516794961105099e-06,-7.105657984257792414e-06
2.492857142857142883e+00,5.114325713596039182e-06,-6.880627982559786178e-06
2.493650793650793673e+00,6.656439903297956471e-06,-5.697822630099571298e-06
2.494444444444444464e+00,7.337949630394778671e-06,-5.336110398897822164e-06
2.495238095238095255e+00,7.055522344448575299e-06,-6.967610867105287607e-06
2.496031746031746046e+00,6.002326473844629814e-06,-1.075572158697460664e-05
2.496825396825396837e+00,4.558699114884443044e-06,-1.580476394452402406e-05
2.497619047619047628e+00,3.152703814986720088e-06,-2.048194021626399870e-05
2.498412698412698418e+00,2.130477767323674268e-06,-2.300747093773968029e-05
2.499206349206349209e+00,1.671434662256252827e-06,-2.210775576835524050e-05
2.500000000000000000e+00,1.768768382113432306e-06,-1.749391443857364669e-05
2.500793650793650791e+00,2.274262463061236113e-06,-9.990323310812091934e-06
2.501587301587301582e+00,2.985869655432220380e-06,-1.276505331088542198e-06
2.502380952380952372e+00,3.743883495286070353e-06,6.641834007859587558e-06
2.503174603174603163e+00,4.499625266090551255e-06,1.202073097227860700e-05
2.503968253968253954e+00,5.329225382897199856e-06,1.381056416409688150e-05
2.504761904761904745e+00,6.382939900985922436e-06,1.180540781456677542e-05
2.505555555555555536e+00,7.784096217774916433e-06,6.515038770028475676e-06
2.506349206349206327e+00,9.514085998779531539e-06,-1.120576663091347697e-06
2.507142857142857117e+00,1.133168741591176580e-05,-1.001842637813144030e-05
2.507936507936507908e+00,1.276940200082957786e-05,-1.913137955075213227e-05
2.508730158730158699e+00,1.322509830060911240e-05,-2.749168045078622673e-05
2.509523809523809490e+00,1.213092612294055795e-05,-3.416368884092358326e-05
2.510317460317460281e+00,9.147627980973864855e-06,-3.818987502241848539e-05
2.511111111111111072e+00,4.316382630867833291e-06,-3.861527138260747592e-05
2.511904761904761862e+00,-1.889940674724659614e-06,-3.464080805182342455e-05
2.512698412698412653e+00,-8.641900826795898029e-06,-2.589600412172920042e-05
2.513492063492063444e+00,-1.493797396697617134e-05,-1.275255011171759495e-05
2.514285714285714235e+00,-1.984358733285702820e-05,3.455465142907260978e-06
2.515079365079365026e+00,-2.270940636967296378e-05,2.044966339329741501e-05
2.515873015873015817e+00,-2.329768405254221448e-05,3.534876706186641825e-05
2.516666666666666607e+00,-2.177604687028139826e-05,4.529868369686393360e-05
2.517460317460317398e+00,-1.858745839794337626e-05,4.823250661631021111e-05
2.518253968253968189e+00,-1.425326281857050802e-05,4.353524514900346238e-05
2.519047619047618980e+00,-9.190426551630834131e-06,3.240206974105588596e-05
2.519841269841269771e+00,-3.614389122581084294e-06,1.774883879830464528e-05
2.520634920634920562e+00,2.437459129174469550e-06,3.629444932338235791e-06
2.521428571428571352e+00,8.973624459532587890e-06,-5.767151506290460812e-06
2.522222222222222143e+00,1.586131467687023694e-05,-7.322681680743987824e-06
2.523015873015872934e+00,2.266201634683886483e-05,-4.380631393338777011e-08
2.523809523809523725e+00,2.856631544135726663e-05,1.443508267734971939e-05
2.524603174603174516e+00,3.247550615253029223e-05,3.217207177030465459e-05
2.525396825396825307e+00,3.322833912773634453e-05,4.803151005855244319e-05
2.526190476190476097e+00,2.991876443672025743e-05,5.721776076183782134e-05
2.526984126984126888e+00,2.221376082170873693e-05,5.666525568123827362e-05
2.527777777777777679e+00,1.056996578897926708e-05,4.580540505384952390e-05
2.528571428571428470e+00,-3.735237485525437583e-06,2.652873157917819212e-05
2.529365079365079261e+00,-1.879894417789710294e-05,2.482155852602797430e-06
2.530158730158730052e+00,-3.248638597732656403e-05,-2.197564578394253833e-05
2.530952380952380842e+00,-4.291808198495664306e-05,-4.282911382649064511e-05
2.531746031746031633e+00,-4.889783224087079191e-05,-5.723777943366091151e-05
2.532539682539682424e+00,-5.014462292939795787e-05,-6.402648276509268594e-05
2.533333333333333215e+00,-4.726711875786870546e-05,-6.379088763775326828e-05
2.534126984126984006e+00,-4.151292844590593646e-05,-5.861897409416082200e-05
2.534920634920634797e+00,-3.439011412879730876e-05,-5.147891218050960459e-05
2.535714285714285587e+00,-2.727719930626760242e-05,-4.539700220344321051e-05
2.536507936507936378e+00,-2.112126448138222607e-05,-4.262000526810476130e-05
2.537301587301587169e+00,-1.628916947782892588e-05,-4.398007737554861127e-05
2.538095238095237960e+00,-1.259183830880001576e-05,-4.863406060950569782e-05
2.538888888888888751e+00,-9.451174699864237932e-06,-5.424410964533808109e-05
2.539682539682539542e+00,-6.140056215458995268e-06,-5.754154213692476595e-05
2.540476190476190332e+00,-2.016948365144772453e-06,-5.511630949107063505e-05
2.541269841269841123e+00,3.300513089996973384e-06,-4.423611051632277239e-05
2.542063492063491914e+00,9.842732949321273452e-06,-2.352830065856878703e-05
2.542857142857142705e+00,1.726902651048278420e-05,6.576541769709410268e-06
2.543650793650793496e+00,2.490646724157751592e-05,4.368546542367188521e-05
2.544444444444444287e+00,3.183537717221203770e-05,8.359288294179807993e-05
2.545238095238095077e+00,3.701628928918946558e-05,1.207555676329104342e-04
2.546031746031745868e+00,3.945354044199921403e-05,1.490795259726686176e-04
2.546825396825396659e+00,3.838319321544511668e-05,1.629453681428140639e-04
2.547619047619047450e+00,3.345957895986202566e-05,1.583304006049967769e-04
2.548412698412698241e+00,2.489981042827048912e-05,1.338293707558098919e-04
2.549206349206349032e+00,1.353701877177338402e-05,9.133918884135771308e-05
2.549999999999999822e+00,7.417788266762587093e-07,3.617244738760920340e-05
2.550793650793650613e+00,-1.179625066734294322e-05,-2.356798517360009131e-05
2.551587301587301404e+00,-2.238638764224970567e-05,-7.836479502973313859e-05
2.552380952380952195e+00,-2.967306248698893658e-05,-1.191972181408517404e-04
2.553174603174602986e+00,-3.289419329895568623e-05,-1.395434356877679023e-04
2.553968253968253777e+00,-3.198705529264476142e-05,-1.369101315601410792e-04
2.554761904761904567e+00,-2.751716024829335838e-05,-1.134110144767229368e-04
2.555555555555555358e+00,-2.046651714109123124e-05,-7.520902261681958157e-05
2.556349206349206149e+00,-1.196345750088182767e-05,-3.100444711613048649e-05
2.557142857142856940e+00,-3.047605413070408655e-06,9.981703469412165659e-06
2.557936507936507731e+00,5.462015767501220404e-06,3.999837961068961539e-05
2.558730158730158522e+00,1.297811777158754321e-05,5.427346647480214511e-05
2.559523809523809312e+00,1.907246766955460188e-05,5.175045953994756914e-05
2.560317460317460103e+00,2.339068760698714117e-05,3.496551725644580697e-05
2.561111111111110894e+00,2.562183195067050886e-05,9.175372997964572795e-06
2.561904761904761685e+00,2.554969701777577124e-05,-1.899724051485770915e-05
2.562698412698412920e+00,2.315986386049495073e-05,-4.304327025129410235e-05
2.563492063492063711e+00,1.874083888261823369e-05,-5.781329805019803757e-05
2.564285714285714501e+00,1.291617073013030799e-05,-6.027808311517790870e-05
2.565079365079365292e+00,6.573142064202272234e-06,-4.974398252568527012e-05
2.565873015873016083e+00,6.955812277382539483e-07,-2.765196535277640163e-05
2.566666666666666874e+00,-3.853324474001642047e-06,2.835471204573475972e-06
2.567460317460317665e+00,-6.528691075222062161e-06,3.732754160610381405e-05
2.568253968253968456e+00,-7.211737399926903659e-06,7.077384273469796544e-05
2.569047619047619246e+00,-6.184697302966212183e-06,9.814522209340935377e-05
2.569841269841270037e+00,-3.980087796819343869e-06,1.151823261164999437e-04
2.570634920634920828e+00,-1.164278637271964623e-06,1.190650942975991338e-04
2.571428571428571619e+00,1.856429101736759980e-06,1.088480032111520461e-04
2.572222222222222410e+00,4.930968665839983975e-06,8.559247411591013629e-05
2.573015873015873201e+00,8.129639700063834594e-06,5.221586447869110625e-05
2.573809523809523991e+00,1.160696388730111680e-05,1.309947706152731720e-05
2.574603174603174782e+00,1.542684001786770483e-05,-2.651360468301528373e-05
2.575396825396825573e+00,1.942451413839649141e-05,-6.127984204458476899e-05
2.576190476190476364e+00,2.315886464872607916e-05,-8.656648935752059466e-05
2.576984126984127155e+00,2.597025827161642157e-05,-9.916271514053786294e-05
2.577777777777777946e+00,2.712142895735616716e-05,-9.775520490983385350e-05
2.578571428571428736e+00,2.597573055214531955e-05,-8.308685860663777070e-05
2.579365079365079527e+00,2.216340219731187381e-05,-5.778136263741222669e-05
2.580158730158730318e+00,1.569768035294265995e-05,-2.588063838927709607e-05
2.580952380952381109e+00,7.020015203938278625e-06,7.803748305617701027e-06
2.581746031746031900e+00,-3.030910288991187485e-06,3.840130190654390038e-05
2.582539682539682691e+00,-1.332229752272881555e-05,6.164742324153458055e-05
2.583333333333333481e+00,-2.259280420447408469e-05,7.442979677125737220e-05
2.584126984126984272e+00,-2.966257137606524770e-05,7.517119302484516063e-05
2.584920634920635063e+00,-3.365503607664516601e-05,6.401168801674529544e-05
2.585714285714285854e+00,-3.418166902419681775e-05,4.275864825628551084e-05
2.586507936507936645e+00,-3.143538950791457612e-05,1.459941048306667457e-05
2.587301587301587436e+00,-2.615492754552723942e-05,-1.638602688113539134e-05
2.588095238095238226e+00,-1.945948089940426686e-05,-4.584602136072310767e-05
2.588888888888889017e+00,-1.259435486878876157e-05,-6.983553366600876158e-05
2.589682539682539808e+00,-6.654449979283990146e-06,-8.545696195278915629e-05
2.590476190476190599e+00,-2.355293478295481494e-06,-9.133401628364307069e-05
2.591269841269841390e+00,9.465200354523695153e-08,-8.777686704350956125e-05
2.592063492063492181e+00,9.928788122555763755e-07,-7.655713763309690111e-05
2.592857142857142971e+00,1.015409675697903371e-06,-6.034154288343132833e-05
2.593650793650793762e+00,9.949562719529606470e-07,-4.196394765944304231e-05
2.594444444444444553e+00,1.660835440786045162e-06,-2.376780949878756958e-05
2.595238095238095344e+00,3.409555201610891121e-06,-7.202239220961554998e-06
2.596031746031746135e+00,6.169189285335769937e-06,7.252715250297551747e-06
2.596825396825396925e+00,9.394766236484253978e-06,1.986753202721885486e-05
2.597619047619047716e+00,1.219522922195999215e-05,3.127139175760544030e-05
2.598412698412698507e+00,1.356071266493613046e-05,4.204364537936001068e-05
2.599206349206349298e+00,1.264025697289430088e-05,5.241808560560183621e-05
2.600000000000000089e+00,9.009632029288303895e-06,6.215347156185384151e-05
2.600793650793650880e+00,2.860641728898315227e-06,7.055321379747539706e-05
2.601587301587301670e+00,-4.955022612212259112e-06,7.659516730046472225e-05
2.602380952380952461e+00,-1.306657322271531173e-05,7.914204121370927998e-05
2.603174603174603252e+00,-1.989250393760574111e-05,7.719820596365913425e-05
2.603968253968254043e+00,-2.403623484215859285e-05,7.015401217320278683e-05
2.604761904761904834e+00,-2.464972907612677594e-05,5.795205651171640504e-05
2.605555555555555625e+00,-2.165051384477608662e-05,4.114119704092696864e-05
2.606349206349206415e+00,-1.572504445292598245e-05,2.082613864726403591e-05
2.607142857142857206e+00,-8.124108217909099621e-06,-1.460422971508418002e-06
2.607936507936507997e+00,-3.258116709249651666e-07,-2.393626111235327904e-05
2.608730158730158788e+00,6.320320344145552841e-06,-4.476859722459654111e-05
2.609523809523809579e+00,1.086277723300412451e-05,-6.225696508154565211e-05
2.610317460317460370e+00,1.287098159581896602e-05,-7.497523861602531478e-05
2.611111111111111160e+00,1.240987140772927558e-05,-8.188312752427602591e-05
2.611904761904761951e+00,9.911603731671508432e-06,-8.244394282928911143e-05
2.612698412698412742e+00,6.011366292346410923e-06,-7.676495950802800239e-05
2.613492063492063533e+00,1.405834677951699175e-06,-6.571242690555627200e-05
2.614285714285714324e+00,-3.237719020591175531e-06,-5.090058809884444102e-05
2.615079365079365115e+00,-7.327237518550383223e-06,-3.447362585324413462e-05
2.615873015873015905e+00,-1.036949038073810518e-05,-1.869689116881796513e-05
2.616666666666666696e+00,-1.199055030404124813e-05,-5.485748293012467907e-06
2.617460317460317487e+00,-1.195869564122014907e-05,3.956469154142919723e-06
2.618253968253968278e+00,-1.020600940919887733e-05,9.276667776082813191e-06
2.619047619047619069e+00,-6.843679365603420992e-06,1.088077431022997734e-05
2.619841269841269860e+00,-2.167824397587515718e-06,9.691698648372264272e-06
2.620634920634920650e+00,3.347510173417004149e-06,6.855942233978628059e-06
2.621428571428571441e+00,9.076314530302801372e-06,3.473464399895581063e-06
2.622222222222222232e+00,1.429401559458501462e-05,3.948963101769066732e-07
2.623015873015873023e+00,1.826471627059033512e-05,-1.883787653341052806e-06
2.623809523809523814e+00,2.035938569796227638e-05,-3.205957062647097364e-06
2.624603174603174605e+00,2.018654714962317528e-05,-3.616838970157606099e-06
2.625396825396825395e+00,1.770155975482568388e-05,-3.143838707386439923e-06
2.626190476190476186e+00,1.325530495937056236e-05,-1.578505900010421914e-06
2.626984126984126977e+00,7.555054623971302130e-06,1.633659284268042334e-06
2.627777777777777768e+00,1.536978694068865542e-06,7.305346192936301772e-06
2.628571428571428559e+00,-3.820746815559991055e-06,1.619381875185166178e-05
2.629365079365079350e+00,-7.696434121800813024e-06,2.853759609404927844e-05
2.630158730158730140e+00,-9.585733072750251050e-06,4.362936394410583496e-05
2.630952380952380931e+00,-9.388982083379275660e-06,5.965761611345074588e-05
2.631746031746031722e+00,-7.409670549195775753e-06,7.396994525056943667e-05
2.632539682539682513e+00,-4.269299500183507385e-06,8.371921702780154868e-05
2.633333333333333304e+00,-7.613732555170274251e-07,8.666015247394663623e-05
2.634126984126984095e+00,2.320702417518545366e-06,8.179195082128276834e-05
2.634920634920634885e+00,4.343101966457431366e-06,6.962215194094398978e-05
2.635714285714285676e+00,4.945353644011322388e-06,5.198455157800934340e-05
2.636507936507936467e+00,4.088481220452551881e-06,3.149127849244998101e-05
2.637301587301587258e+00,2.033823659768267640e-06,1.079762752236673844e-05
2.638095238095238049e+00,-7.360117013636207760e-07,-8.094679952004706848e-06
2.638888888888888840e+00,-3.631583080129736351e-06,-2.427676547411542193e-05
2.639682539682539630e+00,-6.079463907243801946e-06,-3.796394971992670027e-05
2.640476190476190421e+00,-7.629264357940661575e-06,-5.009764851562290835e-05
2.641269841269841212e+00,-8.027916016464413246e-06,-6.165623593145671101e-05
2.642063492063492003e+00,-7.251966765875041592e-06,-7.294356600473474921e-05
2.642857142857142794e+00,-5.494769682964275250e-06,-8.315638042623393238e-05
2.643650793650793585e+00,-3.111840662556965578e-06,-9.043639033132992028e-05
2.644444444444444375e+00,-5.358412667894131066e-07,-9.242403982948623430e-05
2.645238095238095166e+00,1.819526467521193438e-06,-8.712978663044417189e-05
2.646031746031745957e+00,3.643937625708172025e-06,-7.380702189387879292e-05
2.646825396825396748e+00,4.783197503705448159e-06,-5.349720809279089599e-05
2.647619047619047539e+00,5.248717424803273456e-06,-2.902590529134788832e-05
2.648412698412698330e+00,5.184117869505518972e-06,-4.417015823306637498e-06
2.649206349206349120e+00,4.801826058630764047e-06,1.610796104273837102e-05
2.649999999999999911e+00,4.310886059398152100e-06,2.923800618157105323e-05
2.650793650793650702e+00,3.858162975961500786e-06,3.344442791386059591e-05
2.651587301587301493e+00,3.498914828665876395e-06,2.935490354971474080e-05
2.652380952380952284e+00,3.202131320720174005e-06,1.953863711200210695e-05
2.653174603174603075e+00,2.884841311996865804e-06,7.800122044820494556e-06
2.653968253968253865e+00,2.461166660728100643e-06,-1.793140463513881085e-06
2.654761904761904656e+00,1.888032623137199894e-06,-5.891472072316303873e-06
2.655555555555555447e+00,1.190893555697400895e-06,-2.631744477914823132e-06
2.656349206349206238e+00,4.603067081508331090e-07,7.964837756093756928e-06
2.657142857142857029e+00,-1.779393685589964563e-07,2.404699922822995723e-05
2.657936507936507819e+00,-6.057876458241992226e-07,4.241477410280600978e-05
2.658730158730158610e+00,-7.517570279177650869e-07,5.929132874860173119e-05
2.659523809523809401e+00,-6.120657045455390155e-07,7.118875499658045556e-05
2.660317460317460192e+00,-2.480850852206596051e-07,7.568259827775752002e-05
2.661111111111110983e+00,2.375814744259352694e-07,7.194206501648755170e-05
2.661904761904761774e+00,7.369872469972893917e-07,6.088041441292421722e-05
2.662698412698412564e+00,1.170707651737988025e-06,4.484270631663004995e-05
2.663492063492063355e+00,1.505982409665756561e-06,2.689036559664476338e-05
2.664285714285714146e+00,1.752029604238758833e-06,9.915208103455155501e-06
2.665079365079364937e+00,1.935980086414862917e-06,-4.107681275106593610e-06
2.665873015873015728e+00,2.071843623152352179e-06,-1.448926927924404244e-05
2.666666666666666519e+00,2.137524676386271178e-06,-2.173686301207987295e-05
2.667460317460317309e+00,2.070340978911954313e-06,-2.708380906626720359e-05
2.668253968253968100e+00,1.782933632258837954e-06,-3.182708471997427329e-05
2.669047619047618891e+00,1.193616045993761040e-06,-3.670065863931843650e-05
2.669841269841269682e+00,2.611119333142394934e-07,-4.148273271970489054e-05
2.670634920634920473e+00,-9.869139146926424500e-07,-4.495653106982014022e-05
2.671428571428571264e+00,-2.440832014928966735e-06,-4.524136437991692149e-05
2.672222222222222054e+00,-3.918280298022068312e-06,-4.040275210036866173e-05
2.673015873015872845e+00,-5.197713060082856508e-06,-2.916213056603252690e-05
2.673809523809523636e+00,-6.071027366481607200e-06,-1.148923711386230865e-05
2.674603174603174427e+00,-6.401870342604231642e-06,1.110942300319081747e-05
2.675396825396825218e+00,-6.171268886941478497e-06,3.570586502366906588e-05
2.676190476190476009e+00,-5.494352431985395983e-06,5.845370445555389907e-05
2.676984126984126799e+00,-4.601242457425249767e-06,7.534742723720550212e-05
2.677777777777777590e+00,-3.786928653382033221e-06,8.302785458223539705e-05
2.678571428571428381e+00,-3.343252071472835097e-06,7.942394603390032139e-05
2.679365079365079172e+00,-3.488557571066295868e-06,6.410463834196242715e-05
2.680158730158729963e+00,-4.308872389805757932e-06,3.832602854572585388e-05
2.680952380952380754e+00,-5.721487127963485343e-06,4.831964529458500670e-06
2.681746031746031544e+00,-7.469049696589942187e-06,-3.251644409105947022e-05
2.682539682539682335e+00,-9.149313588561364694e-06,-6.921823110023158949e-05
2.683333333333333126e+00,-1.028092199699817990e-05,-1.006695817404422709e-04
2.684126984126983917e+00,-1.039810399062934113e-05,-1.227280526051854068e-04
2.684920634920634708e+00,-9.158228878567016326e-06,-1.322755133605880106e-04
2.685714285714285499e+00,-6.438751964777471113e-06,-1.277309146632194848e-04
2.686507936507936289e+00,-2.397007231290392708e-06,-1.094236244365492879e-04
2.687301587301587080e+00,2.529926369909020890e-06,-7.970949690962361560e-05
2.688095238095238315e+00,7.695302312803627335e-06,-4.272801253328274923e-05
2.688888888888889106e+00,1.237179705982655115e-05,-3.768250651710509675e-06
2.689682539682539897e+00,1.590639033604567833e-05,3.167696158632879818e-05
2.690476190476190688e+00,1.785575999257987275e-05,5.896549749605588898e-05
2.691269841269841478e+00,1.806340520934200848e-05,7.518971559040315070e-05
2.692063492063492269e+00,1.666171278819976624e-05,7.964167980160856528e-05
2.692857142857143060e+00,1.400777081813209455e-05,7.374523379369563177e-05
2.693650793650793851e+00,1.058031917105918254e-05,6.050258591134966804e-05
2.694444444444444642e+00,6.872423245517471894e-06,4.362948727613947375e-05
2.695238095238095433e+00,3.309819599573072530e-06,2.662923584846574906e-05
2.696031746031746223e+00,2.107462692484202279e-07,1.207228306308053726e-05
2.696825396825397014e+00,-2.214806216057703328e-06,1.273640571519272564e-06
2.697619047619047805e+00,-3.842810749636032595e-06,-5.601225150068925412e-06
2.698412698412698596e+00,-4.611619519455972447e-06,-9.138850576127561617e-06
2.699206349206349387e+00,-4.513715928201460699e-06,-1.020425262107373067e-05
2.700000000000000178e+00,-3.606916303302668262e-06,-9.574170958466208267e-06
2.700793650793650968e+00,-2.035647507220270180e-06,-7.764433367814231764e-06
2.701587301587301759e+00,-4.529170620829730496e-08,-5.042882691201247012e-06
2.702380952380952550e+00,2.026024676896369547e-06,-1.558502035844106511e-06
2.703174603174603341e+00,3.785538119262885894e-06,2.500613526086680669e-06
2.703968253968254132e+00,4.850838331949680237e-06,6.793086983062750872e-06
2.704761904761904923e+00,4.929917281235717748e-06,1.079562743535071073e-05
2.705555555555555713e+00,3.898341853268401558e-06,1.386751045947720961e-05
2.706349206349206504e+00,1.852398829701287937e-06,1.538543387755771452e-05
2.707142857142857295e+00,-8.822312266911878646e-07,1.490448320626186325e-05
2.707936507936508086e+00,-3.799772265949836173e-06,1.229302809607038943e-05
2.708730158730158877e+00,-6.320070707128192928e-06,7.797612977451796846e-06
2.709523809523809668e+00,-7.928208848792163505e-06,2.015778938785951999e-06
2.710317460317460458e+00,-8.307357115386570425e-06,-4.217206777176220503e-06
2.711111111111111249e+00,-7.420582266479005165e-06,-9.996383312560165062e-06
2.711904761904762040e+00,-5.513391983951008623e-06,-1.452214697174648386e-05
2.712698412698412831e+00,-3.037497593078120775e-06,-1.723158315914915902e-05
2.713492063492063622e+00,-5.233738111595087063e-07,-1.785069153604600388e-05
2.714285714285714413e+00,1.556489961489860912e-06,-1.636499574290473032e-05
2.715079365079365203e+00,2.893228552285516929e-06,-1.294173014205346512e-05
2.715873015873015994e+00,3.389781858014834697e-06,-7.853877229019829651e-06
2.716666666666666785e+00,3.145939959484070887e-06,-1.445075094837026958e-06
2.717460317460317576e+00,2.394694480543026903e-06,5.855625209924774230e-06
2.718253968253968367e+00,1.417070371965509291e-06,1.349049113701347056e-05
2.719047619047619158e+00,4.639072806576153197e-07,2.073935451908623631e-05
2.719841269841269948e+00,-2.961486960086307325e-07,2.673184818238159776e-05
2.720634920634920739e+00,-7.969211061494474825e-07,3.052520897263210969e-05
2.721428571428571530e+00,-1.068380522385354334e-06,3.124197256819504761e-05
2.722222222222222321e+00,-1.212542604190421900e-06,2.823672503592841214e-05
2.723015873015873112e+00,-1.369249348780448348e-06,2.124626668609162254e-05
2.723809523809523903e+00,-1.677974621650384948e-06,1.048311848704482783e-05
2.724603174603174693e+00,-2.241743547075757949e-06,-3.342804188783150934e-06
2.725396825396825484e+00,-3.099565552452185911e-06,-1.906348035204045554e-05
2.726190476190476275e+00,-4.213229716441986415e-06,-3.513566496512016645e-05
2.726984126984127066e+00,-5.472374066090389485e-06,-4.976423807601957152e-05
2.727777777777777857e+00,-6.717869912943062555e-06,-6.107662525720760466e-05
2.728571428571428648e+00,-7.778113526558543111e-06,-6.735126575367239067e-05
2.729365079365079438e+00,-8.508177700367426923e-06,-6.727792338339159928e-05
2.730158730158730229e+00,-8.820765716191818277e-06,-6.020675791919319174e-05
2.730952380952381020e+00,-8.701124654326440857e-06,-4.633825509340909943e-05
2.731746031746031811e+00,-8.203599531195250198e-06,-2.681137445150201634e-05
2.732539682539682602e+00,-7.432810867764042292e-06,-3.656217696923062690e-06
2.733333333333333393e+00,-6.515817473624733922e-06,2.040802345148458135e-05
2.734126984126984183e+00,-5.572455173202915561e-06,4.232590257222813683e-05
2.734920634920634974e+00,-4.689758909590233198e-06,5.917346537708473915e-05
2.735714285714285765e+00,-3.904186022014852026e-06,6.866895031627345521e-05
2.736507936507936556e+00,-3.193335825271825395e-06,6.962545686644221838e-05
2.737301587301587347e+00,-2.477567945753818539e-06,6.223529763479567812e-05
2.738095238095238138e+00,-1.631643735019491195e-06,4.809403027470161363e-05
2.738888888888888928e+00,-5.067775818629668568e-07,2.992309099560623367e-05
2.739682539682539719e+00,1.037238052125182751e-06,1.102989331314648656e-05
2.740476190476190510e+00,3.092986447856611553e-06,-5.373427258298213693e-06
2.741269841269841301e+00,5.666704334684703469e-06,-1.682453733917081229e-05
2.742063492063492092e+00,8.650284240164059701e-06,-2.207634977430765529e-05
2.742857142857142883e+00,1.181451124328186921e-05,-2.126084586760319106e-05
2.743650793650793673e+00,1.483016759036781926e-05,-1.571666562421559322e-05
2.744444444444444464e+00,1.731662051882910426e-05,-7.536027919687832773e-06
2.745238095238095255e+00,1.890964942630652228e-05,1.031405087366324506e-06
2.746031746031746046e+00,1.933396970816807559e-05,8.133752296522513147e-06
2.746825396825396837e+00,1.846289334625085652e-05,1.266442011292965459e-05
2.747619047619047628e+00,1.634926523243330180e-05,1.432098958945592566e-05
2.748412698412698418e+00,1.321900879868469138e-05,1.341319675346824250e-05
2.749206349206349209e+00,9.429537567325786340e-06,1.054945697666687344e-05
2.750000000000000000e+00,5.405174282618870251e-06,6.354265329567547013e-06
2.750793650793650791e+00,1.566049448298975664e-06,1.320404346985056523e-06
2.751587301587301582e+00,-1.734868553526356929e-06,-4.188338590097180728e-06
2.752380952380952372e+00,-4.257039754523342764e-06,-9.847083220175517756e-06
2.753174603174603163e+00,-5.895550092934925053e-06,-1.528262373060788369e-05
2.753968253968253954e+00,-6.681609689483928137e-06,-2.004816509392384112e-05
2.754761904761904745e+00,-6.761881559990778807e-06,-2.366459169406132023e-05
2.755555555555555536e+00,-6.359929764701905556e-06,-2.569829674164877389e-05
2.756349206349206327e+00,-5.725868229119055928e-06,-2.584548973711651580e-05
2.757142857142857117e+00,-5.083890771361078520e-06,-2.400815489733227676e-05
2.757936507936507908e+00,-4.589542696563397758e-06,-2.035130498095878045e-05
2.758730158730158699e+00,-4.307184149022060148e-06,-1.531990751202897847e-05
2.759523809523809490e+00,-4.212872051045411427e-06,-9.587730256109046361e-06
2.760317460317460281e+00,-4.220492072903821968e-06,-3.930350442379814763e-06
2.761111111111111072e+00,-4.221807354983103880e-06,9.463715850668819355e-07
2.761904761904761862e+00,-4.126589055021194685e-06,4.562572645323950217e-06
2.762698412698412653e+00,-3.889241716572910310e-06,6.749516197441374171e-06
2.763492063492063444e+00,-3.514108193886873481e-06,7.640544114031706653e-06
2.764285714285714235e+00,-3.040957141910089090e-06,7.585253828739811963e-06
2.765079365079365026e+00,-2.520404718424052651e-06,7.029283905921068854e-06
2.765873015873015817e+00,-1.991798835931086400e-06,6.401870550084221083e-06
2.766666666666666607e+00,-1.472546109641448265e-06,6.036228866219502033e-06
2.767460317460317398e+00,-9.609998119638504823e-07,6.129602661726753376e-06
2.768253968253968189e+00,-4.488278445362130332e-07,6.739199897647788502e-06
2.769047619047618980e+00,6.443823351526890478e-08,7.806189288624694429e-06
2.769841269841269771e+00,5.617297465511444003e-07,9.198671584897855728e-06
2.770634920634920562e+00,1.007676509030434658e-06,1.076384767241254009e-05
2.771428571428571352e+00,1.356632601349329785e-06,1.237854977266325546e-05
2.772222222222222143e+00,1.566117734995916229e-06,1.398557888664123638e-05
2.773015873015872934e+00,1.611077938793732270e-06,1.560186785291823742e-05
2.773809523809523725e+00,1.494886877522511558e-06,1.728632644539052210e-05
2.774603174603174516e+00,1.254370253142494652e-06,1.906455141589492505e-05
2.775396825396825307e+00,9.577708222085039330e-07,2.082606448715393553e-05
2.776190476190476097e+00,6.960739964724373928e-07,2.223138912227047838e-05
2.776984126984126888e+00,5.689601254557519643e-07,2.267864843228427563e-05
2.777777777777777679e+00,6.668368653913284978e-07,2.137197649227103144e-05
2.778571428571428470e+00,1.050766241066599661e-06,1.750417148019361473e-05
2.779365079365079261e+00,1.733261940291614803e-06,1.052167908161708999e-05
2.780158730158730052e+00,2.664359654885117063e-06,4.017227599259357895e-07
2.780952380952380842e+00,3.727977207779339491e-06,-1.214347276098539254e-05
2.781746031746031633e+00,4.752841729057358225e-06,-2.561791392752047400e-05
2.782539682539682424e+00,5.540044467735385482e-06,-3.791773042318992540e-05
2.783333333333333215e+00,5.905317100438526543e-06,-4.675173302893779499e-05
2.784126984126984006e+00,5.728350956515664810e-06,-5.022592576147314440e-05
2.784920634920634797e+00,4.994937346161782419e-06,-4.741035615297009358e-05
2.785714285714285587e+00,3.813581922562295692e-06,-3.868330715518774070e-05
2.786507936507936378e+00,2.391976005540817642e-06,-2.572125052035933318e-05
2.787301587301587169e+00,9.735476405159282922e-07,-1.112778709132202697e-05
2.788095238095237960e+00,-2.454110734420091614e-07,2.186771913355914394e-06
2.788888888888888751e+00,-1.185094259297198580e-06,1.169233722997900926e-05
2.789682539682539542e+00,-1.909672697155884201e-06,1.580509776458637934e-05
2.790476190476190332e+00,-2.602806795241717864e-06,1.419971091457029221e-05
2.791269841269841123e+00,-3.501125726127430779e-06,7.817485095364608660e-06
2.792063492063491914e+00,-4.808223226942098156e-06,-1.400953382667437499e-06
2.792857142857142705e+00,-6.615073504154922339e-06,-1.097472491355797722e-05
2.793650793650793496e+00,-8.849414998456036518e-06,-1.842370949309303632e-05
2.794444444444444287e+00,-1.126881698235418215e-05,-2.178227321470204827e-05
2.795238095238095077e+00,-1.350059622647319796e-05,-1.999381576941419131e-05
2.796031746031745868e+00,-1.511774644267537815e-05,-1.311757402492501185e-05
2.796825396825396659e+00,-1.572781303698481372e-05,-2.306008111290272597e-06
2.797619047619047450e+00,-1.504780335525977372e-05,1.045195279581805004e-05
2.798412698412698241e+00,-1.294652221367167812e-05,2.277542013697423005e-05
2.799206349206349032e+00,-9.452298191832273410e-06,3.242262227397628004e-05
2.799999999999999822e+00,-4.739490972724582446e-06,3.777375436954511471e-05
2.800793650793650613e+00,8.871375042091440153e-07,3.814077734436534728e-05
2.801587301587301404e+00,6.998547356268668093e-06,3.383358445914664723e-05
2.802380952380952195e+00,1.304328187893109062e-05,2.598843267776591252e-05
2.803174603174602986e+00,1.836603775398005020e-05,1.623286585535921943e-05
2.803968253968253777e+00,2.226681459539341429e-05,6.297029728492964989e-06
2.804761904761904567e+00,2.411028443126702985e-05,-2.324850308783662728e-06
2.805555555555555358e+00,2.346934322875239440e-05,-8.597102945925375254e-06
2.806349206349206149e+00,2.026169780742078194e-05,-1.203133420591790652e-05
2.807142857142856940e+00,1.482740290401135793e-05,-1.265999754010721562e-05
2.807936507936507731e+00,7.907483946190500349e-06,-1.093142672215481498e-05
2.808730158730158522e+00,5.163605593604916263e-07,-7.566388353365338532e-06
2.809523809523809312e+00,-6.261328157355690366e-06,-3.412328318099749932e-06
2.810317460317460103e+00,-1.149323361306978470e-05,6.788368604084593521e-07
2.811111111111110894e+00,-1.458044848188150908e-05,3.942031567667833349e-06
2.811904761904761685e+00,-1.535167352877554042e-05,5.771435246793709341e-06
2.812698412698412920e+00,-1.405190140325781331e-05,5.790127422246469223e-06
2.813492063492063711e+00,-1.123734790512062045e-05,3.916123335650803496e-06
2.814285714285714501e+00,-7.612551452075199840e-06,4.019553540981918862e-07
2.815079365079365292e+00,-3.856728042855749482e-06,-4.180749244233534569e-06
2.815873015873016083e+00,-4.832028832588938881e-07,-9.025658284198111389e-06
2.816666666666666874e+00,2.237927323666875716e-06,-1.323612480032479009e-05
2.817460317460317665e+00,4.282154238864877040e-06,-1.600120630742601555e-05
2.818253968253968456e+00,5.804722334499976024e-06,-1.676409461408625366e-05
2.819047619047619246e+00,7.028645979810058220e-06,-1.534274060576821006e-05
2.819841269841270037e+00,8.118541494591696801e-06,-1.197178273979658583e-05
2.820634920634920828e+00,9.075984255290604473e-06,-7.253900924471426015e-06
2.821428571428571619e+00,9.688844205256548958e-06,-2.032823009467583122e-06
2.822222222222222410e+00,9.555372332826905785e-06,2.780022928935425297e-06
2.823015873015873201e+00,8.184141123798663461e-06,6.385496417887503464e-06
2.823809523809523991e+00,5.148299571708607159e-06,8.246968600617256208e-06
2.824603174603174782e+00,2.547694308605692695e-07,8.182559881484546748e-06
2.825396825396825573e+00,-6.318781633188411614e-06,6.381623272365960323e-06
2.826190476190476364e+00,-1.396331927839866330e-05,3.342627648726941363e-06
2.826984126984127155e+00,-2.168459953598897406e-05,-2.501463615366017063e-07
2.827777777777777946e+00,-2.826173915485039007e-05,-3.673786703190027211e-06
2.828571428571428736e+00,-3.249155673903669241e-05,-6.292563110593627708e-06
2.829365079365079527e+00,-3.346246503306216026e-05,-7.630401545148177218e-06
2.830158730158730318e+00,-3.078606288814160014e-05,-7.388206615612770538e-06
2.830952380952381109e+00,-2.471919512846686308e-05,-5.432674266183037174e-06
2.831746031746031900e+00,-1.613527784042589197e-05,-1.791785378807315620e-06
2.832539682539682691e+00,-6.346454738865219655e-06,3.322592461838899984e-06
2.833333333333333481e+00,3.176259332706946245e-06,9.471760955887653706e-06
2.834126984126984272e+00,1.110867568414760770e-05,1.595794209442633513e-05
2.834920634920635063e+00,1.652804326968480679e-05,2.184322774630116849e-05
2.835714285714285854e+00,1.906282317952863258e-05,2.605079315032594805e-05
2.836507936507936645e+00,1.891676566871640380e-05,2.755540716275498163e-05
2.837301587301587436e+00,1.677655923946872566e-05,2.563910450229934092e-05
2.838095238095238226e+00,1.363392121435978074e-05,2.015434008306026483e-05
2.838888888888889017e+00,1.056492099630677902e-05,1.170687051730201233e-05
2.839682539682539808e+00,8.511779723037231972e-06,1.660958655512025391e-06
2.840476190476190599e+00,8.105871488872645200e-06,-8.095596885696145536e-06
2.841269841269841390e+00,9.557128289692461257e-06,-1.560447398959823379e-05
2.842063492063492181e+00,1.261931517624331998e-05,-1.938488045652652663e-05
2.842857142857142971e+00,1.662901900679915871e-05,-1.888993387624542000e-05
2.843650793650793762e+00,2.061197365988843891e-05,-1.469407677242088778e-05
2.844444444444444553e+00,2.344975659449300136e-05,-8.320493938939789864e-06
2.845238095238095344e+00,2.409424078605395430e-05,-1.754148431180184548e-06
2.846031746031746135e+00,2.180151779012349478e-05,3.182451770273398288e-06
2.846825396825396925e+00,1.633733073214252890e-05,5.353604710593048650e-06
2.847619047619047716e+00,8.096327868038520273e-06,4.545473681885381163e-06
2.848412698412698507e+00,-1.911594188013836844e-06,1.357059405946714024e-06
2.849206349206349298e+00,-1.222312559183635535e-05,-3.154821837570179139e-06
2.850000000000000089e+00,-2.120455670607779796e-05,-7.886059544602608431e-06
2.850793650793650880e+00,-2.739020074602972735e-05,-1.197227390096175964e-05
2.851587301587301670e+00,-2.979010226423989686e-05,-1.487061255155076610e-05
2.852380952380952461e+00,-2.808883642805766082e-05,-1.627238031172947546e-05
2.853174603174603252e+00,-2.269101818189422611e-05,-1.595426492195163134e-05
2.853968253968254043e+00,-1.461338826322486524e-05,-1.367530580408111574e-05
2.854761904761904834e+00,-5.259803027938759936e-06,-9.175777002351822437e-06
2.855555555555555625e+00,3.864648815174292239e-06,-2.276631252140785995e-06
2.856349206349206415e+00,1.143870623098347154e-05,6.955348689117897712e-06
2.857142857142857206e+00,1.655172341961680410e-05,1.802139188221469653e-05
2.857936507936507997e+00,1.882801033402653541e-05,2.983586738972297930e-05
2.858730158730158788e+00,1.842834060594441975e-05,4.067426700967924293e-05
2.859523809523809579e+00,1.593965385789145628e-05,4.831064345420233146e-05
2.860317460317460370e+00,1.219274698898291815e-05,5.040441563503420978e-05
2.861111111111111160e+00,8.061755055117395970e-06,4.510682197687649524e-05
2.861904761904761951e+00,4.294025089714279747e-06,3.173259174023411753e-05
2.862698412698412742e+00,1.400822216948920116e-06,1.125222553001546819e-05
2.863492063492063533e+00,-3.816470309883873994e-07,-1.362965185349713705e-05
2.864285714285714324e+00,-1.068807626890034657e-06,-3.891971301572974909e-05
2.865079365079365115e+00,-8.618220019039726491e-07,-6.022377542692353413e-05
2.865873015873015905e+00,-6.494715355400899798e-08,-7.381944718028372095e-05
2.866666666666666696e+00,9.896752031319878186e-07,-7.757100260429960863e-05
2.867460317460317487e+00,1.994019538313872111e-06,-7.139325995897512157e-05
2.868253968253968278e+00,2.689489074894815565e-06,-5.713947123845823797e-05
2.869047619047619069e+00,2.873576069708207438e-06,-3.799718055893158480e-05
2.869841269841269860e+00,2.401793376463976835e-06,-1.762819673239265954e-05
2.870634920634920650e+00,1.196094328011445574e-06,6.707321541272202754e-07
2.871428571428571441e+00,-7.388352342343830558e-07,1.457241990669046020e-05
2.872222222222222232e+00,-3.300543113977703452e-06,2.299094521535452880e-05
2.873015873015873023e+00,-6.287901250256584549e-06,2.603627962246423086e-05
2.873809523809523814e+00,-9.421697607431455120e-06,2.474095021355736428e-05
2.874603174603174605e+00,-1.238396968038957465e-05,2.067167546842591544e-05
2.875396825396825395e+00,-1.486575179917410698e-05,1.552504805009441880e-05
2.876190476190476186e+00,-1.661155147793114541e-05,1.077538979242250725e-05
2.876984126984126977e+00,-1.745207222991041908e-05,7.416552992081800522e-06
2.877777777777777768e+00,-1.732114774564205429e-05,5.828540852298903248e-06
2.878571428571428559e+00,-1.625702970680344074e-05,5.792809052290207944e-06
2.879365079365079350e+00,-1.439147025605876193e-05,6.655270088305801299e-06
2.880158730158730140e+00,-1.193097496975777085e-05,7.591191436746944262e-06
2.880952380952380931e+00,-9.132564272621275392e-06,7.886799340528247190e-06
2.881746031746031722e+00,-6.273772872722043738e-06,7.147070167841829231e-06
2.882539682539682513e+00,-3.616771019229882886e-06,5.373903189408534094e-06
2.883333333333333304e+00,-1.370020568788445032e-06,2.913789406825385601e-06
2.884126984126984095e+00,3.447485841890929176e-07,3.189452638816338752e-07
2.884920634920634885e+00,1.510518169930697493e-06,-1.819378093772927670e-06
2.885714285714285676e+00,2.210519822168155482e-06,-3.019517053900668747e-06
2.886507936507936467e+00,2.600097148993115346e-06,-3.015240034486954699e-06
2.887301587301587258e+00,2.861433689155986155e-06,-1.807413681261283639e-06
2.888095238095238049e+00,3.154274941663926517e-06,3.440442729673291893e-07
2.888888888888888840e+00,3.578410763736344469e-06,2.984794775055935506e-06
2.889682539682539630e+00,4.159895224677572372e-06,5.570319082805523494e-06
2.890476190476190421e+00,4.862709377344970759e-06,7.583470029213451373e-06
2.891269841269841212e+00,5.615757791742449335e-06,8.641633397769901603e-06
2.892063492063492003e+00,6.339311182890400748e-06,8.578535615238405286e-06
2.892857142857142794e+00,6.958966766663501797e-06,7.489640577119868250e-06
2.893650793650793585e+00,7.405530121105895181e-06,5.727912872975758171e-06
2.894444444444444375e+00,7.608812524330271707e-06,3.838319996792572395e-06
2.895238095238095166e+00,7.496813037013320989e-06,2.433140079910802098e-06
2.896031746031745957e+00,7.008146400988588718e-06,2.033128618333799073e-06
2.896825396825396748e+00,6.117405632995441769e-06,2.920316875968082565e-06
2.897619047619047539e+00,4.864430269522327915e-06,5.054057063372067925e-06
2.898412698412698330e+00,3.373337229728358771e-06,8.085368919449662827e-06
2.899206349206349120e+00,1.848551669996348006e-06,1.146838178725745595e-05
2.899999999999999911e+00,5.428851098605427046e-07,1.462709790529465102e-05
2.900793650793650702e+00,-2.965473084745933220e-07,1.711188727628171259e-05
2.901587301587301493e+00,-4.901097315169480355e-07,1.868524050704331211e-05
2.902380952380952284e+00,2.245559807902986832e-08,1.930654055844292167e-05
2.903174603174603075e+00,1.154906718035088938e-06,1.902832354513493633e-05
2.903968253968253865e+00,2.680710179123014372e-06,1.785852228581201538e-05
2.904761904761904656e+00,4.273650417998626725e-06,1.566963413822240018e-05
2.905555555555555447e+00,5.576527889604372982e-06,1.222847526103144424e-05
2.906349206349206238e+00,6.284456716955017617e-06,7.368192276231567335e-06
2.907142857142857029e+00,6.222914255399458089e-06,1.240939705919748802e-06
2.907936507936507819e+00,5.397658384419831697e-06,-5.482284374208649068e-06
2.908730158730158610e+00,3.997518808062216147e-06,-1.160856041539135060e-05
2.909523809523809401e+00,2.343483439168154939e-06,-1.568880881715666863e-05
2.910317460317460192e+00,7.954213971728736510e-07,-1.649949948286962478e-05
2.911111111111110983e+00,-3.558080381973895250e-07,-1.357253369329181153e-05
2.911904761904761774e+00,-9.759454260542464039e-07,-7.559777096995849809e-06
2.912698412698412564e+00,-1.126053053457388433e-06,-2.642350365400123906e-07
2.913492063492063355e+00,-1.041271314588183922e-06,5.716821597390449516e-06
2.914285714285714146e+00,-1.058803659061283644e-06,7.660356066868414642e-06
2.915079365079364937e+00,-1.518709290652839835e-06,3.517143844025443574e-06
2.915873015873015728e+00,-2.665734442132130736e-06,-7.391906813800892893e-06
2.916666666666666519e+00,-4.576470560101472083e-06,-2.400867258945602791e-05
2.917460317460317309e+00,-7.126548631177133425e-06,-4.364522838047231592e-05
2.918253968253968100e+00,-1.000101759987938838e-05,-6.256576706009157299e-05
2.919047619047618891e+00,-1.274186483975651982e-05,-7.688163078818073353e-05
2.919841269841269682e+00,-1.482248788983053229e-05,-8.349339318501749823e-05
2.920634920634920473e+00,-1.573865323995643156e-05,-8.081206351602441510e-05
2.921428571428571264e+00,-1.510560582243298969e-05,-6.908033836793020131e-05
2.922222222222222054e+00,-1.274857884091459792e-05,-5.024324866596555843e-05
2.923015873015872845e+00,-8.768651174142495211e-06,-2.743572409043567277e-05
2.923809523809523636e+00,-3.561798123957798180e-06,-4.238092541654172935e-06
2.924603174603174427e+00,2.226674206251706458e-06,1.610476332759713537e-05
2.925396825396825218e+00,7.813719247473790717e-06,3.130583119486705050e-05
2.926190476190476009e+00,1.243462877874371560e-05,4.036530455178211264e-05
2.926984126984126799e+00,1.550371723382854946e-05,4.357875561765090297e-05
2.927777777777777590e+00,1.673461495231063056e-05,4.229345403568501529e-05
2.928571428571428381e+00,1.618538145223671535e-05,3.851523928562840043e-05
2.929365079365079172e+00,1.421529015504634885e-05,3.443999558850531387e-05
2.930158730158729963e+00,1.136559364788959848e-05,3.195373012040870900e-05
2.930952380952380754e+00,8.198202092580436198e-06,3.216704049045316581e-05
2.931746031746031544e+00,5.139276530245572915e-06,3.510560830705148982e-05
2.932539682539682335e+00,2.376314525424603725e-06,3.968985773655873267e-05
2.933333333333333126e+00,-1.557888553762686810e-07,4.405556132818195196e-05
2.934126984126983917e+00,-2.692163194732833351e-06,4.613462556349927178e-05
2.934920634920634708e+00,-5.486045327973881494e-06,4.431464850194545872e-05
2.935714285714285499e+00,-8.641778486302937194e-06,3.797025689913922691e-05
2.936507936507936289e+00,-1.199439018625026739e-05,2.770120951846542429e-05
2.937301587301587080e+00,-1.508219540918303700e-05,1.520168839843468558e-05
2.938095238095238315e+00,-1.722767509696157860e-05,2.800595258913996700e-06
2.938888888888889106e+00,-1.770710788215908957e-05,-7.182238732683275144e-06
2.939682539682539897e+00,-1.596328100086236574e-05,-1.306553009614516409e-05
2.940476190476190688e+00,-1.180439709226504767e-05,-1.423893131190820390e-05
2.941269841269841478e+00,-5.534566773145371163e-06,-1.128548412062233012e-05
2.942063492063492269e+00,2.027859624625941004e-06,-5.775524853859669262e-06
2.942857142857143060e+00,9.668910712811813930e-06,1.955596934318217212e-07
2.943650793650793851e+00,1.602706880359983893e-05,4.586422825241370443e-06
2.944444444444444642e+00,1.991768882511945739e-05,5.939506609908639553e-06
2.945238095238095433e+00,2.063855160645390469e-05,3.715987440025857635e-06
2.946031746031746223e+00,1.815056626433057910e-05,-1.647055863913149541e-06
2.946825396825397014e+00,1.306436248989880911e-05,-8.953683105846882542e-06
2.947619047619047805e+00,6.435706219988421239e-06,-1.665119694253816159e-05
2.948412698412698596e+00,-5.534143191647329006e-07,-2.327370360571359804e-05
2.949206349206349387e+00,-6.909401457162646381e-06,-2.778579839806639162e-05
2.950000000000000178e+00,-1.202554659769273048e-05,-2.974383173509372437e-05
2.950793650793650968e+00,-1.570214432185701621e-05,-2.927252626544491547e-05
2.951587301587301759e+00,-1.799580255743165772e-05,-2.691156377128072784e-05
2.952380952380952550e+00,-1.896949386479515642e-05,-2.340168734461463735e-05
2.953174603174603341e+00,-1.845405382982821205e-05,-1.946833578887670899e-05
2.953968253968254132e+00,-1.593585784580208985e-05,-1.564628470898811775e-05
2.954761904761904923e+00,-1.064974894526652131e-05,-1.217825883321549026e-05
2.955555555555555713e+00,-1.885590390182850985e-06,-9.006483468537268590e-06
2.956349206349206504e+00,1.056920565781793910e-05,-5.853719006926013770e-06
2.957142857142857295e+00,2.599983240840988380e-05,-2.366696139263551132e-06
2.957936507936508086e+00,4.252606396592185960e-05,1.717547968246257900e-06
2.958730158730158877e+00,5.721278166651534231e-05,6.420154251317057265e-06
2.959523809523809668e+00,6.660274221905310144e-05,1.141591262604960659e-05
2.960317460317460458e+00,6.759905627275250432e-05,1.600865191029660889e-05
2.961111111111111249e+00,5.844955260998734709e-05,1.922049278402348241e-05
2.961904761904762040e+00,3.947153077837855367e-05,2.001023731554235288e-05
2.962698412698412831e+00,1.320072637178979950e-05,1.758688625299499332e-05
2.963492063492063622e+00,-1.613533496016988865e-05,1.172411285287429443e-05
2.964285714285714413e+00,-4.364068388323509199e-05,2.953112963978182718e-06
2.965079365079365203e+00,-6.490734542207918494e-05,-7.456361832759829126e-06
2.965873015873015994e+00,-7.693696712980192603e-05,-1.773657523464431540e-05
2.966666666666666785e+00,-7.860250189732252094e-05,-2.600981658045597138e-05
2.967460317460317576e+00,-7.061441990834959931e-05,-3.070323958572322991e-05
2.968253968253968367e+00,-5.510642880936226964e-05,-3.087462210482285239e-05
2.969047619047619158e+00,-3.502910050920177745e-05,-2.637657159017981289e-05
2.969841269841269948e+00,-1.353645656639180875e-05,-1.784392894111245316e-05
2.970634920634920739e+00,6.505825749493789452e-06,-6.536322299533428417e-06
2.971428571428571530e+00,2.283606359254382125e-05,5.907301245499118750e-06
2.972222222222222321e+00,3.394253311045024958e-05,1.774134767937924601e-05
2.973015873015873112e+00,3.907992589618981323e-05,2.736163382302312007e-05
2.973809523809523903e+00,3.820511927066854124e-05,3.349281088947588404e-05
2.974603174603174693e+00,3.187428600107668301e-05,3.529978137628623337e-05
2.975396825396825484e+00,2.113007806337592940e-05,3.243262587107811218e-05
2.976190476190476275e+00,7.392681722899592129e-06,2.503724989929905306e-05
2.976984126984127066e+00,-7.646200890784136730e-06,1.376841705741399721e-05
2.977777777777777857e+00,-2.213958934958759096e-05,-1.855450632426078667e-07
2.978571428571428648e+00,-3.422901771169421293e-05,-1.510617630525940407e-05
2.979365079365079438e+00,-4.222332480112869980e-05,-2.885065519082557426e-05
2.980158730158730229e+00,-4.479738776305355755e-05,-3.911828652647642127e-05
2.980952380952381020e+00,-4.117483392864748669e-05,-4.386739792356855191e-05
2.981746031746031811e+00,-3.125729546457502292e-05,-4.178720596641641256e-05
2.982539682539682602e+00,-1.568299673852081456e-05,-3.267873470863477274e-05
2.983333333333333393e+00,4.180428061828794495e-06,-1.761336581661807516e-05
2.984126984126984183e+00,2.630188470033814624e-05,1.192859001898320241e-06
2.984920634920634974e+00,4.812146106998108617e-05,2.076479320412768866e-05
2.985714285714285765e+00,6.677769888524881449e-05,3.792269302303598544e-05
2.986507936507936556e+00,7.944478460149047435e-05,4.988314803630702524e-05
2.987301587301587347e+00,8.376973244283452314e-05,5.478331412685176878e-05
2.988095238095238138e+00,7.835752908025014690e-05,5.202559645973708083e-05
2.988888888888888928e+00,6.319877840639699781e-05,4.237474625256064587e-05
2.989682539682539719e+00,3.989025653542427064e-05,2.778684085096778028e-05
2.990476190476190510e+00,1.151072209273814078e-05,1.100503496190136224e-05
2.991269841269841301e+00,-1.788619381746097637e-05,-4.991241870284432194e-06
2.992063492063492092e+00,-4.404886962002436290e-05,-1.756282534977638294e-05
2.992857142857142883e+00,-6.334807323274972951e-05,-2.488687455253984175e-05
2.993650793650793673e+00,-7.340962322814620225e-05,-2.623436210391101716e-05
2.994444444444444464e+00,-7.342597975049664351e-05,-2.200669458472860628e-05
2.995238095238095255e+00,-6.414726980574281864e-05,-1.355325907485990519e-05
2.996031746031746046e+00,-4.764841834868727095e-05,-2.839471519038486853e-06
2.996825396825396837e+00,-2.699064941120960949e-05,7.947007466921927681e-06
2.997619047619047628e+00,-5.853131155818209643e-06,1.677233590184156028e-05
2.998412698412698418e+00,1.185523121680500080e-05,2.205910490612702875e-05
2.999206349206349209e+00,2.243935356301811639e-05,2.288846524482915804e-05
3.000000000000000000e+00,2.295161537804045373e-05,1.909655839767645068e-05
3.000793650793650791e+00,1.180106342006474492e-05,1.126802940420681822e-05
3.001587301587301582e+00,-1.065520712727453373e-05,6.288870739830598065e-07
3.002380952380952372e+00,-4.170666438098915148e-05,-1.115496451090213428e-05
3.003174603174603163e+00,-7.627097760848872241e-05,-2.225118761615267309e-05
3.003968253968253954e+00,-1.074265806066394650e-04,-3.096266422096491817e-05
3.004761904761904745e+00,-1.275444863555085439e-04,-3.600258400854203868e-05
3.005555555555555536e+00,-1.298880038504879222e-04,-3.669779542744799997e-05
3.006349206349206327e+00,-1.103486508032369522e-04,-3.309654928053867894e-05
3.007142857142857117e+00,-6.884392150837148627e-05,-2.596999043426936345e-05
3.007936507936507908e+00,-9.903927082113480327e-06,-1.669564984305975684e-05
3.008730158730158699e+00,5.784846096857274001e-05,-7.013300130677234700e-06
3.009523809523809490e+00,1.233162752878818691e-04,1.329805207757515433e-06
3.010317460317460281e+00,1.753046796803436782e-04,6.978454528673533055e-06
3.011111111111111072e+00,2.050474557789666553e-04,9.306751239141492011e-06
3.011904761904761862e+00,2.081767656189757092e-04,8.585045809968523320e-06
3.012698412698412653e+00,1.855703007917016865e-04,5.912653595237007931e-06
3.013492063492063444e+00,1.428692979980243454e-04,2.917607100231673411e-06
3.014285714285714235e+00,8.889195434132088043e-05,1.284980738668983855e-06
3.015079365079365026e+00,3.347970362274858955e-05,2.224824586290220909e-06
3.015873015873015817e+00,-1.460371336928076531e-05,6.028398815644375443e-06
3.016666666666666607e+00,-4.922948074950261806e-05,1.186746787148190532e-05
3.017460317460317398e+00,-6.766088277110628136e-05,1.793848714229269437e-05
3.018253968253968189e+00,-7.048858352647436665e-05,2.194372820902061404e-05
3.019047619047618980e+00,-6.090316454495113335e-05,2.177999278479433471e-05
3.019841269841269771e+00,-4.357782916537132525e-05,1.622950273922486362e-05
3.020634920634920562e+00,-2.347399921033636985e-05,5.444209272827375083e-06
3.021428571428571352e+00,-4.845122920586933397e-06,-8.926291243768585926e-06
3.022222222222222143e+00,9.383448567781153599e-06,-2.401780055293832629e-05
3.023015873015872934e+00,1.780156862810361253e-05,-3.639077568656469219e-05
3.023809523809523725e+00,2.032123309203257404e-05,-4.286802007626719715e-05
3.024603174603174516e+00,1.773599410644913213e-05,-4.134543865705253351e-05
3.025396825396825307e+00,1.120815706724815261e-05,-3.135063737255704592e-05
3.026190476190476097e+00,1.859999938349023704e-06,-1.420043172585076944e-05
3.026984126984126888e+00,-9.401860869347004800e-06,7.271416361571410875e-06
3.027777777777777679e+00,-2.179620715036619235e-05,2.933234221205582854e-05
3.028571428571428470e+00,-3.440150701662234907e-05,4.815990941501105405e-05
3.029365079365079261e+00,-4.590007444152921886e-05,6.065886289433876052e-05
3.030158730158730052e+00,-5.452437091277253009e-05,6.510761094740568798e-05
3.030952380952380842e+00,-5.830409716250494617e-05,6.148581135943470099e-05
3.031746031746031633e+00,-5.557090834512476906e-05,5.139574367875513172e-05
3.032539682539682424e+00,-4.556247067244873086e-05,3.758246034105229219e-05
3.033333333333333215e+00,-2.891807799761616127e-05,2.316732359436487969e-05
3.034126984126984006e+00,-7.868312123413620320e-06,1.080558207534742223e-05
3.034920634920634797e+00,1.401814865739362922e-05,2.020623193953470617e-06
3.035714285714285587e+00,3.254785010521464859e-05,-3.075527523526680454e-06
3.036507936507936378e+00,4.392316608901242935e-05,-5.592323673765647078e-06
3.037301587301587169e+00,4.576011890439298007e-05,-7.284867679991572854e-06
3.038095238095237960e+00,3.774425338463922858e-05,-9.813721650280595046e-06
3.038888888888888751e+00,2.168037980355997654e-05,-1.411259174174665001e-05
3.039682539682539542e+00,9.326362689063242281e-07,-2.008096702989664052e-05
3.040476190476190332e+00,-2.050380189771520550e-05,-2.668636084143078627e-05
3.041269841269841123e+00,-3.893705617927763012e-05,-3.240659821924408724e-05
3.042063492063491914e+00,-5.161081596586943184e-05,-3.582310252904941111e-05
3.042857142857142705e+00,-5.690611611937039928e-05,-3.613170338994327910e-05
3.043650793650793496e+00,-5.418510020833897214e-05,-3.338327590186397268e-05
3.044444444444444287e+00,-4.348069660040061675e-05,-2.838639881417989451e-05
3.045238095238095077e+00,-2.525857535986514670e-05,-2.234919413979829156e-05
3.046031746031745868e+00,-4.007189269177304192e-07,-1.643933594119322868e-05
3.046825396825396659e+00,2.957655819922602096e-05,-1.144962236993554765e-05
3.047619047619047450e+00,6.219984128495221641e-05,-7.677473698459858276e-06
3.048412698412698241e+00,9.383716787222297503e-05,-5.016986781234825277e-06
3.049206349206349032e+00,1.198545330342222921e-04,-3.179768705573098163e-06
3.049999999999999822e+00,1.352696705439588817e-04,-1.928730109574874179e-06
3.050793650793650613e+00,1.358440680099955394e-04,-1.223332025862320221e-06
3.051587301587301404e+00,1.193174053475799470e-04,-1.223822136916780263e-06
3.052380952380952195e+00,8.633496243822634118e-05,-2.168008996696800067e-06
3.053174603174602986e+00,4.065967749917758672e-05,-4.190624969678206151e-06
3.053968253968253777e+00,-1.149668781601873831e-05,-7.176304802105787282e-06
3.054761904761904567e+00,-6.285793437140231046e-05,-1.071194456427216372e-05
3.055555555555555358e+00,-1.067525354281520484e-04,-1.414824185535865092e-05
3.056349206349206149e+00,-1.385413156463407170e-04,-1.673054935050524142e-05
3.057142857142856940e+00,-1.563760940484380997e-04,-1.774604066627669425e-05
3.057936507936507731e+00,-1.611075460230059582e-04,-1.665427099112742960e-05
3.058730158730158522e+00,-1.554584901847127815e-04,-1.319271318422002389e-05
3.059523809523809312e+00,-1.428154224002965104e-04,-7.454793989370227384e-06
3.060317460317460103e+00,-1.260800628443039650e-04,7.440859355230450542e-08
3.061111111111110894e+00,-1.069445955125334350e-04,8.553082858045531171e-06
3.061904761904761685e+00,-8.576111649731076156e-05,1.691264903969474085e-05
3.062698412698412920e+00,-6.195654156485356449e-05,2.408006502975803027e-05
3.063492063492063711e+00,-3.477773907833626744e-05,2.924897128648211257e-05
3.064285714285714501e+00,-4.076373968266546935e-06,3.211990683575090917e-05
3.065079365079365292e+00,2.914286427159153286e-05,3.301621211475223942e-05
3.065873015873016083e+00,6.260256015813815765e-05,3.280358934783312642e-05
3.066666666666666874e+00,9.311678080649730591e-05,3.259783557244167487e-05
3.067460317460317665e+00,1.173300791450685403e-04,3.332161092892428600e-05
3.068253968253968456e+00,1.325785042499446188e-04,3.524190210611842652e-05
3.069047619047619246e+00,1.375614465597307012e-04,3.765857060842774725e-05
3.069841269841270037e+00,1.325782011016555411e-04,3.889838681955823607e-05
3.070634920634920828e+00,1.192508947193928246e-04,3.668837135759427098e-05
3.071428571428571619e+00,9.985453324555872178e-05,2.885477101866088556e-05
3.072222222222222410e+00,7.652157662515659392e-05,1.416605475168601840e-05
3.073015873015873201e+00,5.062791875321113224e-05,-6.938674837749864971e-06
3.073809523809523991e+00,2.259537959750858749e-05,-3.199286288996077961e-05
3.074603174603174782e+00,-7.801383792407876896e-06,-5.669675185737553291e-05
3.075396825396825573e+00,-4.071094628823584142e-05,-7.570730076051834984e-05
3.076190476190476364e+00,-7.531133447314346122e-05,-8.389955570138728105e-05
3.076984126984127155e+00,-1.090940679656640173e-04,-7.780619517451849447e-05
3.077777777777777946e+00,-1.376722849132269418e-04,-5.682626861172033100e-05
3.078571428571428736e+00,-1.553330448667065262e-04,-2.379384462760384401e-05
3.079365079365079527e+00,-1.563185592950263247e-04,1.535560295042512403e-05
3.080158730158730318e+00,-1.365361186075667022e-04,5.282016342939740815e-05
3.080952380952381109e+00,-9.516451826308245938e-05,8.077578721717980110e-05
3.081746031746031900e+00,-3.556908490749046011e-05,9.332378439116744383e-05
3.082539682539682691e+00,3.487158507959972365e-05,8.797863606886496791e-05
3.083333333333333481e+00,1.060470092967799355e-04,6.625869878221406022e-05
3.084126984126984272e+00,1.671372318760455547e-04,3.320997582560793372e-05
3.084920634920635063e+00,2.087909036749239925e-04,-3.982873764851839573e-06
3.085714285714285854e+00,2.248970192254716634e-04,-3.786638997010778021e-05
3.086507936507936645e+00,2.135939670530187854e-04,-6.250274766684699179e-05
3.087301587301587436e+00,1.774134555060556890e-04,-7.466744435999708978e-05
3.088095238095238226e+00,1.226483428079037496e-04,-7.419497213013058685e-05
3.088888888888889017e+00,5.813564254246316343e-05,-6.350529212449659909e-05
3.089682539682539808e+00,-6.308639993427518450e-06,-4.658030287411019587e-05
3.090476190476190599e+00,-6.154627617141136559e-05,-2.776401717391529871e-05
3.091269841269841390e+00,-1.006058831787318380e-04,-1.073120758947454699e-05
3.092063492063492181e+00,-1.197621742668884592e-04,2.151879803351866165e-06
3.092857142857142971e+00,-1.190085279948697322e-04,1.000722283940571187e-05
3.093650793650793762e+00,-1.018131036273881468e-04,1.323396845200994010e-05
3.094444444444444553e+00,-7.418418199046464289e-05,1.305752448452698516e-05
3.095238095238095344e+00,-4.323507910399030068e-05,1.101087962862596339e-05
3.096031746031746135e+00,-1.558389165991123668e-05,8.492411774338870709e-06
3.096825396825396925e+00,4.013267848926158125e-06,6.485481140751474690e-06
3.097619047619047716e+00,1.345788623634926554e-05,5.457380720177167939e-06
3.098412698412698507e+00,1.337385363872692424e-05,5.404014574042619293e-06
3.099206349206349298e+00,6.510118606083789012e-06,5.986487136957315062e-06
3.100000000000000089e+00,-3.266638392701181203e-06,6.709849228544779370e-06
3.100793650793650880e+00,-1.206555336662368113e-05,7.104884903326552717e-06
3.101587301587301670e+00,-1.687144168428739908e-05,6.880646309478860745e-06
3.102380952380952461e+00,-1.608448823672853643e-05,6.019201772870035797e-06
3.103174603174603252e+00,-9.660344885067111847e-06,4.789466658843524132e-06
3.103968253968254043e+00,1.088372291159193275e-06,3.669299387136582118e-06
3.104761904761904834e+00,1.391398294856002566e-05,3.188559176904237305e-06
3.105555555555555625e+00,2.615612515762248436e-05,3.736915626188538836e-06
3.106349206349206415e+00,3.526408117752063796e-05,5.403412416948146604e-06
3.107142857142857206e+00,3.924699107309857153e-05,7.912649697238760400e-06
3.107936507936507997e+00,3.700002934543101087e-05,1.069057450511742664e-05
3.108730158730158788e+00,2.847061838648743632e-05,1.304393921722091384e-05
3.109523809523809579e+00,1.464978259142560437e-05,1.439272412716504207e-05
3.110317460317460370e+00,-2.603479441839044157e-06,1.447277605847509308e-05
3.111111111111111160e+00,-2.087977109070071851e-05,1.343474265301866344e-05
3.111904761904761951e+00,-3.763662674046295073e-05,1.180079020836721483e-05
3.112698412698412742e+00,-5.064745066170790066e-05,1.028971337619478894e-05
3.113492063492063533e+00,-5.838918588783906330e-05,9.567436847598478347e-06
3.114285714285714324e+00,-6.027699739609669323e-05,1.000650356135538319e-05
3.115079365079365115e+00,-5.669382308983266752e-05,1.153288951815663633e-05
3.115873015873015905e+00,-4.882436227345760308e-05,1.360396770584221477e-05
3.116666666666666696e+00,-3.835426018832697814e-05,1.531663976863993114e-05
3.117460317460317487e+00,-2.711509969714915051e-05,1.561104936156999719e-05
3.118253968253968278e+00,-1.674869640658771056e-05,1.352122024619583507e-05
3.119047619047619069e+00,-8.446263811729880710e-06,8.423898732165013869e-06
3.119841269841269860e+00,-2.798411971874979614e-06,2.412061814650271141e-07
3.120634920634920650e+00,2.298128513484320950e-07,-1.044424981492052529e-05
3.121428571428571441e+00,1.208932326723223975e-06,-2.239864055836628934e-05
3.122222222222222232e+00,1.071145175309088543e-06,-3.389165126780950240e-05
3.123015873015873023e+00,8.933415006153468501e-07,-4.298667831253748445e-05
3.123809523809523814e+00,1.674871963005516185e-06,-4.792201018143136762e-05
3.124603174603174605e+00,4.139777956485328517e-06,-4.751577941990225778e-05
3.125396825396825395e+00,8.588366562766116153e-06,-4.151340965786501065e-05
3.126190476190476186e+00,1.482134332156534261e-05,-3.077995309663086523e-05
3.126984126984126977e+00,2.215359986744624618e-05,-1.723565367464659052e-05
3.127777777777777768e+00,2.951983442414359430e-05,-3.480332074096922211e-06
3.128571428571428559e+00,3.565511385769761968e-05,7.835401442036859823e-06
3.129365079365079350e+00,3.931849281930689362e-05,1.470661821620389433e-05
3.130158730158730140e+00,3.952063412379892919e-05,1.629566139313443570e-05
3.130952380952380931e+00,3.571561355037264379e-05,1.309593241580272106e-05
3.131746031746031722e+00,2.792194800255577529e-05,6.696626242928479061e-06
3.132539682539682513e+00,1.675080740018097488e-05,-7.494894111393669935e-07
3.133333333333333304e+00,3.340713956132771844e-06,-7.167157472862497716e-06
3.134126984126984095e+00,-1.078012840281734681e-05,-1.110466489172685970e-05
3.134920634920634885e+00,-2.387386031574521828e-05,-1.202607143568944392e-05
3.135714285714285676e+00,-3.419607149116605095e-05,-1.028469742347783209e-05
3.136507936507936467e+00,-4.022176245235331500e-05,-6.828384403379801091e-06
3.137301587301587258e+00,-4.089675226011657414e-05,-2.776401719262069236e-06
3.138095238095238049e+00,-3.588785302599048482e-05,9.695801920946211363e-07
3.138888888888888840e+00,-2.575786950175139924e-05,3.963071902531507399e-06
3.139682539682539630e+00,-1.196821244920298444e-05,6.256489326187396483e-06
3.140476190476190421e+00,3.349123181735836964e-06,8.272117442733296246e-06
3.141269841269841212e+00,1.781342584448716902e-05,1.055943990513748899e-05
3.142063492063492003e+00,2.928131786202928290e-05,1.351915060041576997e-05
3.142857142857142794e+00,3.624145187654050668e-05,1.718240176171935792e-05
3.143650793650793585e+00,3.801734281423057411e-05,2.111979049998105151e-05
3.144444444444444375e+00,3.476853028323349218e-05,2.451376009076618672e-05
3.145238095238095166e+00,2.734757538742832708e-05,2.637364019262795073e-05
3.146031746031745957e+00,1.708777221483716364e-05,2.582687387324868929e-05
3.146825396825396748e+00,5.576803317813296238e-06,2.239962708346585277e-05
3.147619047619047539e+00,-5.557277951359736046e-06,1.620714776990367676e-05
3.148412698412698330e+00,-1.484025587115007702e-05,7.998929903657094628e-06
3.149206349206349120e+00,-2.112271866173855348e-05,-9.640942394977188598e-07
3.149999999999999911e+00,-2.371744462652402796e-05,-9.184508436096102250e-06
3.150793650793650702e+00,-2.248312040949235205e-05,-1.529389157072802644e-05
3.151587301587301493e+00,-1.783150355356065444e-05,-1.840507868214001088e-05
3.152380952380952284e+00,-1.064590222960868840e-05,-1.833282115394323304e-05
3.153174603174603075e+00,-2.120778637680400385e-06,-1.559938151326616343e-05
3.153968253968253865e+00,6.445735928045680340e-06,-1.122429474850384935e-05
3.154761904761904656e+00,1.386399558457984384e-05,-6.390660177863726622e-06
3.155555555555555447e+00,1.923073589824406232e-05,-2.129395722301890419e-06
3.156349206349206238e+00,2.204523598702475841e-05,8.626758242059066009e-07
3.157142857142857029e+00,2.224831796188930869e-05,2.237962895963002958e-06
3.157936507936507819e+00,2.017960909687413192e-05,1.905218198275750661e-06
3.158730158730158610e+00,1.646124742344006391e-05,-6.051229528401121019e-08
3.159523809523809401e+00,1.183281093382698048e-05,-3.411228345939167539e-06
3.160317460317460192e+00,6.978786011644698978e-06,-7.611615878349485262e-06
3.161111111111110983e+00,2.397358143108678571e-06,-1.170852640419428423e-05
3.161904761904761774e+00,-1.650710557471443502e-06,-1.432847116979467534e-05
3.162698412698412564e+00,-5.102828549084799636e-06,-1.390671024930493990e-05
3.163492063492063355e+00,-7.991486880215035730e-06,-9.134831278367209473e-06
3.164285714285714146e+00,-1.033052870656942147e-05,5.119717668632901548e-07
3.165079365079364937e+00,-1.204386949926548173e-05,1.436945217925535892e-05
3.165873015873015728e+00,-1.296197149775446749e-05,3.047439340846691230e-05
3.166666666666666519e+00,-1.287420342139834174e-05,4.583338150433681550e-05
3.167460317460317309e+00,-1.160214802137583855e-05,5.704300569838434643e-05
3.168253968253968100e+00,-9.060281532614108862e-06,6.112665760048801710e-05
3.169047619047618891e+00,-5.289093656024840686e-06,5.636866272760359607e-05
3.169841269841269682e+00,-4.662315835566190572e-07,4.290077471085527381e-05
3.170634920634920473e+00,5.089461975080506205e-06,2.284938738923309248e-05
3.171428571428571264e+00,1.091244042821645125e-05,-3.543831391160545175e-08
3.172222222222222054e+00,1.639053344849583638e-05,-2.121097915585724367e-05
3.173015873015872845e+00,2.079041143937411637e-05,-3.644086737938311119e-05
3.173809523809523636e+00,2.332872780785609759e-05,-4.287218812902882678e-05
3.174603174603174427e+00,2.329619717112091717e-05,-3.978326350353138122e-05
3.175396825396825218e+00,2.021988270615319088e-05,-2.878244160242096844e-05
3.176190476190476009e+00,1.402514087153906904e-05,-1.340176667362591232e-05
3.176984126984126799e+00,5.142929567445393349e-06,1.802031193830371210e-06
3.177777777777777590e+00,-5.488135858298118617e-06,1.241056713239026113e-05
3.178571428571428381e+00,-1.654767946804723864e-05,1.528610929164477418e-05
3.179365079365079172e+00,-2.656677957687927688e-05,9.399106788779866613e-06
3.180158730158729963e+00,-3.420828975645035517e-05,-3.902386396386661536e-06
3.180952380952380754e+00,-3.851649438658238109e-05,-2.128652405503244469e-05
3.181746031746031544e+00,-3.906972307133600952e-05,-3.839245257925329044e-05
3.182539682539682335e+00,-3.600246258917123805e-05,-5.105053661341344773e-05
3.183333333333333126e+00,-2.990329982917100046e-05,-5.638852868339672624e-05
3.184126984126983917e+00,-2.163028431728177567e-05,-5.350630752754670762e-05
3.184920634920634708e+00,-1.210864072000911736e-05,-4.356791424698573911e-05
3.185714285714285499e+00,-2.178323811524786933e-06,-2.934800159768113204e-05
3.186507936507936289e+00,7.466370513151293077e-06,-1.441370034866205339e-05
3.187301587301587080e+00,1.625008635383209680e-05,-2.194448778329261427e-06
3.188095238095238315e+00,2.365369092789247035e-05,4.810345425530193767e-06
3.188888888888889106e+00,2.918299549512201447e-05,5.507028722767596255e-06
3.189682539682539897e+00,3.240903145722977985e-05,3.070191146543355138e-07
3.190476190476190688e+00,3.306582029935973860e-05,-9.091336057088232381e-06
3.191269841269841478e+00,3.114914167743589919e-05,-2.011383998672461849e-05
3.192063492063492269e+00,2.695818595160057860e-05,-2.979341079861076290e-05
3.192857142857143060e+00,2.105690468289923197e-05,-3.524866546863858051e-05
3.193650793650793851e+00,1.417364099441921817e-05,-3.412699339642359073e-05
3.194444444444444642e+00,7.078902348617361386e-06,-2.500008833883655894e-05
3.195238095238095433e+00,4.756842970665398429e-07,-7.689138946662161473e-06
3.196031746031746223e+00,-5.082543435639089907e-06,1.653144933556172403e-05
3.196825396825397014e+00,-9.246413944549120313e-06,4.493019333080604743e-05
3.197619047619047805e+00,-1.190070366624015735e-05,7.359742510029878692e-05
3.198412698412698596e+00,-1.316719342749986875e-05,9.804827480375488636e-05
3.199206349206349387e+00,-1.337383145726405219e-05,1.140905388789714481e-04
3.200000000000000178e+00,-1.298680077619454586e-05,1.187592925429266025e-04
3.200793650793650968e+00,-1.251072894652055860e-05,1.110151602618432047e-04
3.201587301587301759e+00,-1.237267160738860872e-05,9.193136736626495613e-05
3.202380952380952550e+00,-1.281489760787222054e-05,6.429287564922046480e-05
3.203174603174603341e+00,-1.382698462721327883e-05,3.179870510277399523e-05
3.203968253968254132e+00,-1.514484642883963888e-05,-1.782706997371468382e-06
3.204761904761904923e+00,-1.632895141614837964e-05,-3.320332234019384386e-05
3.205555555555555713e+00,-1.690684919073426871e-05,-5.996115204889375697e-05
3.206349206349206504e+00,-1.653595965419360475e-05,-8.024695159394654848e-05
3.207142857142857295e+00,-1.512793036622181153e-05,-9.279721272645984618e-05
3.207936507936508086e+00,-1.288690768590727822e-05,-9.683208279506603415e-05
3.208730158730158877e+00,-1.024633033300445822e-05,-9.217029188959447871e-05
3.209523809523809668e+00,-7.726646457291420122e-06,-7.947680695742100586e-05
3.210317460317460458e+00,-5.764453896716000421e-06,-6.046615229728585984e-05
3.211111111111111249e+00,-4.572451385750416974e-06,-3.784369622115675238e-05
3.211904761904762040e+00,-4.076298233197179200e-06,-1.487932744746977139e-05
3.212698412698412831e+00,-3.945061879570376770e-06,5.280316848654258623e-06
3.213492063492063622e+00,-3.700121384779330887e-06,2.029591070478958698e-05
3.214285714285714413e+00,-2.865883299566010749e-06,2.906072547057542816e-05
3.215079365079365203e+00,-1.118778614292857742e-06,3.176055365960381440e-05
3.215873015873015994e+00,1.604228581602258478e-06,2.961698546561954408e-05
3.216666666666666785e+00,5.064942864721899125e-06,2.443301070105277043e-05
3.217460317460317576e+00,8.763454176069229525e-06,1.805970417538021157e-05
3.218253968253968367e+00,1.205258876502876463e-05,1.189414758779770949e-05
3.219047619047619158e+00,1.430232187556091294e-05,6.524447893692022253e-06
3.219841269841269948e+00,1.507235652267799856e-05,1.627924452411294726e-06
3.220634920634920739e+00,1.424541629534808093e-05,-3.826096741073428888e-06
3.221428571428571530e+00,1.208367378298158329e-05,-1.110638312495326979e-05
3.222222222222222321e+00,9.191654441259179196e-06,-2.110574702432476568e-05
3.223015873015873112e+00,6.392144847973300059e-06,-3.375638980747432409e-05
3.223809523809523903e+00,4.541091319856681481e-06,-4.765505882141054172e-05
3.224603174603174693e+00,4.321093815666861546e-06,-6.004632878340492795e-05
3.225396825396825484e+00,6.060171018735544481e-06,-6.724172668919261447e-05
3.226190476190476275e+00,9.622050494161886575e-06,-6.543810760369893353e-05
3.226984126984127066e+00,1.440423442288987568e-05,-5.175424389477314470e-05
3.227777777777777857e+00,1.945774280512954968e-05,-2.518775096000014192e-05
3.228571428571428648e+00,2.370836620921175613e-05,1.281317877147684711e-05
3.229365079365079438e+00,2.622263519903213027e-05,5.833848932313566340e-05
3.230158730158730229e+00,2.643937852841009577e-05,1.055519901317364130e-04
3.230952380952381020e+00,2.429437745943695162e-05,1.476360514031657754e-04
3.231746031746031811e+00,2.020202385990700809e-05,1.779767298049550397e-04
3.232539682539682602e+00,1.490838717089904511e-05,1.914039884132238370e-04
3.233333333333333393e+00,9.271919966833670911e-06,1.852457312940722876e-04
3.234126984126984183e+00,4.044616833137566372e-06,1.599227248099664451e-04
3.234920634920634974e+00,-2.847591956688275466e-07,1.188938081600910145e-04
3.235714285714285765e+00,-3.552703842101107414e-06,6.794944191408572450e-05
