Timestamp,Flexor carpi radialis,Extensor digitorum
2.000000000000000000e+00,-6.629735446298459964e-06,-4.486858923854018794e-05
2.000793650793650791e+00,-3.896425842104971114e-06,-5.535303415706051820e-05
2.001587301587301582e+00,-2.505359935440931906e-07,-5.788783206872252654e-05
2.002380952380952372e+00,3.245211341101707296e-06,-5.237765285177299141e-05
2.003174603174603163e+00,5.416713638968005218e-06,-3.985862002632077590e-05
2.003968253968253954e+00,5.268291400731535939e-06,-2.235985010401937530e-05
2.004761904761904745e+00,2.246142374431445288e-06,-2.625823261664486668e-06
2.005555555555555536e+00,-3.616360054974349148e-06,1.629518323167964157e-05
2.006349206349206327e+00,-1.172020320861117051e-05,3.154460629110439297e-05
2.007142857142857117e+00,-2.107060184784939949e-05,4.093047428498353655e-05
2.007936507936507908e+00,-3.052153572589393890e-05,4.327565293982978925e-05
2.008730158730158699e+00,-3.900607292680113245e-05,3.855962566524114807e-05
2.009523809523809490e+00,-4.568828306260248510e-05,2.784145559509614430e-05
2.010317460317460281e+00,-5.001627021109243719e-05,1.301274571518953280e-05
2.011111111111111072e+00,-5.169686910405271702e-05,-3.542035812969251358e-06
2.011904761904761862e+00,-5.063655148259656934e-05,-1.930752351858209563e-05
2.012698412698412653e+00,-4.689299448762429442e-05,-3.197641950464005767e-05
2.013492063492063444e+00,-4.066068992263153066e-05,-3.974284887403346382e-05
2.014285714285714235e+00,-3.228580144280188699e-05,-4.153618994423505381e-05
2.015079365079365026e+00,-2.228625446292222974e-05,-3.717469730228822389e-05
2.015873015873015817e+00,-1.135048762439685103e-05,-2.740493149650606225e-05
2.016666666666666607e+00,-2.984988274498471407e-07,-1.379147111153635728e-05
2.017460317460317398e+00,9.998186583980768838e-06,1.551716953388947033e-06
2.018253968253968189e+00,1.873124831780675415e-05,1.634450601389069544e-05
2.019047619047618980e+00,2.528936770736144116e-05,2.854536079376105304e-05
2.019841269841269771e+00,2.938228433948582584e-05,3.667279633272654382e-05
2.020634920634920562e+00,3.111386961024761996e-05,3.997519692736700763e-05
2.021428571428571352e+00,3.096383295117225061e-05,3.844269582772943575e-05
2.022222222222222143e+00,2.966012839830699512e-05,3.270618386196408035e-05
2.023015873015872934e+00,2.796353259373949955e-05,2.388494861270280055e-05
2.023809523809523725e+00,2.642621633826508246e-05,1.342561958668753786e-05
2.024603174603174516e+00,2.520760015992619591e-05,2.940828827241413638e-06
2.025396825396825307e+00,2.401975634694344120e-05,-5.968629571999280055e-06
2.026190476190476097e+00,2.223251035817447338e-05,-1.192446855817730730e-05
2.026984126984126888e+00,1.911179283896795387e-05,-1.400644013352341729e-05
2.027777777777777679e+00,1.411594249601288487e-05,-1.196834959268489702e-05
2.028571428571428470e+00,7.151101859479953529e-06,-6.362872569763933524e-06
2.029365079365079261e+00,-1.303376177877032278e-06,1.493481008131303137e-06
2.030158730158730052e+00,-1.024756856891077414e-05,9.744786171717207556e-06
2.030952380952380842e+00,-1.837917578932450117e-05,1.637895358858196669e-05
2.031746031746031633e+00,-2.440536128575272282e-05,1.968308696419950781e-05
2.032539682539682424e+00,-2.734340319140326058e-05,1.865284583147870350e-05
2.033333333333333215e+00,-2.671611481320448238e-05,1.324246901363625217e-05
2.034126984126984006e+00,-2.259691965200699834e-05,4.383734668835099979e-06
2.034920634920634797e+00,-1.551956342253062052e-05,-6.230970947328931584e-06
2.035714285714285587e+00,-6.310153262180355577e-06,-1.653830401166258131e-05
2.036507936507936378e+00,4.088371216991659043e-06,-2.456152456693048240e-05
2.037301587301587169e+00,1.474388114966104622e-05,-2.882820501699087773e-05
2.038095238095237960e+00,2.479032930209742260e-05,-2.866454467202760227e-05
2.038888888888888751e+00,3.342159394323299934e-05,-2.431389455668052363e-05
2.039682539682539542e+00,3.986341362875909323e-05,-1.685794503487794338e-05
2.040476190476190332e+00,4.337371199454054124e-05,-7.955948873818787862e-06
2.041269841269841123e+00,4.330735081446379994e-05,5.392470116163292549e-07
2.042063492063491914e+00,3.924578269709389931e-05,6.995378682700940450e-06
2.042857142857142705e+00,3.115235311214141749e-05,1.034472868217867133e-05
2.043650793650793496e+00,1.949130634216261548e-05,1.027901770494278158e-05
2.044444444444444287e+00,5.254412779864062460e-06,7.255881125684978913e-06
2.045238095238095077e+00,-1.013014371470278469e-05,2.323171381094444065e-06
2.046031746031745868e+00,-2.499132616246891548e-05,-3.189290014598217963e-06
2.046825396825396659e+00,-3.766370970608454508e-05,-8.027950071936460023e-06
2.047619047619047450e+00,-4.673234428557572853e-05,-1.132860369979691339e-05
2.048412698412698241e+00,-5.122633646368740377e-05,-1.280334371852401468e-05
2.049206349206349032e+00,-5.073561273943023408e-05,-1.275656140634311012e-05
2.049999999999999822e+00,-4.544674274826436007e-05,-1.192877177579590502e-05
2.050793650793650613e+00,-3.610787706395503032e-05,-1.120717061344192594e-05
2.051587301587301404e+00,-2.393801725093151165e-05,-1.127896573226069866e-05
2.052380952380952195e+00,-1.049292737578009176e-05,-1.233653371960489544e-05
2.053174603174602986e+00,2.506442432955901269e-06,-1.395225439434497340e-05
2.053968253968253777e+00,1.337999751954656305e-05,-1.519731353979113581e-05
2.054761904761904567e+00,2.071980933262196337e-05,-1.498362033878577539e-05
2.055555555555555358e+00,2.362158074236892768e-05,-1.250685894384992333e-05
2.056349206349206149e+00,2.187080869850861607e-05,-7.618856258841633486e-06
2.057142857142856940e+00,1.602548662502361888e-05,-9.822664676433639967e-07
2.057936507936507731e+00,7.346593775228185665e-06,6.059257094445243877e-06
2.058730158730158522e+00,-2.434955812331248105e-06,1.186395142479301449e-05
2.059523809523809312e+00,-1.147190885887481305e-05,1.501309565099146264e-05
2.060317460317460103e+00,-1.818492028996850294e-05,1.480946483064636740e-05
2.061111111111110894e+00,-2.157129972189124106e-05,1.159201873047969351e-05
2.061904761904761685e+00,-2.135515258286882652e-05,6.747593192724467562e-06
2.062698412698412920e+00,-1.794853047550177711e-05,2.376912313025996864e-06
2.063492063492063711e+00,-1.225369302607403745e-05,6.777027765340775651e-07
2.064285714285714501e+00,-5.381720158037533865e-06,3.220717390554429345e-06
2.065079365079365292e+00,1.621847439466691128e-06,1.036503807316908833e-05
2.065873015873016083e+00,7.969521651233273267e-06,2.103504425935291111e-05
2.066666666666666874e+00,1.320584926754686304e-05,3.295623319295852175e-05
2.067460317460317665e+00,1.717116711988337052e-05,4.327510156400866286e-05
2.068253968253968456e+00,1.989826036551782325e-05,4.935172066572157250e-05
2.069047619047619246e+00,2.149775238860767234e-05,4.946916815715622612e-05
2.069841269841270037e+00,2.207748127183352139e-05,4.325399932754527596e-05
2.070634920634920828e+00,2.171618741245836192e-05,3.171021696785071532e-05
2.071428571428571619e+00,2.048498348443067663e-05,1.689275174186319310e-05
2.072222222222222410e+00,1.849140878128470734e-05,1.348101269011020434e-06
2.073015873015873201e+00,1.591578003936471063e-05,-1.250031972852297506e-05
2.073809523809523991e+00,1.301794797988444215e-05,-2.285824922727962581e-05
2.074603174603174782e+00,1.010884607497627296e-05,-2.885601866254569725e-05
2.075396825396825573e+00,7.496442656176492514e-06,-3.060681772252957971e-05
2.076190476190476364e+00,5.422811780774849590e-06,-2.905828285267992960e-05
2.076984126984127155e+00,4.007674508465422622e-06,-2.569420104101099561e-05
2.077777777777777946e+00,3.209484128868278184e-06,-2.214805711727218721e-05
2.078571428571428736e+00,2.813078577800728105e-06,-1.979252746388494700e-05
2.079365079365079527e+00,2.452515625156096796e-06,-1.937990488070647256e-05
2.080158730158730318e+00,1.673753902321351842e-06,-2.081935791787733789e-05
2.080952380952381109e+00,3.134922129722189512e-08,-2.316581732123687681e-05
2.081746031746031900e+00,-2.799541578143134480e-06,-2.485061024897489219e-05
2.082539682539682691e+00,-6.922307545065530214e-06,-2.411932869354849475e-05
2.083333333333333481e+00,-1.215504221567587048e-05,-1.958083971071555824e-05
2.084126984126984272e+00,-1.802261691629868668e-05,-1.072526601969860410e-05
2.084920634920635063e+00,-2.381272612101658075e-05,1.752386813094118983e-06
2.085714285714285854e+00,-2.869056140328194685e-05,1.596152774946341867e-05
2.086507936507936645e+00,-3.185300361584785699e-05,2.920938594583123024e-05
2.087301587301587436e+00,-3.269227201301641166e-05,3.869819158317949092e-05
2.088095238095238226e+00,-3.093297582903219107e-05,4.232493842509981797e-05
2.088888888888889017e+00,-2.670670189341096474e-05,3.933038255093961364e-05
2.089682539682539808e+00,-2.053729898228762759e-05,3.058688895775610886e-05
2.090476190476190599e+00,-1.323068839842893904e-05,1.843221498860402602e-05
2.091269841269841390e+00,-5.692343931589163847e-06,6.094368065165982173e-06
2.092063492063492181e+00,1.277492255928468403e-06,-3.137801522193259105e-06
2.092857142857142971e+00,7.149272043441474220e-06,-6.781174027671681341e-06
2.093650793650793762e+00,1.173943812862837735e-05,-3.831468905528572953e-06
2.094444444444444553e+00,1.517477419083041219e-05,4.945942993272498064e-06
2.095238095238095344e+00,1.776311618187831934e-05,1.719675805880670861e-05
2.096031746031746135e+00,1.981925165421247767e-05,2.958370050702097213e-05
2.096825396825396925e+00,2.150825108556560274e-05,3.864500952240251320e-05
2.097619047619047716e+00,2.275951735805234073e-05,4.166219912765905235e-05
2.098412698412698507e+00,2.327737320369605990e-05,3.730398398132758915e-05
2.099206349206349298e+00,2.263901793714952901e-05,2.589418515433637152e-05
2.100000000000000089e+00,2.044266845488031041e-05,9.266768561106460749e-06
2.100793650793650880e+00,1.645810951487706325e-05,-9.719736888647870370e-06
2.101587301587301670e+00,1.073857235592733820e-05,-2.786251727576578865e-05
2.102380952380952461e+00,3.668244769769116893e-06,-4.231761926560564067e-05
2.103174603174603252e+00,-4.064194753923669003e-06,-5.117068311741202223e-05
2.103968253968254043e+00,-1.156116585784873090e-05,-5.376346198492527048e-05
2.104761904761904834e+00,-1.786345644024752474e-05,-5.072219537054962639e-05
2.105555555555555625e+00,-2.212307231719712686e-05,-4.369990768415592876e-05
2.106349206349206415e+00,-2.377196880006791246e-05,-3.491028977065909676e-05
2.107142857142857206e+00,-2.265555831099941433e-05,-2.657988195037076093e-05
2.107936507936507997e+00,-1.909842079781461522e-05,-2.045984170338920269e-05
2.108730158730158788e+00,-1.387284585347577308e-05,-1.750939677304632811e-05
2.109523809523809579e+00,-8.057241366217496927e-06,-1.779814359966025051e-05
2.110317460317460370e+00,-2.802762732363333508e-06,-2.060101886733150978e-05
2.111111111111111160e+00,9.382681182071376183e-07,-2.461471957691339698e-05
2.111904761904761951e+00,2.647563128326292698e-06,-2.822928265804307973e-05
2.112698412698412742e+00,2.370578753886110937e-06,-2.982658768942143842e-05
2.113492063492063533e+00,7.015184048323919086e-07,-2.809998967373203427e-05
2.114285714285714324e+00,-1.374441811011982415e-06,-2.236249312471978978e-05
2.115079365079365115e+00,-2.741362998191857146e-06,-1.275971960424057976e-05
2.115873015873015905e+00,-2.448106446557537621e-06,-2.921870449674836746e-07
2.116666666666666696e+00,3.793199875448824947e-08,1.338844811227422399e-05
2.117460317460317487e+00,4.686651528666525871e-06,2.634878914770008687e-05
2.118253968253968278e+00,1.090998301719821530e-05,3.678379772039823198e-05
2.119047619047619069e+00,1.771365727995158058e-05,4.334556000245568175e-05
2.119841269841269860e+00,2.395107569936770817e-05,4.532503134758803572e-05
2.120634920634920650e+00,2.860274555198885711e-05,4.268890626935775142e-05
2.121428571428571441e+00,3.099676092849188726e-05,3.601473162401772803e-05
2.122222222222222232e+00,3.090731677585785810e-05,2.636851205897399085e-05
2.123015873015873023e+00,2.851328478658447126e-05,1.514632628687076596e-05
2.123809523809523814e+00,2.424978959701248332e-05,3.882959808183858482e-06
2.124603174603174605e+00,1.862126151199914879e-05,-5.966471901674459299e-06
2.125396825396825395e+00,1.205072634382026420e-05,-1.324544825277500420e-05
2.126190476190476186e+00,4.817063672922115161e-06,-1.726990769042502691e-05
2.126984126984126977e+00,-2.908299020115985923e-06,-1.791166718007173344e-05
2.127777777777777768e+00,-1.095464071067980385e-05,-1.556910915229775145e-05
2.128571428571428559e+00,-1.903175704491391390e-05,-1.103640312156281920e-05
2.129365079365079350e+00,-2.665796672208236862e-05,-5.309387244353107958e-06
2.130158730158730140e+00,-3.317912153992822274e-05,6.226377780825607335e-07
2.130952380952380931e+00,-3.788422619470081272e-05,5.952253266394971723e-06
2.131746031746031722e+00,-4.018015921494521502e-05,1.015957280634712419e-05
2.132539682539682513e+00,-3.975705245027520793e-05,1.302850674238584041e-05
2.133333333333333304e+00,-3.667368493755839796e-05,1.457892572270202959e-05
2.134126984126984095e+00,-3.132199958906807372e-05,1.494680207857320319e-05
2.134920634920634885e+00,-2.427787701660765693e-05,1.426136629387746511e-05
2.135714285714285676e+00,-1.609089144404193941e-05,1.256725581926890742e-05
2.136507936507936467e+00,-7.092842987797812987e-06,9.820445414642278636e-06
2.137301587301587258e+00,2.694523660970946303e-06,5.956256436999647097e-06
2.138095238095238049e+00,1.349915070973976649e-05,9.980315642981269633e-07
2.138888888888888840e+00,2.558114656015910760e-05,-4.840418659846054930e-06
2.139682539682539630e+00,3.891210787531941822e-05,-1.110013753061210943e-05
2.140476190476190421e+00,5.285629556135400665e-05,-1.709128988717579026e-05
2.141269841269841212e+00,6.598420631685042838e-05,-2.197501308053211255e-05
2.142063492063492003e+00,7.613330450853492148e-05,-2.489500935001104861e-05
2.142857142857142794e+00,8.076659282744036873e-05,-2.513109420694310616e-05
2.143650793650793585e+00,7.757934983804532978e-05,-2.224337612927650506e-05
2.144444444444444375e+00,6.520204795835385803e-05,-1.618057258103436846e-05
2.145238095238095166e+00,4.378651618873494829e-05,-7.336667331012342716e-06
2.146031746031745957e+00,1.527180271498246287e-05,3.451632785838731961e-06
2.146825396825396748e+00,-1.679445145996345009e-05,1.497274277676644112e-05
2.147619047619047539e+00,-4.787930900153198997e-05,2.577889887114866236e-05
2.148412698412698330e+00,-7.339992061883880497e-05,3.439169576333160210e-05
2.149206349206349120e+00,-8.973438724901467984e-05,3.954830032415611617e-05
2.149999999999999911e+00,-9.503118911441605417e-05,4.043589411815548589e-05
2.150793650793650702e+00,-8.958590979160207125e-05,3.684953571746017183e-05
2.151587301587301493e+00,-7.567878340119710604e-05,2.922500077229645430e-05
2.152380952380952284e+00,-5.692897729505147275e-05,1.853974443343337452e-05
2.153174603174603075e+00,-3.736184561874218084e-05,6.120068362921564511e-06
2.153968253968253865e+00,-2.045534347971645722e-05,-6.583160132345930516e-06
2.154761904761904656e+00,-8.415316360685579761e-06,-1.819431659562407161e-05
2.155555555555555447e+00,-1.843905380656772481e-06,-2.756067923910236902e-05
2.156349206349206238e+00,1.532483624553737928e-07,-3.384946301534377198e-05
2.157142857142857029e+00,-5.086326559877593899e-07,-3.660800221282151183e-05
2.157936507936507819e+00,-1.579489720035276441e-06,-3.579380520110798648e-05
2.158730158730158610e+00,-1.170761076831931748e-06,-3.176677945242843020e-05
2.159523809523809401e+00,1.725454828306495986e-06,-2.522817235495040697e-05
2.160317460317460192e+00,7.019364641999516702e-06,-1.709678583217599714e-05
2.161111111111110983e+00,1.364203832915814827e-05,-8.332545100278512869e-06
2.161904761904761774e+00,1.994126940572850748e-05,2.549905542361336549e-07
2.162698412698412564e+00,2.422845537625187637e-05,8.151820025407964670e-06
2.163492063492063355e+00,2.531952528070835397e-05,1.517533468319711042e-05
2.164285714285714146e+00,2.292323163864464370e-05,2.137286019509077365e-05
2.165079365079364937e+00,1.777611489781449257e-05,2.681869902128092539e-05
2.165873015873015728e+00,1.149161416119582664e-05,3.140240567190995919e-05
2.166666666666666519e+00,6.163009646826798767e-06,3.471499926642007770e-05
2.167460317460317309e+00,3.819212431722454401e-06,3.610264351752002056e-05
2.168253968253968100e+00,5.867311166903008043e-06,3.488763395065499199e-05
2.169047619047618891e+00,1.266090394038414266e-05,3.068146867216481815e-05
2.169841269841269682e+00,2.330841722576778414e-05,2.366262451583521972e-05
2.170634920634920473e+00,3.578462780430548501e-05,1.469026951980598896e-05
2.171428571428571264e+00,4.733900708516522015e-05,5.185865420453888644e-06
2.172222222222222054e+00,5.511921169806915493e-05,-3.188228733857288999e-06
2.173015873015872845e+00,5.686597457531974948e-05,-8.943806886241621675e-06
2.173809523809523636e+00,5.150640007137848259e-05,-1.114174263513783529e-05
2.174603174603174427e+00,3.948699956353148786e-05,-9.620256870427764835e-06
2.175396825396825218e+00,2.274387302582853198e-05,-5.020322816189021962e-06
2.176190476190476009e+00,4.295170620221555568e-06,1.392453284827151343e-06
2.176984126984126799e+00,-1.245650793755588440e-05,8.053037216409305086e-06
2.177777777777777590e+00,-2.453537985092546495e-05,1.346640052989787446e-05
2.178571428571428381e+00,-3.010150946065949279e-05,1.650775921587087239e-05
2.179365079365079172e+00,-2.887170857426555842e-05,1.657722192205494870e-05
2.180158730158729963e+00,-2.215358176726614579e-05,1.359636774295742680e-05
2.180952380952380754e+00,-1.250134173982862772e-05,7.889004126302733935e-06
2.181746031746031544e+00,-3.092572307032992213e-06,1.332663620278451228e-08
2.182539682539682335e+00,3.019870033666355859e-06,-9.389584532988668784e-06
2.183333333333333126e+00,3.608036021070149283e-06,-1.968549940372428886e-05
2.184126984126983917e+00,-2.237683278919140322e-06,-3.025967432274373725e-05
2.184920634920634708e+00,-1.393443282151841158e-05,-4.047080555587237070e-05
2.185714285714285499e+00,-2.958811947007199377e-05,-4.959095995664987422e-05
2.186507936507936289e+00,-4.647341367921317256e-05,-5.678445728986601182e-05
2.187301587301587080e+00,-6.167487517909356278e-05,-6.116532055189718834e-05
2.188095238095238315e+00,-7.271203807499883320e-05,-6.194144258875547578e-05
2.188888888888889106e+00,-7.798960453466466597e-05,-5.861332186675590698e-05
2.189682539682539897e+00,-7.698208847034972819e-05,-5.116083678896957561e-05
2.190476190476190688e+00,-7.015097022059029440e-05,-4.014100503055573888e-05
2.191269841269841478e+00,-5.866701218342644031e-05,-2.664379422608654537e-05
2.192063492063492269e+00,-4.404916519100814131e-05,-1.210290959994365355e-05
2.192857142857143060e+00,-2.783128565434507580e-05,1.991334916931233022e-06
2.193650793650793851e+00,-1.133669998511119814e-05,1.440140850369583409e-05
2.194444444444444642e+00,4.408866183406348899e-06,2.439586084442728610e-05
2.195238095238095433e+00,1.864717477476867915e-05,3.188241218890821291e-05
2.196031746031746223e+00,3.079814810362895548e-05,3.737930408573533390e-05
2.196825396825397014e+00,4.037938621250344629e-05,4.181405035520353061e-05
2.197619047619047805e+00,4.698447706956065050e-05,4.618214820520784390e-05
2.198412698412698596e+00,5.033327293918609812e-05,5.115015716729995007e-05
2.199206349206349387e+00,5.036863378124072132e-05,5.672430387966652789e-05
2.200000000000000178e+00,4.734997292316523999e-05,6.209849991047965785e-05
2.200793650793650968e+00,4.189251357612827815e-05,6.574097603434490302e-05
2.201587301587301759e+00,3.491986557653543714e-05,6.570692273217954818e-05
2.202380952380952550e+00,2.752697645886689585e-05,6.010938507366187785e-05
2.203174603174603341e+00,2.078070233948163824e-05,4.765011765901799894e-05
2.203968253968254132e+00,1.550824736276303913e-05,2.809457795970267874e-05
2.204761904761904923e+00,1.213298137541512282e-05,2.565933426720321254e-06
2.205555555555555713e+00,1.060786228606111882e-05,-2.645309766507046418e-05
2.206349206349206504e+00,1.046919246488659049e-05,-5.546288576450688582e-05
2.207142857142857295e+00,1.099603327876878665e-05,-8.058404357801330850e-05
2.207936507936508086e+00,1.142729694526948277e-05,-9.833433156120943415e-05
2.208730158730158877e+00,1.117219639586979113e-05,-1.063388695483940204e-04
2.209523809523809668e+00,9.955464076918182377e-06,-1.037931870540531690e-04
2.210317460317460458e+00,7.861870404944721957e-06,-9.157979532278064084e-05
2.211111111111111249e+00,5.274956209408497064e-06,-7.203288954983940579e-05
2.211904761904762040e+00,2.733961336680283428e-06,-4.842343901099962534e-05
2.212698412698412831e+00,7.556740544371409240e-07,-2.428984516485176010e-05
2.213492063492063622e+00,-3.207248503790943536e-07,-2.765946096030236523e-06
2.214285714285714413e+00,-4.138981756110292570e-07,1.394697102509717741e-05
2.215079365079365203e+00,3.206114471556341695e-07,2.485820489395992733e-05
2.215873015873015994e+00,1.600828416525191708e-06,3.017765055322572964e-05
2.216666666666666785e+00,3.171508283243759268e-06,3.105364855749198145e-05
2.217460317460317576e+00,4.937005023270160762e-06,2.915139730075062371e-05
2.218253968253968367e+00,7.019970582134341047e-06,2.619036946953833274e-05
2.219047619047619158e+00,9.720364897730053640e-06,2.355235600644709436e-05
2.219841269841269948e+00,1.338396818572206360e-05,2.203967950197266079e-05
2.220634920634920739e+00,1.821927713749106286e-05,2.181713797291218331e-05
2.221428571428571530e+00,2.411921155089768383e-05,2.252486478515922330e-05
2.222222222222222321e+00,3.054574269704934795e-05,2.351396061752249848e-05
2.223015873015873112e+00,3.652060206125340723e-05,2.413649093939925524e-05
2.223809523809523903e+00,4.073696018411841708e-05,2.401410423395986343e-05
2.224603174603174693e+00,4.177438318794218216e-05,2.321337431767268929e-05
2.225396825396825484e+00,3.837496879764478391e-05,2.227272019096401750e-05
2.226190476190476275e+00,2.972991906492594282e-05,2.205768682330978611e-05
2.226984126984127066e+00,1.572877277811108012e-05,2.346690498453156656e-05
2.227777777777777857e+00,-2.872524973063781882e-06,2.706169404900474459e-05
2.228571428571428648e+00,-2.440798244135899381e-05,3.273160845219400602e-05
2.229365079365079438e+00,-4.642197837209448259e-05,3.951611621522387865e-05
2.230158730158730229e+00,-6.597629639052702340e-05,4.566699021949263796e-05
2.230952380952381020e+00,-8.012982456380263153e-05,4.896509246044985581e-05
2.231746031746031811e+00,-8.652293595026756140e-05,4.722625977407217190e-05
2.232539682539682602e+00,-8.393943104412477480e-05,3.887308254486995188e-05
2.233333333333333393e+00,-7.267974960992494094e-05,2.342752222297738717e-05
2.234126984126984183e+00,-5.459188195115168344e-05,1.795055240766339744e-06
2.234920634920634974e+00,-3.269062066724460336e-05,-2.374014194106944603e-05
2.235714285714285765e+00,-1.043571467487478721e-05,-4.981974375203812534e-05
2.236507936507936556e+00,9.120181703845667273e-06,-7.255736942794555413e-05
2.237301587301587347e+00,2.403028987510403506e-05,-8.821927396781888023e-05
2.238095238095238138e+00,3.375264229471614316e-05,-9.391025486632291160e-05
2.238888888888888928e+00,3.894232737825100788e-05,-8.813626938901970192e-05
2.239682539682539719e+00,4.082213003481574982e-05,-7.113666321731437813e-05
2.240476190476190510e+00,4.038647975745886026e-05,-4.491864172746909612e-05
2.241269841269841301e+00,3.777115622768278296e-05,-1.297854745862284145e-05
2.242063492063492092e+00,3.206930161638133983e-05,2.025020152132800378e-05
2.242857142857142883e+00,2.170625285717584616e-05,5.013046743730044434e-05
2.243650793650793673e+00,5.261613606936552645e-06,7.260111802845741467e-05
2.244444444444444464e+00,-1.756774252810008505e-05,8.484763810117135793e-05
2.245238095238095255e+00,-4.525546240639394995e-05,8.572500516741632327e-05
2.246031746031746046e+00,-7.431065211392626538e-05,7.585008574896084314e-05
2.246825396825396837e+00,-9.984823768422448540e-05,5.735922373221556539e-05
2.247619047619047628e+00,-1.167341598287347713e-04,3.340474748954686343e-05
2.248412698412698418e+00,-1.209529021956677050e-04,7.522103846127116907e-06
2.249206349206349209e+00,-1.107484812261053418e-04,-1.697895346902033309e-05
2.250000000000000000e+00,-8.716241270843847247e-05,-3.746919010320594643e-05
2.250793650793650791e+00,-5.380377351873672008e-05,-5.223165282253729522e-05
2.251587301587301582e+00,-1.594436388043793935e-05,-6.047510292605601722e-05
2.252380952380952372e+00,2.076695048721023023e-05,-6.219383177316804780e-05
2.253174603174603163e+00,5.159095139110942048e-05,-5.796683241375855540e-05
2.253968253968253954e+00,7.363852736269919323e-05,-4.877890611959637438e-05
2.254761904761904745e+00,8.623949318267130914e-05,-3.590404913743377351e-05
2.255555555555555536e+00,9.068713979704422841e-05,-2.083998682880680610e-05
2.256349206349206327e+00,8.948473552256062198e-05,-5.248672881535636977e-06
2.257142857142857117e+00,8.535639512042552811e-05,9.146403844380364564e-06
2.257936507936507908e+00,8.033824440611850130e-05,2.073314467282108580e-05
2.258730158730158699e+00,7.522173497656546560e-05,2.824160380986852863e-05
2.259523809523809490e+00,6.949697189075639112e-05,3.097426152573499943e-05
2.260317460317460281e+00,6.178243099668678459e-05,2.894757575430659244e-05
2.261111111111111072e+00,5.057668373266912686e-05,2.287139623208257045e-05
2.261904761904761862e+00,3.506692922999563608e-05,1.395749477974515140e-05
2.262698412698412653e+00,1.570671402496078180e-05,3.627669664632690072e-06
2.263492063492063444e+00,-5.653727580570370241e-06,-6.765825765055073082e-06
2.264285714285714235e+00,-2.614964991094349253e-05,-1.611663249327535094e-05
2.265079365079365026e+00,-4.267910088459701807e-05,-2.361621736077765716e-05
2.265873015873015817e+00,-5.281181762221993502e-05,-2.872854735675959431e-05
2.266666666666666607e+00,-5.551261007046842671e-05,-3.115506511106256042e-05
2.267460317460317398e+00,-5.142617179439581238e-05,-3.082545801813446379e-05
2.268253968253968189e+00,-4.263361788699892061e-05,-2.790498386062905068e-05
2.269047619047618980e+00,-3.198855695843751937e-05,-2.279141278763031271e-05
2.269841269841269771e+00,-2.228360006521915295e-05,-1.608542794720238330e-05
2.270634920634920562e+00,-1.552538094418673599e-05,-8.533429313356916216e-06
2.271428571428571352e+00,-1.251178244390161930e-05,-9.472142980099108114e-07
2.272222222222222143e+00,-1.277044053762841685e-05,5.892978591412198528e-06
2.273015873015872934e+00,-1.480354310346861758e-05,1.133863328667397479e-05
2.273809523809523725e+00,-1.652786771145183369e-05,1.495494165810017338e-05
2.274603174603174516e+00,-1.579619537972790869e-05,1.656700409885593462e-05
2.275396825396825307e+00,-1.090828523244237738e-05,1.627181774956668083e-05
2.276190476190476097e+00,-1.038174758592245846e-06,1.443446067631351199e-05
2.276984126984126888e+00,1.349095521085703305e-05,1.167877838439100252e-05
2.277777777777777679e+00,3.115041053936767006e-05,8.853965424757012187e-06
2.278571428571428470e+00,4.941057489644569818e-05,6.940315535369102642e-06
2.279365079365079261e+00,6.519392081149988198e-05,6.873618711426306110e-06
2.280158730158730052e+00,7.549155127961857954e-05,9.309932976356261828e-06
2.280952380952380842e+00,7.800037364996197607e-05,1.439319413035553466e-05
2.281746031746031633e+00,7.162470089511521179e-05,2.160335291235240720e-05
2.282539682539682424e+00,5.672698529415056795e-05,2.974489024807242958e-05
2.283333333333333215e+00,3.508708289610702313e-05,3.709801858027557246e-05
2.284126984126984006e+00,9.600125265219305572e-06,4.172038186010151628e-05
2.284920634920634797e+00,-1.621601938228252069e-05,4.186112061540844657e-05
2.285714285714285587e+00,-3.881758934111252343e-05,3.641513552992939773e-05
2.286507936507936378e+00,-5.524119472538448688e-05,2.530003344028465494e-05
2.287301587301587169e+00,-6.361524511610129173e-05,9.617557907872116901e-06
2.288095238095237960e+00,-6.347501059747946196e-05,-8.492267694914679442e-06
2.288888888888888751e+00,-5.580873341387327806e-05,-2.628770908281019000e-05
2.289682539682539542e+00,-4.281586062943252267e-05,-4.102296836075535993e-05
2.290476190476190332e+00,-2.742176210527292232e-05,-5.052100393430492817e-05
2.291269841269841123e+00,-1.264898827964853658e-05,-5.355921009202325973e-05
2.292063492063491914e+00,-9.802682557706666789e-07,-4.998959199577850099e-05
2.292857142857142705e+00,6.144467809828625024e-06,-4.061613465376537053e-05
2.293650793650793496e+00,8.578321574551851501e-06,-2.692414149055152582e-05
2.294444444444444287e+00,7.399152960673856918e-06,-1.077177988645561227e-05
2.295238095238095077e+00,4.532655019981996022e-06,5.879934858191626220e-06
2.296031746031745868e+00,2.158030265880800250e-06,2.117169497597594222e-05
2.296825396825396659e+00,2.049360490787861190e-06,3.349160639944820801e-05
2.297619047619047450e+00,5.026804636402194295e-06,4.158057264402569551e-05
2.298412698412698241e+00,1.066669682056961842e-05,4.461594407772497776e-05
2.299206349206349032e+00,1.735799120979766136e-05,4.228650916671521380e-05
2.299999999999999822e+00,2.270917821247579486e-05,3.485860957764648157e-05
2.300793650793650613e+00,2.421964340908105891e-05,2.321125965317709434e-05
2.301587301587301404e+00,2.004977772156882058e-05,8.798112759994932420e-06
2.302380952380952195e+00,9.677760572694435332e-06,-6.504734012926786058e-06
2.303174603174602986e+00,-5.759053515952279003e-06,-2.067385690990969542e-05
2.303968253968253777e+00,-2.356478422023679402e-05,-3.189749152739224341e-05
2.304761904761904567e+00,-4.003104218973726228e-05,-3.894349155336318834e-05
2.305555555555555358e+00,-5.130064393648146187e-05,-4.144662523059532014e-05
2.306349206349206149e+00,-5.432630226661170497e-05,-4.002280991712108525e-05
2.307142857142856940e+00,-4.767140250779358657e-05,-3.613240901263588620e-05
2.307936507936507731e+00,-3.194153647559414379e-05,-3.167274496854385494e-05
2.308730158730158522e+00,-9.733683365104186941e-06,-2.838526217784596511e-05
2.309523809523809312e+00,1.488579589203545911e-05,-2.726328775273611479e-05
2.310317460317460103e+00,3.724598638570086103e-05,-2.816970977642258361e-05
2.311111111111110894e+00,5.306687051790372293e-05,-2.979914808167942301e-05
2.311904761904761685e+00,5.934317104656327673e-05,-2.999731686230196502e-05
2.312698412698412920e+00,5.491118786799300942e-05,-2.634851620050985679e-05
2.313492063492063711e+00,4.059029901968608305e-05,-1.688593982982399951e-05
2.314285714285714501e+00,1.891537114545159564e-05,-7.569310811618992234e-07
2.315079365079365292e+00,-6.417261220056784126e-06,2.132463101472951728e-05
2.315873015873016083e+00,-3.121657756905740733e-05,4.697969714714651476e-05
2.316666666666666874e+00,-5.142091154540219490e-05,7.249585726873010037e-05
2.317460317460317665e+00,-6.359474677778465836e-05,9.356001492170545116e-05
2.318253968253968456e+00,-6.529605346521754337e-05,1.062310999625041554e-04
2.319047619047619246e+00,-5.536011945383234259e-05,1.078881823755268248e-04
2.319841269841270037e+00,-3.413694221980518190e-05,9.787650702344576656e-05
2.320634920634920828e+00,-3.663217508725971520e-06,7.767013252936078352e-05
2.321428571428571619e+00,3.231938313675706864e-05,5.052557593245246033e-05
2.322222222222222410e+00,6.862762960548946705e-05,2.074339789864524015e-05
2.323015873015873201e+00,9.928183267841067939e-05,-7.259464912739405024e-06
2.323809523809523991e+00,1.185217776638270641e-04,-2.984196560898681337e-05
2.324603174603174782e+00,1.220165046956306299e-04,-4.480294939674851637e-05
2.325396825396825573e+00,1.079440607763240592e-04,-5.169055009227234654e-05
2.326190476190476364e+00,7.757974050576614566e-05,-5.171032783374638074e-05
2.326984126984127155e+00,3.515017864484260571e-05,-4.726624043940193379e-05
2.327777777777777946e+00,-1.304889475512235925e-05,-4.124855069290769952e-05
2.328571428571428736e+00,-6.001423756259065739e-05,-3.625149087944144028e-05
2.329365079365079527e+00,-9.945856209999207628e-05,-3.393126273311676105e-05
2.330158730158730318e+00,-1.268886669815459981e-04,-3.467569391716488148e-05
2.330952380952381109e+00,-1.400985170649430124e-04,-3.765807943716199861e-05
2.331746031746031900e+00,-1.390707070622621282e-04,-4.122848664252921739e-05
2.332539682539682691e+00,-1.254667891357255096e-04,-4.349943368392088585e-05
2.333333333333333481e+00,-1.019620056919927863e-04,-4.293701730085767207e-05
2.334126984126984272e+00,-7.164592485741661258e-05,-3.878272477058624800e-05
2.334920634920635063e+00,-3.761362496764545922e-05,-3.119959451907545323e-05
2.335714285714285854e+00,-2.764792197266278094e-06,-2.113796742116002758e-05
2.336507936507936645e+00,3.025184929221253101e-05,-1.001372904425493855e-05
2.337301587301587436e+00,5.904554050959867547e-05,6.573480375781819564e-07
2.338095238095238226e+00,8.152682455496131552e-05,9.545665703868598970e-06
2.338888888888889017e+00,9.602796771665383371e-05,1.566451801295975463e-05
2.339682539682539808e+00,1.014861438362759218e-04,1.842559464079227848e-05
2.340476190476190599e+00,9.763128011064226941e-05,1.765774146341996963e-05
2.341269841269841390e+00,8.510497891196448620e-05,1.363585875303019921e-05
2.342063492063492181e+00,6.545507767975561558e-05,7.117616020975116538e-06
2.342857142857142971e+00,4.099125521078019694e-05,-6.580619302305994963e-07
2.343650793650793762e+00,1.452828939913511750e-05,-8.068180413145965049e-06
2.344444444444444553e+00,-1.093361780952936037e-05,-1.333138195722313521e-05
2.345238095238095344e+00,-3.254147303530288942e-05,-1.484794008636954915e-05
2.346031746031746135e+00,-4.789930053270160631e-05,-1.158795231499114658e-05
2.346825396825396925e+00,-5.533775462082676593e-05,-3.421804689182369546e-06
2.347619047619047716e+00,-5.413620383039733540e-05,8.723411994530807893e-06
2.348412698412698507e+00,-4.468035992525923295e-05,2.296386811350421193e-05
2.349206349206349298e+00,-2.851289998349097824e-05,3.681969139271073024e-05
2.350000000000000089e+00,-8.216247276956290213e-06,4.774560221880348200e-05
2.350793650793650880e+00,1.291817872990080563e-05,5.367391164897880698e-05
2.351587301587301670e+00,3.142375833470401270e-05,5.341027529126162084e-05
2.352380952380952461e+00,4.430540431220278028e-05,4.678732662309444736e-05
2.353174603174603252e+00,4.964149615620747633e-05,3.457987988321565361e-05
2.353968253968254043e+00,4.696460229560942289e-05,1.827036365704785080e-05
2.354761904761904834e+00,3.729367465950606718e-05,-2.149352743679930404e-07
2.355555555555555625e+00,2.279593963799223243e-05,-1.871333848830286585e-05
2.356349206349206415e+00,6.180152798726731201e-06,-3.497067929253196578e-05
2.357142857142857206e+00,-9.985361706948288048e-06,-4.678831852167074286e-05
2.357936507936507997e+00,-2.381534865080328089e-05,-5.225010160837476595e-05
2.358730158730158788e+00,-3.435619723581422318e-05,-5.005100115480463772e-05
2.359523809523809579e+00,-4.150190266240773242e-05,-3.985931253013603353e-05
2.360317460317460370e+00,-4.566276093992804993e-05,-2.257811381667348608e-05
2.361111111111111160e+00,-4.735432947716661987e-05,-3.697729281968670687e-07
2.361904761904761951e+00,-4.688611927212013250e-05,2.362932811617864687e-05
2.362698412698412742e+00,-4.427138570829314160e-05,4.587649636616302168e-05
2.363492063492063533e+00,-3.937542181816932371e-05,6.314339055143750544e-05
2.364285714285714324e+00,-3.220928261491274398e-05,7.318947075168168853e-05
2.365079365079365115e+00,-2.320440608244638632e-05,7.518249262793260041e-05
2.365873015873015905e+00,-1.330697644351657916e-05,6.973719169530105796e-05
2.366666666666666696e+00,-3.812318552879853643e-06,5.857648955543328376e-05
2.367460317460317487e+00,4.018881915142218854e-06,4.394630978495495387e-05
2.368253968253968278e+00,9.417094106256122877e-06,2.798150629486202782e-05
2.369047619047619069e+00,1.244694254752336860e-05,1.221396402462142510e-05
2.369841269841269860e+00,1.408617503859904478e-05,-2.646929055413743472e-06
2.370634920634920650e+00,1.598446559521035030e-05,-1.662274092416252605e-05
2.371428571428571441e+00,1.995954356002037846e-05,-3.012441123049245333e-05
2.372222222222222232e+00,2.737757414852116505e-05,-4.350073091885112646e-05
2.373015873015873023e+00,3.860190382994327358e-05,-5.664418201337503611e-05
2.373809523809523814e+00,5.267589073767749136e-05,-6.878560782757109815e-05
2.374603174603174605e+00,6.734626225992609893e-05,-7.853297866239762181e-05
2.375396825396825395e+00,7.945171654607874692e-05,-8.413101463665259214e-05
2.376190476190476186e+00,8.561100145383866765e-05,-8.386212662703903186e-05
2.376984126984126977e+00,8.305760819383451582e-05,-7.648083211517565959e-05
2.377777777777777768e+00,7.040522529837809924e-05,-6.157366530446546497e-05
2.378571428571428559e+00,4.812047771506311163e-05,-3.976331896691621232e-05
2.379365079365079350e+00,1.854965259851449865e-05,-1.272102783725714472e-05
2.380158730158730140e+00,-1.451983265383110879e-05,1.700010795116851871e-05
2.380952380952380931e+00,-4.663689917370649927e-05,4.626170143627189601e-05
2.381746031746031722e+00,-7.357973827303249201e-05,7.170379000248488512e-05
2.382539682539682513e+00,-9.212639259283992937e-05,9.012393358161985204e-05
2.383333333333333304e+00,-1.005308907926192891e-04,9.884636539296451059e-05
2.384126984126984095e+00,-9.864396774376360771e-05,9.607837193358345705e-05
2.384920634920634885e+00,-8.772421934054922519e-05,8.124829114240206241e-05
2.385714285714285676e+00,-7.004948390356819613e-05,5.528534294436337441e-05
2.386507936507936467e+00,-4.844993601206875266e-05,2.075797909899950599e-05
2.387301587301587258e+00,-2.585830903813565338e-05,-1.822912868612629067e-05
2.388095238095238049e+00,-4.930817705619793949e-06,-5.644884587117294963e-05
2.388888888888888840e+00,1.224458756595441909e-05,-8.827501486294109603e-05
2.389682539682539630e+00,2.435250460824436982e-05,-1.086245484699776686e-04
2.390476190476190421e+00,3.096039110309958109e-05,-1.139414903314257295e-04
2.391269841269841212e+00,3.251430530994293001e-05,-1.029950566317737188e-04
2.392063492063492003e+00,3.019946528585069768e-05,-7.727617291089200859e-05
2.392857142857142794e+00,2.566849610759026966e-05,-4.085889422472265171e-05
2.393650793650793585e+00,2.067780743466288132e-05,2.838973357098680468e-07
2.394444444444444375e+00,1.670643464573470286e-05,3.939551852735326184e-05
2.395238095238095166e+00,1.464723465930912358e-05,7.026049084801926146e-05
2.396031746031745957e+00,1.464927869736131947e-05,8.844625109350247609e-05
2.396825396825396748e+00,1.615258974208699325e-05,9.215459870922295825e-05
2.397619047619047539e+00,1.810316982259308375e-05,8.245246977868925936e-05
2.398412698412698330e+00,1.928624641509572025e-05,6.281947686288293087e-05
2.399206349206349120e+00,1.868506179294788952e-05,3.815463360179023003e-05
2.399999999999999911e+00,1.576854840912676403e-05,1.354068320538374719e-05
2.400793650793650702e+00,1.063292380700549295e-05,-6.889554526404286782e-06
2.401587301587301493e+00,3.963793905454062471e-06,-2.070565847539891785e-05
2.402380952380952284e+00,-3.162742229798036746e-06,-2.740570461272918550e-05
2.403174603174603075e+00,-9.573593295153809372e-06,-2.812309931708905291e-05
2.403968253968253865e+00,-1.429425304120856058e-05,-2.495260096379354448e-05
2.404761904761904656e+00,-1.676159436655146403e-05,-2.011816502678687911e-05
2.405555555555555447e+00,-1.690590962414490232e-05,-1.522940445583611469e-05
2.406349206349206238e+00,-1.510074727535351912e-05,-1.083715768459517151e-05
2.407142857142857029e+00,-1.201548085791309125e-05,-6.409858022182504905e-06
2.407936507936507819e+00,-8.423098891495839726e-06,-7.270896810526976671e-07
2.408730158730158610e+00,-5.015626543612730221e-06,7.445539267001309877e-06
2.409523809523809401e+00,-2.267380326022810263e-06,1.863244102237512087e-05
2.410317460317460192e+00,-3.681096349483454740e-07,3.212779552214973399e-05
2.411111111111110983e+00,7.712934680567878948e-07,4.586354621191201538e-05
2.411904761904761774e+00,1.454620740737888380e-06,5.672050101895356451e-05
2.412698412698412564e+00,2.101101549383286745e-06,6.120316942837422008e-05
2.413492063492063355e+00,3.133521998764384249e-06,5.631136190689134695e-05
2.414285714285714146e+00,4.869672302539612340e-06,4.041121495397665927e-05
2.415079365079364937e+00,7.428929196538036770e-06,1.391011605871350968e-05
2.415873015873015728e+00,1.066555794215893738e-05,-2.044429506986896928e-05
2.416666666666666519e+00,1.414083824596936983e-05,-5.777696609765341164e-05
2.417460317460317309e+00,1.714723592123457147e-05,-9.184941111365462873e-05
2.418253968253968100e+00,1.879957069220390662e-05,-1.162689880037705721e-04
2.419047619047618891e+00,1.820222933710179217e-05,-1.258888429594317475e-04
2.419841269841269682e+00,1.467761593945906072e-05,-1.180535701436817266e-04
2.420634920634920473e+00,8.004198256337372356e-06,-9.335559626830437438e-05
2.421428571428571264e+00,-1.413480379890920239e-06,-5.567736930050276481e-05
2.422222222222222054e+00,-1.251210553531191934e-05,-1.146987241014596553e-05
2.423015873015872845e+00,-2.370002800213383864e-05,3.158967610298384575e-05
2.423809523809523636e+00,-3.312277118383625114e-05,6.625681985227277872e-05
2.424603174603174427e+00,-3.900113718751861659e-05,8.730076223844004447e-05
2.425396825396825218e+00,-3.997450327964524727e-05,9.261534273227445258e-05
2.426190476190476009e+00,-3.539248508968976007e-05,8.356860949451136282e-05
2.426984126984126799e+00,-2.550743035164995424e-05,6.448343459265003350e-05
2.427777777777777590e+00,-1.152730447663149893e-05,4.137317900912583957e-05
2.428571428571428381e+00,4.497314208904540548e-06,2.027195189352426927e-05
2.429365079365079172e+00,1.995368153060190223e-05,5.623627983880712043e-06
2.430158730158729963e+00,3.208623804416205677e-05,-8.215881785628961638e-07
2.430952380952380754e+00,3.849724716608986919e-05,-3.057919514543691959e-07
2.431746031746031544e+00,3.764652059091260075e-05,3.505366544132711546e-06
2.432539682539682335e+00,2.925160428618320740e-05,5.776766654909317673e-06
2.433333333333333126e+00,1.448916094085032737e-05,2.070056194358087844e-06
2.434126984126983917e+00,-4.077995393783570994e-06,-1.024255049884979405e-05
2.434920634920634708e+00,-2.287454304183433071e-05,-3.113791025021709643e-05
2.435714285714285499e+00,-3.794779147292344279e-05,-5.791055738584037683e-05
2.436507936507936289e+00,-4.575719068018502299e-05,-8.591419325366435062e-05
2.437301587301587080e+00,-4.395559459179111537e-05,-1.097927144339192189e-04
2.438095238095238315e+00,-3.197457784000984560e-05,-1.247953382212998715e-04
2.438888888888889106e+00,-1.124974613497040658e-05,-1.278045453800148560e-04
2.439682539682539897e+00,1.499848458895814255e-05,-1.178525436411857210e-04
2.440476190476190688e+00,4.239245952205872032e-05,-9.608271125436884338e-05
2.441269841269841478e+00,6.627388341595262121e-05,-6.525987310337137356e-05
2.442063492063492269e+00,8.259604402732035689e-05,-2.901980830952794794e-05
2.442857142857143060e+00,8.861035544501304304e-05,8.921357851538074644e-06
2.443650793650793851e+00,8.321907332666933900e-05,4.539514255633983545e-05
2.444444444444444642e+00,6.699110922756656278e-05,7.811005860341320146e-05
2.445238095238095433e+00,4.193132674511936670e-05,1.056529715700276341e-04
2.446031746031746223e+00,1.111699833259291789e-05,1.272433522572104898e-04
2.446825396825397014e+00,-2.172193073840082429e-05,1.423890302937939032e-04
2.447619047619047805e+00,-5.265086120258359706e-05,1.505982959153050063e-04
2.448412698412698596e+00,-7.799352643395045151e-05,1.512639521159630076e-04
2.449206349206349387e+00,-9.477478476775564621e-05,1.437728430546259927e-04
2.450000000000000178e+00,-1.010866350056871668e-04,1.278171975136577047e-04
2.450793650793650968e+00,-9.632869408024164869e-05,1.037969834293986187e-04
2.451587301587301759e+00,-8.130042350624275412e-05,7.313325718788950801e-05
2.452380952380952550e+00,-5.813718677210835450e-05,3.831023325889331793e-05
2.453174603174603341e+00,-3.007841078060812605e-05,2.558377325900411006e-06
2.453968253968254132e+00,-1.056602260280251562e-06,-3.074975890029698109e-05
2.454761904761904923e+00,2.487418096992041110e-05,-5.878217020354368995e-05
2.455555555555555713e+00,4.419526722871802845e-05,-7.976449190000806197e-05
2.456349206349206504e+00,5.453895296608605325e-05,-9.316432813251150971e-05
2.457142857142857295e+00,5.512079795610571291e-05,-9.950745159476939998e-05
2.457936507936508086e+00,4.687388109170457763e-05,-9.991268533868353748e-05
2.458730158730158877e+00,3.222748127596333155e-05,-9.551693371180428342e-05
2.459523809523809668e+00,1.455036224808687500e-05,-8.700414446311528056e-05
2.460317460317460458e+00,-2.631272346802077060e-06,-7.443524762732595373e-05
2.461111111111111249e+00,-1.645184161403535531e-05,-5.747681204846613205e-05
2.461904761904762040e+00,-2.533778367901112460e-05,-3.595528910714714812e-05
2.462698412698412831e+00,-2.926731272176308268e-05,-1.048908818110768191e-05
2.463492063492063622e+00,-2.957724945988822698e-05,1.712911117336930956e-05
2.464285714285714413e+00,-2.836946111901438697e-05,4.404374039856136773e-05
2.465079365079365203e+00,-2.768690620242230801e-05,6.696014879184436052e-05
2.465873015873015994e+00,-2.869741873231596496e-05,8.305184153483842458e-05
2.466666666666666785e+00,-3.113144127062110109e-05,9.078760009111766309e-05
2.467460317460317576e+00,-3.316922923472688382e-05,9.034662362622235027e-05
2.468253968253968367e+00,-3.186639863860678718e-05,8.344808200537389103e-05
2.469047619047619158e+00,-2.405592523276886831e-05,7.264221072554848807e-05
2.469841269841269948e+00,-7.505630677396549463e-06,6.033582262321447856e-05
2.470634920634920739e+00,1.800272274825151072e-05,4.796982820416431469e-05
2.471428571428571530e+00,5.002726124748823586e-05,3.572107787594417023e-05
2.472222222222222321e+00,8.352040099328162965e-05,2.283825832817454636e-05
2.473015873015873112e+00,1.116740389583010374e-04,8.382836172268695737e-06
2.473809523809523903e+00,1.274184913792521668e-04,-8.042019788727290899e-06
2.474603174603174693e+00,1.252226412053049722e-04,-2.591883705929471981e-05
2.475396825396825484e+00,1.027133979973848360e-04,-4.390703727564599447e-05
2.476190476190476275e+00,6.164512345695888611e-05,-6.028406764385708960e-05
2.476984126984127066e+00,7.907774001524577607e-06,-7.351335383746570131e-05
2.477777777777777857e+00,-4.948282605609064145e-05,-8.270919145937450170e-05
2.478571428571428648e+00,-1.001950436144373371e-04,-8.782617770971359883e-05
2.479365079365079438e+00,-1.347618943204391623e-04,-8.950211242996026421e-05
2.480158730158730229e+00,-1.466118455519164847e-04,-8.861278653708082504e-05
2.480952380952381020e+00,-1.334778654118627325e-04,-8.571985753056570508e-05
2.481746031746031811e+00,-9.786920191079198097e-05,-8.065575365332151912e-05
2.482539682539682602e+00,-4.650691529711500178e-05,-7.245102143710368051e-05
2.483333333333333393e+00,1.114434209724186845e-05,-5.967637544996728818e-05
2.484126984126984183e+00,6.490935162748560374e-05,-4.110271117281731206e-05
2.484920634920634974e+00,1.060221420718130770e-04,-1.645486731409613783e-05
2.485714285714285765e+00,1.288256755580163750e-04,1.300035530548260385e-05
2.486507936507936556e+00,1.316520839117655899e-04,4.423724161924811802e-05
2.487301587301587347e+00,1.167133974246224867e-04,7.272994606649771290e-05
2.488095238095238138e+00,8.911489369079756806e-05,9.318419960542235418e-05
2.488888888888888928e+00,5.533675353307168784e-05,1.006350230892091076e-04
2.489682539682539719e+00,2.163255379518800361e-05,9.170139948677625500e-05
2.490476190476190510e+00,-7.252010232546080487e-06,6.570435714523973963e-05
2.491269841269841301e+00,-2.878346003813596815e-05,2.532346853361960458e-05
2.492063492063492092e+00,-4.269172699054763788e-05,-2.347448233964885591e-05
2.492857142857142883e+00,-5.045599084157344590e-05,-7.233764703942065449e-05
2.493650793650793673e+00,-5.443347979920385875e-05,-1.121298105787734513e-04
2.494444444444444464e+00,-5.690132215621975388e-05,-1.348694228384832747e-04
2.495238095238095255e+00,-5.927617178212268552e-05,-1.355138709695883096e-04
2.496031746031746046e+00,-6.170750833503632019e-05,-1.131100653170182934e-04
2.496825396825396837e+00,-6.312689151315057994e-05,-7.099386603240087884e-05
2.497619047619047628e+00,-6.170607347540216269e-05,-1.598464509628633052e-05
2.498412698412698418e+00,-5.556493575690027599e-05,4.319001863046376734e-05
2.499206349206349209e+00,-4.350697657796464727e-05,9.778243098076799388e-05
2.500000000000000000e+00,-2.556457877627873914e-05,1.406950321450149287e-04
2.500793650793650791e+00,-3.204340561338618396e-06,1.675176033456572374e-04
2.501587301587301582e+00,2.085383788721608661e-05,1.767804657303626665e-04
2.502380952380952372e+00,4.314848183702669972e-05,1.695580506530501325e-04
2.503174603174603163e+00,6.018859613238248531e-05,1.487198446684402100e-04
2.503968253968253954e+00,6.919535358408687264e-05,1.181126146013287704e-04
2.504761904761904745e+00,6.870128149939792059e-05,8.184076164886405725e-05
2.505555555555555536e+00,5.887470358510354170e-05,4.370950083641380246e-05
2.506349206349206327e+00,4.150770381517894910e-05,6.863642875031948828e-06
2.507142857142857117e+00,1.968351264372065722e-05,-2.634807762994326801e-05
2.507936507936507908e+00,-2.795643396371662647e-06,-5.429309556394453109e-05
2.508730158730158699e+00,-2.209556308063089359e-05,-7.584986744717570647e-05
2.509523809523809490e+00,-3.501126690165239812e-05,-9.022252602967662264e-05
2.510317460317460281e+00,-3.947852953398007744e-05,-9.688778470797916056e-05
2.511111111111111072e+00,-3.485848692009126023e-05,-9.568256161508268266e-05
2.511904761904761862e+00,-2.197916032706010732e-05,-8.695044527678859835e-05
2.512698412698412653e+00,-2.971252534507019749e-06,-7.165510047973347885e-05
2.513492063492063444e+00,1.903867807515359219e-05,-5.142128012446576607e-05
2.514285714285714235e+00,4.032217250481671017e-05,-2.850950126799785478e-05
2.515079365079365026e+00,5.699795078073643267e-05,-5.726796131922279545e-06
2.515873015873015817e+00,6.551596648209490178e-05,1.376024748117403622e-05
2.516666666666666607e+00,6.314576724784702166e-05,2.676827229444397961e-05
2.517460317460317398e+00,4.841892265319987752e-05,3.063040428849189505e-05
2.518253968253968189e+00,2.146432085064785874e-05,2.387256190034227945e-05
2.519047619047618980e+00,-1.582287157787996249e-05,6.868914505798414943e-06
2.519841269841269771e+00,-5.982820762657679680e-05,-1.777675360255857146e-05
2.520634920634920562e+00,-1.055152359865285178e-04,-4.536581704685282626e-05
2.521428571428571352e+00,-1.469801556473248683e-04,-6.985662311078156303e-05
2.522222222222222143e+00,-1.782261311571623039e-04,-8.511686372445124407e-05
2.523015873015872934e+00,-1.940630683263969917e-04,-8.637161096989668112e-05
2.523809523809523725e+00,-1.909871371234420426e-04,-7.145948498262783683e-05
2.524603174603174516e+00,-1.678651371634905872e-04,-4.154224875624886544e-05
2.525396825396825307e+00,-1.262569857561360526e-04,-1.038756501799421416e-06
2.526190476190476097e+00,-7.026898987367173111e-05,4.324557651975578023e-05
2.526984126984126888e+00,-5.940961201422626802e-06,8.358269283473813527e-05
2.527777777777777679e+00,5.970110025685036444e-05,1.129749911039729186e-04
2.528571428571428470e+00,1.197058752875342584e-04,1.265509380910913653e-04
2.529365079365079261e+00,1.681440483066944276e-04,1.223915939078070629e-04
2.530158730158730052e+00,2.007862451537675646e-04,1.016981282398005614e-04
2.530952380952380842e+00,2.154566848336899113e-04,6.838850812890595924e-05
2.531746031746031633e+00,2.120872111847443516e-04,2.828488190079932806e-05
2.532539682539682424e+00,1.925319796728238656e-04,-1.194992093052143268e-05
2.533333333333333215e+00,1.602034989300417150e-04,-4.598705404812683290e-05
2.534126984126984006e+00,1.195800052243985000e-04,-6.897030627630802485e-05
2.534920634920634797e+00,7.563103783195437434e-05,-7.843221348185606425e-05
2.535714285714285587e+00,3.321376398448418454e-05,-7.476271529973507941e-05
2.536507936507936378e+00,-3.502068922366022444e-06,-6.102947312148434032e-05
2.537301587301587169e+00,-3.152075720211961905e-05,-4.208610590404021325e-05
2.538095238095237960e+00,-4.935696751935575623e-05,-2.314250939966421765e-05
2.538888888888888751e+00,-5.716133842937878357e-05,-8.217882143788708631e-06
2.539682539682539542e+00,-5.659285715091266918e-05,9.810842862623478925e-07
2.540476190476190332e+00,-5.043745443224735076e-05,5.319055301130291441e-06
2.541269841269841123e+00,-4.202991881476068512e-05,7.517200677146641329e-06
2.542063492063491914e+00,-3.458912751269165958e-05,1.076237356531073256e-05
2.542857142857142705e+00,-3.060280887230055639e-05,1.721938392005270657e-05
2.543650793650793496e+00,-3.138680234727766170e-05,2.704331519154331453e-05
2.544444444444444287e+00,-3.690266845300798639e-05,3.825914680429826499e-05
2.545238095238095077e+00,-4.586421624797938244e-05,4.752230747736013868e-05
2.546031746031745868e+00,-5.610892680473078547e-05,5.144084975884060648e-05
2.546825396825396659e+00,-6.515547769977868200e-05,4.794511392718238109e-05
2.547619047619047450e+00,-7.081950051110611291e-05,3.719687432989371710e-05
2.548412698412698241e+00,-7.173504602866032467e-05,2.171729742797912232e-05
2.549206349206349032e+00,-6.764841512588384994e-05,5.688041290007134630e-06
2.549999999999999822e+00,-5.941588080186021946e-05,-6.363212047057673297e-06
2.550793650793650613e+00,-4.872442931833037376e-05,-1.110436437934770152e-05
2.551587301587301404e+00,-3.762797321504476433e-05,-7.702436283134409464e-06
2.552380952380952195e+00,-2.802491774960166093e-05,1.541157271582328657e-06
2.553174603174602986e+00,-2.119920271019961022e-05,1.150011174863705524e-05
2.553968253968253777e+00,-1.752302394406032168e-05,1.550206468648754221e-05
2.554761904761904567e+00,-1.638238845603061061e-05,7.309126416231459521e-06
2.555555555555555358e+00,-1.633544966788537069e-05,-1.671649219918371057e-05
2.556349206349206149e+00,-1.545840701219179252e-05,-5.589959540793068343e-05
2.557142857142856940e+00,-1.179687692732591237e-05,-1.045690405060655778e-04
2.557936507936507731e+00,-3.834529247128417170e-06,-1.527413768067582606e-04
2.558730158730158522e+00,9.097522700026929195e-06,-1.881448434250477728e-04
2.559523809523809312e+00,2.654202918336933837e-05,-1.991650698368411794e-04
2.560317460317460103e+00,4.684509776365301776e-05,-1.779822580554151488e-04
2.561111111111110894e+00,6.736348163538779382e-05,-1.230426135821670005e-04
2.561904761904761685e+00,8.496935881521810357e-05,-4.012236460011699059e-05
2.562698412698412920e+00,9.677939532135207250e-05,5.841610416518353617e-05
2.563492063492063711e+00,1.009305409706712106e-04,1.560961358251967295e-04
2.564285714285714501e+00,9.715886029182453404e-05,2.359536475959071386e-04
2.565079365079365292e+00,8.695510133219790550e-05,2.843794878058802391e-04
2.565873015873016083e+00,7.318600553565949619e-05,2.941305219179602163e-04
2.566666666666666874e+00,5.924950894098901749e-05,2.656933315049965277e-04
2.567460317460317665e+00,4.800456519277963900e-05,2.067028381985902758e-04
2.568253968253968456e+00,4.081281976146698193e-05,1.297222882261466197e-04
2.569047619047619246e+00,3.701419739579079547e-05,4.913293143455737524e-05
2.569841269841270037e+00,3.403866623526813454e-05,-2.198064207410388608e-05
2.570634920634920828e+00,2.816981394449297299e-05,-7.421583174053655863e-05
2.571428571428571619e+00,1.577374761259744937e-05,-1.031011586873430792e-04
2.572222222222222410e+00,-5.355912276500022923e-06,-1.091586339129083316e-04
2.573015873015873201e+00,-3.495639897192184733e-05,-9.699737969825130844e-05
2.573809523809523991e+00,-6.991717161290833386e-05,-7.379165186783945057e-05
2.574603174603174782e+00,-1.047354093575351394e-04,-4.752281710043334531e-05
2.575396825396825573e+00,-1.327149948107525772e-04,-2.533043281707013402e-05
2.576190476190476364e+00,-1.475801178175600631e-04,-1.225092623276160053e-05
2.576984126984127155e+00,-1.450523448385228689e-04,-1.052802286597970549e-05
2.577777777777777946e+00,-1.239710953227884905e-04,-1.955771475064386987e-05
2.578571428571428736e+00,-8.668935530273521391e-05,-3.639985899654293812e-05
2.579365079365079527e+00,-3.867775178367265023e-05,-5.668461645066011177e-05
2.580158730158730318e+00,1.254336622695509501e-05,-7.569403223664183358e-05
2.580952380952381109e+00,5.888846280592800340e-05,-8.940336372460731536e-05
2.581746031746031900e+00,9.328306362410707586e-05,-9.529582318601508223e-05
2.582539682539682691e+00,1.110056224339801427e-04,-9.280135187500930863e-05
2.583333333333333481e+00,1.105257454525760406e-04,-8.326380878766496615e-05
2.584126984126984272e+00,9.367152352236939494e-05,-6.942741950867867458e-05
2.584920634920635063e+00,6.509727623480551404e-05,-5.455070069303641399e-05
2.585714285714285854e+00,3.118015299339670207e-05,-4.137760526853866562e-05
2.586507936507936645e+00,-1.389450463905171359e-06,-3.127398623425117042e-05
2.587301587301587436e+00,-2.698849906277453478e-05,-2.382046077713068316e-05
2.588095238095238226e+00,-4.209859606683237623e-05,-1.701927607107163015e-05
2.588888888888889017e+00,-4.578894428581059876e-05,-8.062957650684085867e-06
2.589682539682539808e+00,-3.958611850453825102e-05,5.588241098839835632e-06
2.590476190476190599e+00,-2.682709527782175737e-05,2.518290295489161338e-05
2.591269841269841390e+00,-1.170523913968594757e-05,5.004891056997497054e-05
2.592063492063492181e+00,1.740173569720695469e-06,7.755256824989645694e-05
2.592857142857142971e+00,1.047258140721755565e-05,1.036343845334862881e-04
2.593650793650793762e+00,1.300377017835575886e-05,1.237302870344106267e-04
2.594444444444444553e+00,9.579509322318520041e-06,1.338085172752146769e-04
2.595238095238095344e+00,2.012751340548449715e-06,1.312839767715427144e-04
2.596031746031746135e+00,-6.789196744118295126e-06,1.156517442033829814e-04
2.596825396825396925e+00,-1.353046196253228161e-05,8.873820947863009690e-05
2.597619047619047716e+00,-1.535617353101512234e-05,5.449637473333832809e-05
2.598412698412698507e+00,-1.064507608282381514e-05,1.832732321500991441e-05
2.599206349206349298e+00,4.370271923112984995e-07,-1.397514189413067089e-05
2.600000000000000089e+00,1.581382674728968679e-05,-3.742736191376494059e-05
2.600793650793650880e+00,3.190445189114417870e-05,-4.890193117973729291e-05
2.601587301587301670e+00,4.449988459586388034e-05,-4.773904281179797555e-05
2.602380952380952461e+00,4.988284570577784945e-05,-3.576742918549775409e-05
2.603174603174603252e+00,4.586378590164339603e-05,-1.675520570301292333e-05
2.603968253968254043e+00,3.242386988524240181e-05,4.524669077614311932e-06
2.604761904761904834e+00,1.178197684043063988e-05,2.333994900199133106e-05
2.605555555555555625e+00,-1.212359769784654746e-05,3.589437162518623677e-05
2.606349206349206415e+00,-3.459091574009624603e-05,3.990355605901469793e-05
2.607142857142857206e+00,-5.129490945765636736e-05,3.479868392280477716e-05
2.607936507936507997e+00,-5.931843547418708248e-05,2.159802200803696953e-05
2.608730158730158788e+00,-5.780587287643578344e-05,2.537865900454387705e-06
2.609523809523809579e+00,-4.806597357377545272e-05,-1.943040783777100653e-05
2.610317460317460370e+00,-3.310106342773412109e-05,-4.117745281786977101e-05
2.611111111111111160e+00,-1.670945592295169387e-05,-5.988217116364302631e-05
2.611904761904761951e+00,-2.439827941978118442e-06,-7.339941880694674360e-05
2.612698412698412742e+00,7.285361281649861674e-06,-8.046783679385739187e-05
2.613492063492063533e+00,1.163469839384729485e-05,-8.075354410231018129e-05
2.614285714285714324e+00,1.133007356372557782e-05,-7.475979615614667263e-05
2.615079365079365115e+00,8.177503965992372723e-06,-6.364851795471592605e-05
2.615873015873015905e+00,4.353490820090312412e-06,-4.901778387530328547e-05
2.616666666666666696e+00,1.681831392297880828e-06,-3.267192832640871135e-05
2.617460317460317487e+00,1.117986589510707169e-06,-1.641195768982331083e-05
2.618253968253968278e+00,2.583329456241731792e-06,-1.859526889337015107e-06
2.619047619047619069e+00,5.175819751571168535e-06,9.686762735344188637e-06
2.619841269841269860e+00,7.658261302307862203e-06,1.736545610145183438e-05
2.620634920634920650e+00,9.032362210402490620e-06,2.082728054435446316e-05
2.621428571428571441e+00,8.980563920732669551e-06,2.025296252330520842e-05
2.622222222222222232e+00,8.007887865464058375e-06,1.630540251815598007e-05
2.623015873015873023e+00,7.224519952426628036e-06,1.003129898200262909e-05
2.623809523809523814e+00,7.838625107790017809e-06,2.744067876415017826e-06
2.624603174603174605e+00,1.053534814659853350e-05,-4.088374624423332627e-06
2.625396825396825395e+00,1.496853415498290967e-05,-8.960505736759596769e-06
2.626190476190476186e+00,1.957083998258652232e-05,-1.049441423583798317e-05
2.626984126984126977e+00,2.180130475183750800e-05,-7.695526139485523844e-06
2.627777777777777768e+00,1.882028620675640061e-05,-2.835893921593432342e-07
2.628571428571428559e+00,8.441823706181187574e-06,1.100551178051515176e-05
2.629365079365079350e+00,-9.902979111941101909e-06,2.431116035346645503e-05
2.630158730158730140e+00,-3.451482805344757590e-05,3.687333514858763826e-05
2.630952380952380931e+00,-6.137265394024130744e-05,4.561950970357911238e-05
2.631746031746031722e+00,-8.481412754339147538e-05,4.798282014738188846e-05
2.632539682539682513e+00,-9.885461279816817892e-05,4.269475391529424963e-05
2.633333333333333304e+00,-9.880733639091247150e-05,3.026985906207564726e-05
2.634126984126984095e+00,-8.271321840256311677e-05,1.299332248659943697e-05
2.634920634920634885e+00,-5.209963224431227364e-05,-5.608162132985567096e-06
2.635714285714285676e+00,-1.178074150103264233e-05,-2.165820983954022598e-05
2.636507936507936467e+00,3.127519975405388883e-05,-3.191682371932239693e-05
2.637301587301587258e+00,6.967356184139503140e-05,-3.457037134495428727e-05
2.638095238095238049e+00,9.738303843236686659e-05,-2.960342854164844381e-05
2.638888888888888840e+00,1.110441423321024599e-04,-1.866189527219233132e-05
2.639682539682539630e+00,1.104303722061688111e-04,-4.474229967351219084e-06
2.640476190476190421e+00,9.799878665429865980e-05,9.963356764484275466e-06
2.641269841269841212e+00,7.777918908644242840e-05,2.216178895003468693e-05
2.642063492063492003e+00,5.404506643764123825e-05,3.063225296642069971e-05
2.642857142857142794e+00,3.021566452513549497e-05,3.498503174459937872e-05
2.643650793650793585e+00,8.284605199552160624e-06,3.568574872457156057e-05
2.644444444444444375e+00,-1.115084382029655996e-05,3.363983107078777075e-05
2.645238095238095166e+00,-2.838137239271091441e-05,2.980043325348201975e-05
2.646031746031745957e+00,-4.384085355224017269e-05,2.493208541389918396e-05
2.646825396825396748e+00,-5.740889126866691844e-05,1.955998372043681166e-05
2.647619047619047539e+00,-6.801330352583107041e-05,1.404804935701366117e-05
2.648412698412698330e+00,-7.368847524456984281e-05,8.713125936097651587e-06
2.649206349206349120e+00,-7.209932964250716767e-05,3.900389414628300128e-06
2.649999999999999911e+00,-6.138292438723761584e-05,-1.098989483899121027e-08
2.650793650793650702e+00,-4.104028993834577286e-05,-2.666382564667111570e-06
2.651587301587301493e+00,-1.257045002113109109e-05,-3.837948752908389425e-06
2.652380952380952284e+00,2.040549959554442030e-05,-3.547151644655926674e-06
2.653174603174603075e+00,5.263862796613721288e-05,-2.179164642315200114e-06
2.653968253968253865e+00,7.828226548874223068e-05,-5.528037989545085506e-07
2.654761904761904656e+00,9.220507916080302347e-05,9.353755519257452938e-08
2.655555555555555447e+00,9.124562038594549447e-05,-1.767062315829878176e-06
2.656349206349206238e+00,7.507962937732117837e-05,-7.685715056452341364e-06
2.657142857142857029e+00,4.646680354360891525e-05,-1.885169389065315720e-05
2.657936507936507819e+00,1.079280158120479472e-05,-3.563535175101496642e-05
2.658730158730158610e+00,-2.500685301499077639e-05,-5.715391495516263225e-05
2.659523809523809401e+00,-5.390396584997242450e-05,-8.098879816370571963e-05
2.660317460317460192e+00,-7.028976724216384872e-05,-1.031957065699561527e-04
2.661111111111110983e+00,-7.120376216851977331e-05,-1.187258371802259128e-04
2.661904761904761774e+00,-5.699882795017327037e-05,-1.223033741040404005e-04
2.662698412698412564e+00,-3.127621445841341328e-05,-1.096745307804666239e-04
2.663492063492063355e+00,-8.136733632855630261e-08,-7.897648331615850887e-05
2.664285714285714146e+00,2.947300449586604166e-05,-3.182814241066265646e-05
2.665079365079364937e+00,5.083880442816527111e-05,2.629845398692446745e-05
2.665873015873015728e+00,5.952405249465758186e-05,8.673823882096239090e-05
2.666666666666666519e+00,5.407915168551472973e-05,1.393303136422124173e-04
2.667460317460317309e+00,3.634566719417502178e-05,1.747648792800791083e-04
2.668253968253968100e+00,1.092380718834974387e-05,1.868855621583022191e-04
2.669047619047618891e+00,-1.599760621049138099e-05,1.742060624287680660e-04
2.669841269841269682e+00,-3.815710285657656210e-05,1.401674309487861388e-04
2.670634920634920473e+00,-5.070700742300178932e-05,9.211495137963188716e-05
2.671428571428571264e+00,-5.129748545953483567e-05,3.938575888365278028e-05
2.672222222222222054e+00,-4.048801197700884456e-05,-8.892304071073522058e-06
2.673015873015872845e+00,-2.140223745740805185e-05,-4.570598105968526234e-05
2.673809523809523636e+00,1.240728353483326398e-06,-6.735013175668623346e-05
2.674603174603174427e+00,2.240824576818445924e-05,-7.372529661224568650e-05
2.675396825396825218e+00,3.796436047209867428e-05,-6.778365997616791160e-05
2.676190476190476009e+00,4.548173719944716500e-05,-5.435287125700960319e-05
2.676984126984126799e+00,4.449484600163565326e-05,-3.868297453293069861e-05
2.677777777777777590e+00,3.623225780675706363e-05,-2.509299343172435433e-05
2.678571428571428381e+00,2.301423210212660475e-05,-1.603984609603734533e-05
2.679365079365079172e+00,7.555332413066346452e-06,-1.180656107902509559e-05
2.680158730158729963e+00,-7.627254142053920952e-06,-1.083413702598117005e-05
2.680952380952380754e+00,-2.059406482355751527e-05,-1.054358206094577823e-05
2.681746031746031544e+00,-3.014473190231183972e-05,-8.368297316998005555e-06
2.682539682539682335e+00,-3.581129407288111772e-05,-2.685155694354575762e-06
2.683333333333333126e+00,-3.774559928765239958e-05,6.605828007171254798e-06
2.684126984126983917e+00,-3.654883553078273439e-05,1.798691294908485064e-05
2.684920634920634708e+00,-3.307652618315585726e-05,2.871581386301994804e-05
2.685714285714285499e+00,-2.824620268207829810e-05,3.558810797171752335e-05
2.686507936507936289e+00,-2.287389632676113373e-05,3.585815856697593680e-05
2.687301587301587080e+00,-1.756310238812610225e-05,2.806662900552925414e-05
2.688095238095238315e+00,-1.266125798763381228e-05,1.254633875110418179e-05
2.688888888888889106e+00,-8.283460136404312328e-06,-8.536614691564978352e-06
2.689682539682539897e+00,-4.386285111794692801e-06,-3.162145683693076649e-05
2.690476190476190688e+00,-8.632782041040738612e-07,-5.254772748129542232e-05
2.691269841269841478e+00,2.368921964618249709e-06,-6.748102141058489342e-05
2.692063492063492269e+00,5.318890105197558591e-06,-7.371870726246800747e-05
2.692857142857143060e+00,7.913929310293259288e-06,-7.018318479772019212e-05
2.693650793650793851e+00,1.003112372681745653e-05,-5.751870603353687208e-05
2.694444444444444642e+00,1.154563481765323480e-05,-3.782152328049052871e-05
2.695238095238095433e+00,1.237591009346087872e-05,-1.412046043407307268e-05
2.696031746031746223e+00,1.251402847573084630e-05,1.023205342110589707e-05
2.696825396825397014e+00,1.203734758199822796e-05,3.210739441417452745e-05
2.697619047619047805e+00,1.110026681093911976e-05,4.898704375908281399e-05
2.698412698412698596e+00,9.905004052919000164e-06,5.915731380267072063e-05
2.699206349206349387e+00,8.653674623719834644e-06,6.174238560669375805e-05
2.700000000000000178e+00,7.492406057244792407e-06,5.664011250913774829e-05
2.700793650793650968e+00,6.466078730484120351e-06,4.442719335379132482e-05
2.701587301587301759e+00,5.502204262980421179e-06,2.627497327732200672e-05
2.702380952380952550e+00,4.432981918094329404e-06,3.880636453135104029e-06
2.703174603174603341e+00,3.050585331773223666e-06,-2.060874834861378313e-05
2.703968253968254132e+00,1.179203011902824137e-06,-4.470733918101696972e-05
2.704761904761904923e+00,-1.256768132504468468e-06,-6.575260960695878786e-05
2.705555555555555713e+00,-4.185760513199163733e-06,-8.112232315894643434e-05
2.706349206349206504e+00,-7.374096181692729656e-06,-8.851014584966763435e-05
2.707142857142857295e+00,-1.044711159134026045e-05,-8.626174168988204360e-05
2.707936507936508086e+00,-1.294398240695688549e-05,-7.374410716771365865e-05
2.708730158730158877e+00,-1.439737099269434532e-05,-5.166568712704370717e-05
2.709523809523809668e+00,-1.442310760627174837e-05,-2.222394433236717632e-05
2.710317460317460458e+00,-1.280238206903075290e-05,1.102827943494567722e-05
2.711111111111111249e+00,-9.541119720361132891e-06,4.363601291004090907e-05
2.711904761904762040e+00,-4.895253062027074290e-06,7.096089082146180135e-05
2.712698412698412831e+00,6.483640830982181866e-07,8.902907750509299182e-05
2.713492063492063622e+00,6.444677122939545162e-06,9.532096831261154630e-05
2.714285714285714413e+00,1.181411301514027499e-05,8.931153365387042831e-05
2.715079365079365203e+00,1.618797673530037636e-05,7.262151880033418968e-05
2.715873015873015994e+00,1.922115732069304750e-05,4.873224595276328991e-05
2.716666666666666785e+00,2.081943970378213478e-05,2.231799399214654670e-05
2.717460317460317576e+00,2.106742362782989105e-05,-1.670837736396068203e-06
2.718253968253968367e+00,2.009892612183898376e-05,-1.899531655868273670e-05
2.719047619047619158e+00,1.798616309038510649e-05,-2.699040490292839317e-05
2.719841269841269948e+00,1.471150784318696924e-05,-2.511040729167236506e-05
2.720634920634920739e+00,1.023693971196399627e-05,-1.500488047718173973e-05
2.721428571428571530e+00,4.635801686968689875e-06,-7.092582749700489702e-08
2.722222222222222321e+00,-1.775077503518177890e-06,1.542264737935723654e-05
2.723015873015873112e+00,-8.364883247149940135e-06,2.740252789414789912e-05
2.723809523809523903e+00,-1.422516632529869464e-05,3.294881053354329492e-05
2.724603174603174693e+00,-1.833116522606997910e-05,3.088380478084242658e-05
2.725396825396825484e+00,-1.980797551972418580e-05,2.185867059505013481e-05
2.726190476190476275e+00,-1.823349689539334798e-05,7.971579322221107150e-06
2.726984126984127066e+00,-1.386806204949401176e-05,-7.905003683813682333e-06
2.727777777777777857e+00,-7.693197467012031796e-06,-2.284948320188721861e-05
2.728571428571428648e+00,-1.192072363533197290e-06,-3.447070401822224632e-05
2.729365079365079438e+00,4.093587134737645620e-06,-4.124561925359038423e-05
2.730158730158730229e+00,7.082176793295861541e-06,-4.261770888043352190e-05
2.730952380952381020e+00,7.534816471826695241e-06,-3.891456464930961602e-05
2.731746031746031811e+00,6.122501842847181122e-06,-3.115454637686452855e-05
2.732539682539682602e+00,4.126467196146100707e-06,-2.079891329626105977e-05
2.733333333333333393e+00,2.886454612356164136e-06,-9.485347907597999208e-06
2.734126984126984183e+00,3.229130704612986015e-06,1.235184520122527139e-06
2.734920634920634974e+00,5.116749137513752920e-06,1.013414776492012356e-05
2.735714285714285765e+00,7.655460324227453207e-06,1.647661765881484763e-05
2.736507936507936556e+00,9.449024215097289291e-06,2.008799576449137321e-05
2.737301587301587347e+00,9.148604360791800149e-06,2.129632780537514040e-05
2.738095238095238138e+00,5.983883772300535340e-06,2.076247881906369538e-05
2.738888888888888928e+00,7.955798666720526408e-08,1.923824993198246659e-05
2.739682539682539719e+00,-7.553251600417739645e-06,1.731245869708393360e-05
2.740476190476190510e+00,-1.534392651335372487e-05,1.521858570033474284e-05
2.741269841269841301e+00,-2.169089084867108046e-05,1.277634337960684393e-05
2.742063492063492092e+00,-2.550639464493246883e-05,9.509431610043547720e-06
2.742857142857142883e+00,-2.658606482007465764e-05,4.921397896783246285e-06
2.743650793650793673e+00,-2.566931050363896577e-05,-1.159317491485446532e-06
2.744444444444444464e+00,-2.415954309421964786e-05,-8.302886278439326490e-06
2.745238095238095255e+00,-2.359052698806979952e-05,-1.540483472413164972e-05
2.746031746031746046e+00,-2.501969427276616153e-05,-2.088461464077924371e-05
2.746825396825396837e+00,-2.856395296818457281e-05,-2.311611881775550725e-05
2.747619047619047628e+00,-3.324728322336236743e-05,-2.094884432755442588e-05
2.748412698412698418e+00,-3.721484588438538375e-05,-1.413453461305610241e-05
2.749206349206349209e+00,-3.823382423748195529e-05,-3.507140944412187123e-06
2.750000000000000000e+00,-3.430843417705071422e-05,9.145473508388170611e-06
2.750793650793650791e+00,-2.422335219148071315e-05,2.147236615871609338e-05
2.751587301587301582e+00,-7.885794911525736219e-06,3.108582517977104195e-05
2.752380952380952372e+00,1.358443640540793418e-05,3.607053802376230004e-05
2.753174603174603163e+00,3.800744987555559461e-05,3.535576849786095215e-05
2.753968253968253954e+00,6.249816278430096901e-05,2.889370652040516461e-05
2.754761904761904745e+00,8.396545011898903788e-05,1.764276704947386929e-05
2.755555555555555536e+00,9.966977019311484885e-05,3.384203391289852400e-06
2.756349206349206327e+00,1.077173592254416958e-04,-1.158886057880177773e-05
2.757142857142857117e+00,1.073606916358607003e-04,-2.486300012499115882e-05
2.757936507936507908e+00,9.902982251461866039e-05,-3.431840730261042060e-05
2.758730158730158699e+00,8.411910795082163392e-05,-3.849836296955663572e-05
2.759523809523809490e+00,6.463406224534668572e-05,-3.687003778354311725e-05
2.760317460317460281e+00,4.281861378225518023e-05,-2.992825057625168197e-05
2.761111111111111072e+00,2.084342389905887702e-05,-1.911891360378522361e-05
2.761904761904761862e+00,5.802765632372168493e-07,-6.588267355332747093e-06
2.762698412698412653e+00,-1.655051880320082124e-05,5.203742949370588441e-06
2.763492063492063444e+00,-2.967908408601389666e-05,1.393491940258093930e-05
2.764285714285714235e+00,-3.853341939693591368e-05,1.784591677238976301e-05
2.765079365079365026e+00,-4.341922859231127070e-05,1.605632174863662448e-05
2.765873015873015817e+00,-4.511515117401624839e-05,8.722861607683847938e-06
2.766666666666666607e+00,-4.468542147687276785e-05,-2.974331448050539694e-06
2.767460317460317398e+00,-4.324073562892692012e-05,-1.701293488787550110e-05
2.768253968253968189e+00,-4.170197406110029176e-05,-3.086152000766489322e-05
2.769047619047618980e+00,-4.062701805750648816e-05,-4.192703957316901495e-05
2.769841269841269771e+00,-4.014270984836291334e-05,-4.804691824628140064e-05
2.770634920634920562e+00,-3.998974563576773521e-05,-4.793253214602406515e-05
2.771428571428571352e+00,-3.965465574278942429e-05,-4.146985370324946250e-05
2.772222222222222143e+00,-3.854348420248287783e-05,-2.979975657615093507e-05
2.773015873015872934e+00,-3.614971718484828164e-05,-1.512904551515387492e-05
2.773809523809523725e+00,-3.218079929550127319e-05,-2.703043505070491510e-07
2.774603174603174516e+00,-2.662628035963231850e-05,1.201996278424778319e-05
2.775396825396825307e+00,-1.976734529556141949e-05,1.975433648721723750e-05
2.776190476190476097e+00,-1.213605976939478661e-05,2.227376120100711874e-05
2.776984126984126888e+00,-4.434606504828999351e-06,2.045934972400291241e-05
2.777777777777777679e+00,2.574063848624113984e-06,1.649264891674427711e-05
2.778571428571428470e+00,8.189628368554249129e-06,1.320190015627280295e-05
2.779365079365079261e+00,1.189407462827466149e-05,1.317205823121430299e-05
2.780158730158730052e+00,1.344870063708267567e-05,1.788329648423303645e-05
2.780952380952380842e+00,1.295017533550324356e-05,2.714626872772008323e-05
2.781746031746031633e+00,1.083002851467089791e-05,3.902060492050430187e-05
2.782539682539682424e+00,7.788659108061813887e-06,5.026044284146771615e-05
2.783333333333333215e+00,4.667937346101479176e-06,5.717113830404305525e-05
2.784126984126984006e+00,2.283742293369797055e-06,5.663609270025087499e-05
2.784920634920634797e+00,1.254465058180801620e-06,4.702364000916064535e-05
2.785714285714285587e+00,1.866317941063847856e-06,2.872552657674420774e-05
2.786507936507936378e+00,4.008749159775242213e-06,4.190945612450811099e-06
2.787301587301587169e+00,7.196540610810490439e-06,-2.253987057296091097e-05
2.788095238095237960e+00,1.067472908197358092e-05,-4.667565216582909469e-05
2.788888888888888751e+00,1.358313683910443994e-05,-6.368329591609941096e-05
2.789682539682539542e+00,1.514288508216631851e-05,-7.023813515706434703e-05
2.790476190476190332e+00,1.482157698789338106e-05,-6.491402405362314311e-05
2.791269841269841123e+00,1.243988589451037883e-05,-4.847898409137643450e-05
2.792063492063491914e+00,8.199488300217804706e-06,-2.375103799078336748e-05
2.792857142857142705e+00,2.634547157488205439e-06,4.941231079269555522e-06
2.793650793650793496e+00,-3.492849947886535876e-06,3.257453844765816813e-05
2.794444444444444287e+00,-9.325025487592708231e-06,5.435834452297407058e-05
2.795238095238095077e+00,-1.404262292905908783e-05,6.659880170311151867e-05
2.796031746031745868e+00,-1.698105720482698803e-05,6.734596499277070887e-05
2.796825396825396659e+00,-1.771852100396820770e-05,5.671600361537595356e-05
2.797619047619047450e+00,-1.613163968857809388e-05,3.684202342517646869e-05
2.798412698412698241e+00,-1.241886541895915335e-05,1.147441979242576492e-05
2.799206349206349032e+00,-7.090040905442754636e-06,-1.469522512333712431e-05
2.799999999999999822e+00,-9.146632550442754854e-07,-3.688223225112243105e-05
2.800793650793650613e+00,5.181463349765003096e-06,-5.110388815419159844e-05
2.801587301587301404e+00,1.027314225915008919e-05,-5.497151441006053405e-05
2.802380952380952195e+00,1.362612638412420961e-05,-4.820686723247359705e-05
2.803174603174602986e+00,1.487184975900073124e-05,-3.272018335410758431e-05
2.803968253968253777e+00,1.409918095394828587e-05,-1.216618577492263142e-05
2.804761904761904567e+00,1.180837356639295248e-05,8.951667296327729903e-06
2.805555555555555358e+00,8.722095279985782261e-06,2.638503411455058294e-05
2.806349206349206149e+00,5.515903614881931313e-06,3.711490599990726930e-05
2.807142857142856940e+00,2.578548055341913640e-06,3.991119399150065651e-05
2.807936507936507731e+00,-9.058837425415472105e-08,3.536556610076454983e-05
2.808730158730158522e+00,-2.796933248999811190e-06,2.547726908866330525e-05
2.809523809523809312e+00,-5.911704196964712986e-06,1.298971225949754547e-05
2.810317460317460103e+00,-9.578131001662107811e-06,6.931031037492428999e-07
2.811111111111110894e+00,-1.348665368527802035e-05,-9.144757604858478944e-06
2.811904761904761685e+00,-1.681857000937187388e-05,-1.513492290938022348e-05
2.812698412698412920e+00,-1.839746097269499977e-05,-1.689350772966492732e-05
2.813492063492063711e+00,-1.701567488980221840e-05,-1.496315404835293863e-05
2.814285714285714501e+00,-1.184571170307379153e-05,-1.057759596324547949e-05
2.815079365079365292e+00,-2.819072976466752899e-06,-5.328264179480179649e-06
2.815873015873016083e+00,9.142725540933144480e-06,-7.974308058104228295e-07
2.816666666666666874e+00,2.213525617894233487e-05,1.776881931864875779e-06
2.817460317460317665e+00,3.355981087417537009e-05,1.744842713024306292e-06
2.818253968253968456e+00,4.066834450866004111e-05,-8.467012852691156891e-07
2.819047619047619246e+00,4.125924733235869453e-05,-5.299736081733793291e-06
2.819841269841270037e+00,3.434874091832332759e-05,-1.045001560892434480e-05
2.820634920634920828e+00,2.061219270259237311e-05,-1.494497182454280701e-05
2.821428571428571619e+00,2.423357191653871945e-06,-1.754844740985324754e-05
2.822222222222222410e+00,-1.657856466144977576e-05,-1.740649211113096822e-05
2.823015873015873201e+00,-3.232216793794475974e-05,-1.422715526965376054e-05
2.823809523809523991e+00,-4.133126186706885617e-05,-8.352194806404305189e-06
2.824603174603174782e+00,-4.165898969318006332e-05,-7.183541936960479879e-07
2.825396825396825573e+00,-3.344424344429906229e-05,7.282273387104380563e-06
2.826190476190476364e+00,-1.890420084734029590e-05,1.402637892565395578e-05
2.826984126984127155e+00,-1.746662122610677475e-06,1.794529639335180231e-05
2.827777777777777946e+00,1.383055123658664307e-05,1.783769856306966623e-05
2.828571428571428736e+00,2.425546357189107294e-05,1.315455335594337077e-05
2.829365079365079527e+00,2.748563048011475976e-05,4.185375194319458685e-06
2.830158730158730318e+00,2.345386559893963309e-05,-7.920816048799027588e-06
2.830952380952381109e+00,1.396772215294357777e-05,-2.133247850669853712e-05
2.831746031746031900e+00,2.137735949198319794e-06,-3.388710658644239970e-05
2.832539682539682691e+00,-8.480822540873896807e-06,-4.353645766588332480e-05
2.833333333333333481e+00,-1.480396935146315121e-05,-4.876964902381093178e-05
2.834126984126984272e+00,-1.496889764623356689e-05,-4.890194091817070735e-05
2.834920634920635063e+00,-8.740671407959969708e-06,-4.415896041129964878e-05
2.835714285714285854e+00,2.510223558634822637e-06,-3.555024949327592989e-05
2.836507936507936645e+00,1.622746444680735713e-05,-2.458626559436710143e-05
2.837301587301587436e+00,2.934812900160780111e-05,-1.292541440852808493e-05
2.838095238095238226e+00,3.904689405607816600e-05,-2.035586943736682984e-06
2.838888888888889017e+00,4.335550214597149241e-05,7.067955224672318130e-06
2.839682539682539808e+00,4.152515928774869446e-05,1.397014918916861112e-05
2.840476190476190599e+00,3.408187908110532133e-05,1.886908555233674515e-05
2.841269841269841390e+00,2.260110647563908233e-05,2.245393867833302983e-05
2.842063492063492181e+00,9.280527968085148981e-06,2.567429556061642226e-05
2.842857142857142971e+00,-3.581033794636579648e-06,2.945471774436187557e-05
2.843650793650793762e+00,-1.407979474168832581e-05,3.442263046293716350e-05
2.844444444444444553e+00,-2.106798853089877674e-05,4.071174515601231003e-05
2.845238095238095344e+00,-2.430306459841089737e-05,4.788239964594277000e-05
2.846031746031746135e+00,-2.436484202561940845e-05,5.497315529973571471e-05
2.846825396825396925e+00,-2.238334382103952265e-05,6.066968003479638943e-05
2.847619047619047716e+00,-1.966736998709214831e-05,6.355338287976984688e-05
2.848412698412698507e+00,-1.734011344140932206e-05,6.238160743021506599e-05
2.849206349206349298e+00,-1.607263636911796561e-05,5.635302700498067693e-05
2.850000000000000089e+00,-1.596963352321836436e-05,4.531628050202729725e-05
2.850793650793650880e+00,-1.661793880424040183e-05,2.988187772918210545e-05
2.851587301587301670e+00,-1.726743208204107449e-05,1.140261604336590866e-05
2.852380952380952461e+00,-1.708456179098260435e-05,-8.195361280876483929e-06
2.853174603174603252e+00,-1.540627612962072640e-05,-2.671573060631633222e-05
2.853968253968254043e+00,-1.192875412978448123e-05,-4.207177646183773523e-05
2.854761904761904834e+00,-6.788881866608528368e-06,-5.265419709636960817e-05
2.855555555555555625e+00,-5.303534948575740636e-07,-5.759880527453229088e-05
2.856349206349206415e+00,6.020828760624325278e-06,-5.689763978975221769e-05
2.857142857142857206e+00,1.192724848155857241e-05,-5.134136157947361923e-05
2.857936507936507997e+00,1.631270675912909477e-05,-4.231911806270335067e-05
2.858730158730158788e+00,1.850515879374064836e-05,-3.152588938911281329e-05
2.859523809523809579e+00,1.813446366688879833e-05,-2.063681472010387796e-05
2.860317460317460370e+00,1.518031423643472497e-05,-1.100655049010476482e-05
2.861111111111111160e+00,9.970519608327284698e-06,-3.443857917959541253e-06
2.861904761904761951e+00,3.131822174425368928e-06,1.898149487868754186e-06
2.862698412698412742e+00,-4.501746541067474413e-06,5.487013954957090214e-06
2.863492063492063533e+00,-1.201257799599547959e-05,8.221944586492375761e-06
2.864285714285714324e+00,-1.853772167060263305e-05,1.111759837326510691e-05
2.865079365079365115e+00,-2.339804531660666693e-05,1.493460719822459521e-05
2.865873015873015905e+00,-2.619342135520862620e-05,1.986705305770323490e-05
2.866666666666666696e+00,-2.684503305354662254e-05,2.539692871169308170e-05
2.867460317460317487e+00,-2.557826248050906322e-05,3.037996332541094855e-05
2.868253968253968278e+00,-2.285347581559339726e-05,3.334948987850516760e-05
2.869047619047619069e+00,-1.926178691385785742e-05,3.294366633155234610e-05
2.869841269841269860e+00,-1.540672812383208606e-05,2.831026205509881732e-05
2.870634920634920650e+00,-1.179294951509845269e-05,1.935106166571692727e-05
2.871428571428571441e+00,-8.741625669334467184e-06,6.738401279239650842e-06
2.872222222222222232e+00,-6.348176919032798253e-06,-8.265791405412120250e-06
2.873015873015873023e+00,-4.489824461754775272e-06,-2.408786766536356023e-05
2.873809523809523814e+00,-2.879523054834991216e-06,-3.910719971561668791e-05
2.874603174603174605e+00,-1.151558299133691597e-06,-5.183937793271197733e-05
2.875396825396825395e+00,1.044466591755443013e-06,-6.102707698848976512e-05
2.876190476190476186e+00,3.966412346687382000e-06,-6.567180038809708313e-05
2.876984126984126977e+00,7.736294707920832718e-06,-6.505916652612023330e-05
2.877777777777777768e+00,1.233210478678896148e-05,-5.882455309864504772e-05
2.878571428571428559e+00,1.760074974299573902e-05,-4.707562296739054947e-05
2.879365079365079350e+00,2.327354788311395407e-05,-3.054180678463783995e-05
2.880158730158730140e+00,2.897495370093293115e-05,-1.067910793139989699e-05
2.880952380952380931e+00,3.423110923335089852e-05,1.035582537153408206e-05
2.881746031746031722e+00,3.849526417016300214e-05,2.992479832077012662e-05
2.882539682539682513e+00,4.120403515294657388e-05,4.532191286889730372e-05
2.883333333333333304e+00,4.186346886083068270e-05,5.429912632092868236e-05
2.884126984126984095e+00,4.014653752039227603e-05,5.555168992247280031e-05
2.884920634920634885e+00,3.597459490686041883e-05,4.901197525025619185e-05
2.885714285714285676e+00,2.955862030305846460e-05,3.588104934985633865e-05
2.886507936507936467e+00,2.138782030428656774e-05,1.843024312000625522e-05
2.887301587301587258e+00,1.216638048202790489e-05,-3.430503144329740387e-07
2.888095238095238049e+00,2.709915074321571327e-06,-1.713659462359680760e-05
2.888888888888888840e+00,-6.178602563539175114e-06,-2.881453664897011695e-05
2.889682539682539630e+00,-1.382785093260287197e-05,-3.291916801229893261e-05
2.890476190476190421e+00,-1.978612216908237270e-05,-2.818468532539878283e-05
2.891269841269841212e+00,-2.386105468006075603e-05,-1.495360704364193884e-05
2.892063492063492003e+00,-2.611028615621459144e-05,4.653106501836256300e-06
2.892857142857142794e+00,-2.679639547816032016e-05,2.695209402370308125e-05
2.893650793650793585e+00,-2.632208974622405611e-05,4.735039577975451566e-05
2.894444444444444375e+00,-2.515401130121752682e-05,6.133984430073607193e-05
2.895238095238095166e+00,-2.373754261383831152e-05,6.559580794805066456e-05
2.896031746031745957e+00,-2.240957397846873276e-05,5.886945737787232629e-05
2.896825396825396748e+00,-2.132750160218683009e-05,4.239422557597816540e-05
2.897619047619047539e+00,-2.043817409985078064e-05,1.965747702792793310e-05
2.898412698412698330e+00,-1.950191963054927191e-05,-4.426925058721700840e-06
2.899206349206349120e+00,-1.816837237583730460e-05,-2.473411016126427680e-05
2.899999999999999911e+00,-1.608437100468254927e-05,-3.720998887359964607e-05
2.900793650793650702e+00,-1.300745510096544873e-05,-3.987827653582304917e-05
2.901587301587301493e+00,-8.899897225237079975e-06,-3.330211311328415462e-05
2.902380952380952284e+00,-3.982614115329436792e-06,-2.037017732349270829e-05
2.903174603174603075e+00,1.266259643727135949e-06,-5.456032929619805623e-06
2.903968253968253865e+00,6.175774073143268519e-06,6.824176993858349840e-06
2.904761904761904656e+00,1.000614083353403395e-05,1.290269036667724279e-05
2.905555555555555447e+00,1.211358233885549612e-05,1.121627713263728909e-05
2.906349206349206238e+00,1.211966862581325517e-05,2.544303341492799198e-06
2.907142857142857029e+00,1.003705555239576992e-05,-1.034625630116230605e-05
2.907936507936507819e+00,6.309330646179565358e-06,-2.359594855592525025e-05
2.908730158730158610e+00,1.748545093612622572e-06,-3.338543565159392805e-05
2.909523809523809401e+00,-2.612667963614157257e-06,-3.697130296185240528e-05
2.910317460317460192e+00,-5.714578026409408301e-06,-3.335654137196252856e-05
2.911111111111110983e+00,-6.665550844490769366e-06,-2.344968755572270544e-05
2.911904761904761774e+00,-4.905693869616460404e-06,-9.711307706237232211e-06
2.912698412698412564e+00,-3.214810549070802801e-07,4.578578462525149939e-06
2.913492063492063355e+00,6.693859754475039683e-06,1.620843354668060287e-05
2.914285714285714146e+00,1.523645390427694019e-05,2.283687126699696074e-05
2.915079365079364937e+00,2.395446691560467850e-05,2.351841612314570760e-05
2.915873015873015728e+00,3.119927250698005229e-05,1.885105064995536660e-05
2.916666666666666519e+00,3.528637106861443463e-05,1.073164120341597486e-05
2.917460317460317309e+00,3.485913197735035312e-05,1.787592275272656811e-06
2.918253968253968100e+00,2.929563281413724576e-05,-5.368690748576409997e-06
2.919047619047618891e+00,1.904558179766062065e-05,-8.859534367012454232e-06
2.919841269841269682e+00,5.762495412146759652e-06,-8.029217626351656229e-06
2.920634920634920473e+00,-7.870980155166894940e-06,-3.555861461097932234e-06
2.921428571428571264e+00,-1.864018143052279767e-05,2.837896258296296942e-06
2.922222222222222054e+00,-2.352462557984131693e-05,8.967855869011715357e-06
2.923015873015872845e+00,-2.047568015406896384e-05,1.285375732299106884e-05
2.923809523809523636e+00,-9.041232410943931375e-06,1.322814829397432695e-05
2.924603174603174427e+00,9.333037246473246680e-06,9.722286642465866112e-06
2.925396825396825218e+00,3.141854768138332098e-05,2.715806824283727328e-06
2.926190476190476009e+00,5.273218529831429281e-05,-7.004230971029109566e-06
2.926984126984126799e+00,6.838698865483190312e-05,-1.855421132650071755e-05
2.927777777777777590e+00,7.410699933783862112e-05,-3.106546571603547360e-05
2.928571428571428381e+00,6.720571346632552034e-05,-4.357186832140676821e-05
2.929365079365079172e+00,4.731293056057373067e-05,-5.480205915132866631e-05
2.930158730158729963e+00,1.665861634383203595e-05,-6.307784023811724872e-05
2.930952380952380754e+00,-2.020465773855902700e-05,-6.647027121138264906e-05
2.931746031746031544e+00,-5.723841512562310920e-05,-6.322383520924788707e-05
2.932539682539682335e+00,-8.816359838691930912e-05,-5.231334312306966936e-05
2.933333333333333126e+00,-1.078288774274654402e-04,-3.392448647528372422e-05
2.934126984126983917e+00,-1.133470512304616970e-04,-9.665326712137295507e-06
2.934920634920634708e+00,-1.046830939955595865e-04,1.760482262172522388e-05
2.935714285714285499e+00,-8.452692679105615477e-05,4.433109741208978057e-05
2.936507936507936289e+00,-5.749956162345522032e-05,6.708110740724206674e-05
2.937301587301587080e+00,-2.894624962145249966e-05,8.339523709276519027e-05
2.938095238095238315e+00,-3.688290282086263548e-06,9.239413531748357400e-05
2.938888888888889106e+00,1.490990993351085287e-05,9.492197557798523911e-05
2.939682539682539897e+00,2.534439312994716487e-05,9.315050790176231533e-05
2.940476190476190688e+00,2.783810905500172354e-05,8.975720888946096007e-05
2.941269841269841478e+00,2.383864809516542934e-05,8.694697033874158507e-05
2.942063492063492269e+00,1.539156559733929745e-05,8.564606445924605941e-05
2.942857142857143060e+00,4.603037207530710812e-06,8.513477335347038909e-05
2.943650793650793851e+00,-6.687654991037586491e-06,8.322819624886177597e-05
2.944444444444444642e+00,-1.700906573537747115e-05,7.692958017687971867e-05
2.945238095238095433e+00,-2.519534803295198769e-05,6.334166874892821182e-05
2.946031746031746223e+00,-3.026507192257536379e-05,4.057437252010927752e-05
2.946825396825397014e+00,-3.134302759252686354e-05,8.425876220769486029e-06
2.947619047619047805e+00,-2.768818708519560525e-05,-3.130265967837613325e-05
2.948412698412698596e+00,-1.883379937736977960e-05,-7.491267638703071193e-05
2.949206349206349387e+00,-4.793368092133829943e-06,-1.173166409484106788e-04
2.950000000000000178e+00,1.374333023857215380e-05,-1.528714721619277815e-04
2.950793650793650968e+00,3.530171219608116195e-05,-1.764005530185858725e-04
2.951587301587301759e+00,5.765768400203865734e-05,-1.842128725189974591e-04
2.952380952380952550e+00,7.803979129393806438e-05,-1.748950190197841455e-04
2.953174603174603341e+00,9.348740143099134778e-05,-1.496683517129919732e-04
2.953968253968254132e+00,1.013242601353644290e-04,-1.121862554923874999e-04
2.954761904761904923e+00,9.967545333644677497e-05,-6.778455004815159843e-05
2.955555555555555713e+00,8.792152679365436701e-05,-2.235417859802922165e-05
2.956349206349206504e+00,6.696419701148967341e-05,1.887198657997500568e-05
2.957142857142857295e+00,3.920005104910156171e-05,5.228542044023216798e-05
2.957936507936508086e+00,8.167762037434915209e-06,7.635805837250954722e-05
2.958730158730158877e+00,-2.207364516045126379e-05,9.149359872621208177e-05
2.959523809523809668e+00,-4.769876381419959569e-05,9.938414882017038903e-05
2.960317460317460458e+00,-6.582444849127254741e-05,1.021330858219120561e-04
2.961111111111111249e+00,-7.500226336777684436e-05,1.014407463167352500e-04
2.961904761904762040e+00,-7.537512581393685375e-05,9.807933052373485393e-05
2.962698412698412831e+00,-6.846339825562030689e-05,9.176566092802342404e-05
2.963492063492063622e+00,-5.664612533651940151e-05,8.142760033538169880e-05
2.964285714285714413e+00,-4.249237414189539519e-05,6.577142872301633446e-05
2.965079365079365203e+00,-2.814274344916838707e-05,4.399279124366591920e-05
2.965873015873015994e+00,-1.491833310637540795e-05,1.643098775588644247e-05
2.966666666666666785e+00,-3.249083522880536586e-06,-1.504583546473287653e-05
2.967460317460317576e+00,7.099022394782917475e-06,-4.709373426779572662e-05
2.968253968253968367e+00,1.661334618045315421e-05,-7.543707058229265838e-05
2.969047619047619158e+00,2.560298888076995022e-05,-9.579595832905643754e-05
2.969841269841269948e+00,3.389928212383658951e-05,-1.049537634885108127e-04
2.970634920634920739e+00,4.078573940347542153e-05,-1.016654814341826638e-04
2.971428571428571530e+00,4.517392288917205519e-05,-8.713986195167865926e-05
2.972222222222222321e+00,4.596189363471543698e-05,-6.492848838969889395e-05
2.973015873015873112e+00,4.245712010745784400e-05,-4.019944694647437051e-05
2.973809523809523903e+00,3.472849996231220884e-05,-1.853359950802552556e-05
2.974603174603174693e+00,2.377033788555667278e-05,-4.522073202172791613e-06
2.975396825396825484e+00,1.140469137367282642e-05,-5.261888976880106620e-07
2.976190476190476275e+00,-9.007711781149228596e-08,-5.953718000809984920e-06
2.976984126984127066e+00,-8.561396562589984615e-06,-1.729476164529423520e-05
2.977777777777777857e+00,-1.263384442256207714e-05,-2.896699176849168951e-05
2.978571428571428648e+00,-1.223346051383473749e-05,-3.479766175990406922e-05
2.979365079365079438e+00,-8.790270056296475238e-06,-2.978239462787887437e-05
2.980158730158730229e+00,-4.999242335154138262e-06,-1.165580530188144951e-05
2.980952380952381020e+00,-4.150963756338625952e-06,1.818600640380191877e-05
2.981746031746031811e+00,-9.184483735383152688e-06,5.474267103404403719e-05
2.982539682539682602e+00,-2.171630011258453692e-05,9.053086547163175510e-05
2.983333333333333393e+00,-4.132809165601277764e-05,1.175278804761192071e-04
2.984126984126984183e+00,-6.534108828064352065e-05,1.293869513069150759e-04
2.984920634920634974e+00,-8.918075105767575171e-05,1.232266956467948228e-04
2.985714285714285765e+00,-1.072787694674963915e-04,1.004191014982224671e-04
2.986507936507936556e+00,-1.143166897607983721e-04,6.615743345681088727e-05
2.987301587301587347e+00,-1.065217237446882499e-04,2.800089911287640554e-05
2.988095238095238138e+00,-8.269673257385437082e-05,-6.120327273441852004e-06
2.988888888888888928e+00,-4.471020861956998726e-05,-2.987257996481194189e-05
2.989682539682539719e+00,2.709239273640027295e-06,-3.996994851462475664e-05
2.990476190476190510e+00,5.285228207123284801e-05,-3.678565912601094724e-05
2.991269841269841301e+00,9.837332550940262334e-05,-2.400672906400888837e-05
2.992063492063492092e+00,1.327596456133069364e-04,-7.445291556775741539e-06
2.992857142857142883e+00,1.515573955203007822e-04,6.659644226264941602e-06
2.993650793650793673e+00,1.530707650211289887e-04,1.337091909489305667e-05
2.994444444444444464e+00,1.384136827634949835e-04,1.032637893940827991e-05
2.995238095238095255e+00,1.109785964410003287e-04,-1.783993066839061765e-06
2.996031746031746046e+00,7.553216629093533472e-05,-1.962862622323214328e-05
2.996825396825396837e+00,3.720907177707508996e-05,-3.836056969602984451e-05
2.997619047619047628e+00,6.448863807095563206e-07,-5.309495412205793546e-05
2.998412698412698418e+00,-3.060388416082620981e-05,-6.030330921243845889e-05
2.999206349206349209e+00,-5.431412547957769211e-05,-5.874719420698131233e-05
3.000000000000000000e+00,-6.957361918340924966e-05,-4.972360857990265690e-05
3.000793650793650791e+00,-7.657605309709190206e-05,-3.658431211684371007e-05
3.001587301587301582e+00,-7.633258765382216994e-05,-2.366995338017223254e-05
3.002380952380952372e+00,-7.037672910371024575e-05,-1.493846000586785796e-05
3.003174603174603163e+00,-6.050554814071213875e-05,-1.265369051615162523e-05
3.003968253968253954e+00,-4.856740120598509872e-05,-1.651920528784778889e-05
3.004761904761904745e+00,-3.628406412943747835e-05,-2.356764793222261478e-05
3.005555555555555536e+00,-2.508982751257840212e-05,-2.893487104847630245e-05
3.006349206349206327e+00,-1.598144306533886468e-05,-2.738114293411460820e-05
3.007142857142857117e+00,-9.394929619223728944e-06,-1.513680726513730749e-05
3.007936507936507908e+00,-5.147363393492241050e-06,8.542294942151721398e-06
3.008730158730158699e+00,-2.488364139378679004e-06,4.070492189216121738e-05
3.009523809523809490e+00,-2.851168936289597691e-07,7.523868048255496186e-05
3.010317460317460281e+00,2.678395278782913055e-06,1.044838078738689939e-04
3.011111111111111072e+00,7.350867014779738072e-06,1.213893306362100199e-04
3.011904761904761862e+00,1.409818861560885730e-05,1.214829717551855559e-04
3.012698412698412653e+00,2.250764867919595637e-05,1.040313051730622972e-04
3.013492063492063444e+00,3.137656657847703211e-05,7.209842594284025688e-05
3.014285714285714235e+00,3.891758402103017919e-05,3.160313434791623050e-05
3.015079365079365026e+00,4.316620832597137545e-05,-1.024097766944674812e-05
3.015873015873015817e+00,4.251541751438634039e-05,-4.661847750068178977e-05
3.016666666666666607e+00,3.624287409157061140e-05,-7.250997260810912925e-05
3.017460317460317398e+00,2.486909743599313063e-05,-8.550771288644461177e-05
3.018253968253968189e+00,1.021218188026499060e-05,-8.593768274416534907e-05
3.019047619047618980e+00,-4.919125067377765288e-06,-7.635737787283595492e-05
3.019841269841269771e+00,-1.735179861007034384e-05,-6.064494139389722040e-05
3.020634920634920562e+00,-2.435295620295116270e-05,-4.296636513556365239e-05
3.021428571428571352e+00,-2.439756213287409676e-05,-2.688674819561723717e-05
3.022222222222222143e+00,-1.766711497960726505e-05,-1.480009735811520741e-05
3.023015873015872934e+00,-6.106665617243311502e-06,-7.733627936844401709e-06
3.023809523809523725e+00,7.005912728717041899e-06,-5.480392454192833849e-06
3.024603174603174516e+00,1.787499559406410839e-05,-6.952988904780292416e-06
3.025396825396825307e+00,2.316578118782081032e-05,-1.063011594631724445e-05
3.026190476190476097e+00,2.087951091123735307e-05,-1.497319594014835544e-05
3.026984126984126888e+00,1.089357677246499419e-05,-1.871816282743188911e-05
3.027777777777777679e+00,-4.967782775677071538e-06,-2.100188616329295093e-05
3.028571428571428470e+00,-2.334183064621221930e-05,-2.134820779192696152e-05
3.029365079365079261e+00,-4.010805656919702247e-05,-1.957693500457011675e-05
3.030158730158730052e+00,-5.135052538766177643e-05,-1.569085742527702977e-05
3.030952380952380842e+00,-5.427046106690979035e-05,-9.767602041442320155e-06
3.031746031746031633e+00,-4.782751164956898011e-05,-1.873618239813491431e-06
3.032539682539682424e+00,-3.295383235834095127e-05,7.970187180402748942e-06
3.033333333333333215e+00,-1.229918872650715832e-05,1.973700044032366144e-05
3.034126984126984006e+00,1.040412888581141914e-05,3.324813838743221445e-05
3.034920634920634797e+00,3.116885235750269090e-05,4.797366385692653932e-05
3.035714285714285587e+00,4.655484119311168980e-05,6.286885812188725052e-05
3.036507936507936378e+00,5.426945335776891990e-05,7.635188114589350162e-05
3.037301587301587169e+00,5.347400669877756980e-05,8.649105710700268903e-05
3.038095238095237960e+00,4.479035356965515820e-05,9.138678656468158764e-05
3.038888888888888751e+00,3.006156027765369778e-05,8.964232271539777355e-05
3.039682539682539542e+00,1.194965673963844262e-05,8.076800515266575257e-05
3.040476190476190332e+00,-6.539306589754863359e-06,6.537951292023167708e-05
3.041269841269841123e+00,-2.252179966326697995e-05,4.512168096309058000e-05
3.042063492063491914e+00,-3.363801396871559410e-05,2.234110692041384926e-05
3.042857142857142705e+00,-3.835894512415650314e-05,-3.951499133959274890e-07
3.043650793650793496e+00,-3.618555413556051028e-05,-2.080259114462520577e-05
3.044444444444444287e+00,-2.772347804431744440e-05,-3.727459758698608953e-05
3.045238095238095077e+00,-1.460964354829194585e-05,-4.907306701028147484e-05
3.046031746031745868e+00,7.267159358267394768e-07,-5.627784065534723767e-05
3.046825396825396659e+00,1.545842308780213478e-05,-5.953757079742748787e-05
3.047619047619047450e+00,2.685640698000297348e-05,-5.973268059884392857e-05
3.048412698412698241e+00,3.279231307449197034e-05,-5.768297774288989427e-05
3.049206349206349032e+00,3.213483591068818317e-05,-5.399441677367061362e-05
3.049999999999999822e+00,2.494593563323046779e-05,-4.905980832803314914e-05
3.050793650793650613e+00,1.243403458430394673e-05,-4.315143670645152601e-05
3.051587301587301404e+00,-3.315059758349233122e-06,-3.651537788649089611e-05
3.052380952380952195e+00,-1.975387810295300297e-05,-2.941030961007608325e-05
3.053174603174602986e+00,-3.432916680243249880e-05,-2.209567827600669455e-05
3.053968253968253777e+00,-4.487266590805868185e-05,-1.481577071331507894e-05
3.054761904761904567e+00,-4.985528444233445550e-05,-7.820281305057396389e-06
3.055555555555555358e+00,-4.848847012435004023e-05,-1.421489052220419739e-06
3.056349206349206149e+00,-4.071031667458344881e-05,3.950515019907595033e-06
3.057142857142856940e+00,-2.712003098064322295e-05,7.745517782917632425e-06
3.057936507936507731e+00,-8.910347524422617847e-06,9.381467867406969151e-06
3.058730158730158522e+00,1.219434683766416514e-05,8.429555615391433592e-06
3.059523809523809312e+00,3.402609659979551412e-05,4.855596480580409507e-06
3.060317460317460103e+00,5.413121795450099872e-05,-7.719079697229530753e-07
3.061111111111110894e+00,7.001959893172654255e-05,-7.217642823876643690e-06
3.061904761904761685e+00,7.948596322110394068e-05,-1.273720317422683592e-05
3.062698412698412920e+00,8.094568732687772335e-05,-1.545494812969074397e-05
3.063492063492063711e+00,7.371263375433716473e-05,-1.387010484805956526e-05
3.064285714285714501e+00,5.815960991240388988e-05,-7.339424297901493700e-06
3.065079365079365292e+00,3.573153630879670310e-05,3.620034999309452555e-06
3.065873015873016083e+00,8.809247728032789277e-06,1.731313510903922660e-05
3.066666666666666874e+00,-1.956059864966350805e-05,3.115395085317871688e-05
3.067460317460317665e+00,-4.604317788176008207e-05,4.219356230707846416e-05
3.068253968253968456e+00,-6.746229299751628971e-05,4.776568373390239596e-05
3.069047619047619246e+00,-8.126043891819000596e-05,4.610164943868465845e-05
3.069841269841270037e+00,-8.589762949209513588e-05,3.676960542524873880e-05
3.070634920634920828e+00,-8.110721369534105291e-05,2.082905990821345063e-05
3.071428571428571619e+00,-6.794405411452312323e-05,6.615938883285192989e-07
3.072222222222222410e+00,-4.860270700853286136e-05,-2.048124618176702837e-05
3.073015873015873201e+00,-2.603552817351833295e-05,-3.911295908982366065e-05
3.073809523809523991e+00,-3.444137834034469588e-06,-5.220158375241630951e-05
3.074603174603174782e+00,1.625763211308097457e-05,-5.777583493058662483e-05
3.075396825396825573e+00,3.090677635728269297e-05,-5.531710229536144390e-05
3.076190476190476364e+00,3.939215840557476792e-05,-4.584178166671570620e-05
3.076984126984127155e+00,4.173724841643652037e-05,-3.164631618937906323e-05
3.077777777777777946e+00,3.895390739284913654e-05,-1.577145556284872453e-05
3.078571428571428736e+00,3.270921642256801925e-05,-1.313002379602804780e-06
3.079365079365079527e+00,2.489361827923051738e-05,9.260116100182249336e-06
3.080158730158730318e+00,1.720179681191952263e-05,1.462765047707029989e-05
3.080952380952381109e+00,1.082666408962552420e-05,1.486633871083243211e-05
3.081746031746031900e+00,6.324046801735521671e-06,1.137124834209194870e-05
3.082539682539682691e+00,3.648380640112745328e-06,6.467684837304323565e-06
3.083333333333333481e+00,2.312479015273551082e-06,2.800862138497460148e-06
3.084126984126984272e+00,1.605304798706913524e-06,2.645855200899224214e-06
3.084920634920635063e+00,8.107236029786072201e-07,7.309440198459628216e-06
3.085714285714285854e+00,-6.089694233651492904e-07,1.678376385506599657e-05
3.086507936507936645e+00,-2.885943544413757130e-06,2.974882793258089582e-05
3.087301587301587436e+00,-5.891378595778699837e-06,4.391640422510470064e-05
3.088095238095238226e+00,-9.160115036406958345e-06,5.659868036273558756e-05
3.088888888888889017e+00,-1.198898352443401360e-05,6.532056138342602408e-05
3.089682539682539808e+00,-1.358440972131567808e-05,6.830830508464474601e-05
3.090476190476190599e+00,-1.322480772966011858e-05,6.476472518541987117e-05
3.091269841269841390e+00,-1.040714972244821893e-05,5.492695809331277771e-05
3.092063492063492181e+00,-4.961642984690895264e-06,3.995061872637236452e-05
3.092857142857142971e+00,2.866741469377349355e-06,2.167431950531691407e-05
3.093650793650793762e+00,1.236751672799128263e-05,2.317191890005312630e-06
3.094444444444444553e+00,2.235454669635210821e-05,-1.583840034167005909e-05
3.095238095238095344e+00,3.122676139803719122e-05,-3.073334607412103275e-05
3.096031746031746135e+00,3.714046291769504182e-05,-4.075918375342229590e-05
3.096825396825396925e+00,3.831668305042297562e-05,-4.491789057787213971e-05
3.097619047619047716e+00,3.345772672109071608e-05,-4.291676417379484048e-05
3.098412698412698507e+00,2.218262979109285787e-05,-3.520080665672161167e-05
3.099206349206349298e+00,5.344115914182604342e-06,-2.291775871365915070e-05
3.100000000000000089e+00,-1.491058986568618901e-05,-7.804582821260979360e-06
3.100793650793650880e+00,-3.541603951020911103e-05,8.012587371326190889e-06
3.101587301587301670e+00,-5.258312488405227867e-05,2.229595147745451589e-05
3.102380952380952461e+00,-6.318278584793471874e-05,3.301645230214958151e-05
3.103174603174603252e+00,-6.511098902789143675e-05,3.866130457334893085e-05
3.103968253968254043e+00,-5.791586830358956930e-05,3.846730979500159856e-05
3.104761904761904834e+00,-4.293329001111965580e-05,3.253259652797848889e-05
3.105555555555555625e+00,-2.299327978262665390e-05,2.178713789899080005e-05
3.106349206349206415e+00,-1.781471858706978372e-06,7.832337717354741506e-06
3.107142857142857206e+00,1.697237431457686852e-05,-7.317037724849677002e-06
3.107936507936507997e+00,3.027322311701280714e-05,-2.154206126941132934e-05
3.108730158730158788e+00,3.642487625683064737e-05,-3.292929618305498620e-05
3.109523809523809579e+00,3.526550999575420712e-05,-4.003478246521406490e-05
3.110317460317460370e+00,2.805086164176771879e-05,-4.206953680915086181e-05
3.111111111111111160e+00,1.704778183233065521e-05,-3.899295526967112738e-05
3.111904761904761951e+00,4.963051427894064508e-06,-3.151776215359884832e-05
3.112698412698412742e+00,-5.643799487939653047e-06,-2.103647740365183460e-05
3.113492063492063533e+00,-1.283383690381802502e-05,-9.473358218823961949e-06
3.114285714285714324e+00,-1.556963613368796828e-05,9.428050303983676754e-07
3.115079365079365115e+00,-1.378552390080122992e-05,7.986719961179870837e-06
3.115873015873015905e+00,-8.275838888491551072e-06,9.806132980741212916e-06
3.116666666666666696e+00,-4.542644744572024141e-07,5.301547845567303493e-06
3.117460317460317487e+00,7.957161746915435686e-06,-5.562448993908149388e-06
3.118253968253968278e+00,1.525573826554833324e-05,-2.160085968632170631e-05
3.119047619047619069e+00,2.005667287673767172e-05,-4.047538398606433444e-05
3.119841269841269860e+00,2.152289450874899163e-05,-5.901050806744551557e-05
3.120634920634920650e+00,1.949263780150912922e-05,-7.372612005895903624e-05
3.121428571428571441e+00,1.448311500430704869e-05,-8.149629733508203210e-05
3.122222222222222232e+00,7.568454539499253064e-06,-8.020110889746619913e-05
3.123015873015873023e+00,1.541002697952529032e-07,-6.922173442398377966e-05
3.123809523809523814e+00,-6.309137569764100471e-06,-4.964645433114705023e-05
3.124603174603174605e+00,-1.061595998802246818e-05,-2.410915733748105548e-05
3.125396825396825395e+00,-1.204513021144391609e-05,3.732467090299696452e-06
3.126190476190476186e+00,-1.049553086543360482e-05,2.997227038874640702e-05
3.126984126984126977e+00,-6.485829856533691429e-06,5.129299339691280102e-05
3.127777777777777768e+00,-1.012492584496964010e-06,6.563856009142233540e-05
3.128571428571428559e+00,4.700391975191726049e-06,7.253320904274724223e-05
3.129365079365079350e+00,9.491795068279536770e-06,7.296940966502102116e-05
3.130158730158730140e+00,1.251575003012723185e-05,6.892667775916389299e-05
3.130952380952380931e+00,1.339248190034447145e-05,6.269443516357281238e-05
3.131746031746031722e+00,1.223180759873727459e-05,5.621334181438515139e-05
3.132539682539682513e+00,9.539105579211417605e-06,5.061781623147725755e-05
3.133333333333333304e+00,6.040865778103483920e-06,4.608058210593860520e-05
3.134126984126984095e+00,2.479957520716547558e-06,4.195978735746830920e-05
3.134920634920634885e+00,-5.662104605543001741e-07,3.716320596921496018e-05
3.135714285714285676e+00,-2.797046402855935734e-06,3.059724960989098947e-05
3.136507936507936467e+00,-4.200487956919175371e-06,2.156693104423019697e-05
3.137301587301587258e+00,-4.967947893692571718e-06,1.002365969177234651e-05
3.138095238095238049e+00,-5.349867276694468443e-06,-3.395786177134428256e-06
3.138888888888888840e+00,-5.510422283579193767e-06,-1.754136325137370340e-05
3.139682539682539630e+00,-5.440122196207894347e-06,-3.107573689929210499e-05
3.140476190476190421e+00,-4.965833588211432377e-06,-4.284318910079370872e-05
3.141269841269841212e+00,-3.863594443755493262e-06,-5.214530807598617934e-05
3.142063492063492003e+00,-2.037496287579906871e-06,-5.881324982672232570e-05
3.142857142857142794e+00,3.082004145331796455e-07,-6.304571192438067080e-05
3.143650793650793585e+00,2.588963422171223252e-06,-6.508514061746556564e-05
3.144444444444444375e+00,3.914800674772766679e-06,-6.488244581181748180e-05
3.145238095238095166e+00,3.329267602363069280e-06,-6.191132670235661203e-05
3.146031746031745957e+00,1.549779138481206453e-07,-5.522934599721617785e-05
3.146825396825396748e+00,-5.666328094885228963e-06,-4.377531062181981721e-05
3.147619047619047539e+00,-1.336880272887611705e-05,-2.679471362576246778e-05
3.148412698412698330e+00,-2.139259890375731088e-05,-4.241973124630427693e-06
3.149206349206349120e+00,-2.767952343312171995e-05,2.296734116742636360e-05
3.149999999999999911e+00,-3.017758324648614791e-05,5.291020034218206649e-05
3.150793650793650702e+00,-2.742178691701897741e-05,8.279393022027067633e-05
3.151587301587301493e+00,-1.902006545708794549e-05,1.092126405658060026e-04
3.152380952380952284e+00,-5.888621932773220145e-06,1.284698627291746458e-04
3.153174603174603075e+00,9.850611693354851888e-06,1.369681217795066792e-04
3.153968253968253865e+00,2.529837688534201053e-05,1.317031088908678354e-04
3.154761904761904656e+00,3.742446429351919192e-05,1.108708452756571543e-04
3.155555555555555447e+00,4.376181776466041431e-05,7.450918724879286104e-05
3.156349206349206238e+00,4.296447607787874288e-05,2.500785045122240781e-05
3.157142857142857029e+00,3.508314719806325039e-05,-3.271526188399850350e-05
3.157936507936507819e+00,2.149357680481470896e-05,-9.154094361821525747e-05
3.158730158730158610e+00,4.516466519121059717e-06,-1.430475800598600498e-04
3.159523809523809401e+00,-1.314064802913961948e-05,-1.788987512373145506e-04
3.160317460317460192e+00,-2.894387942773386595e-05,-1.924728717707994930e-04
3.161111111111110983e+00,-4.093906088621820894e-05,-1.803684257014826961e-04
3.161904761904761774e+00,-4.792043597881217687e-05,-1.433906267183237702e-04
3.162698412698412564e+00,-4.937525162837693560e-05,-8.671336921336473722e-05
3.163492063492063355e+00,-4.529713136633391142e-05,-1.910109030915791686e-05
3.164285714285714146e+00,-3.599493000971052661e-05,4.868079864915292960e-05
3.165079365079364937e+00,-2.200174039016864337e-05,1.059126683439936856e-04
3.165873015873015728e+00,-4.122845257942106357e-06,1.439387776270928214e-04
3.166666666666666519e+00,1.641781709590817563e-05,1.576879098567105593e-04
3.167460317460317309e+00,3.783072774165537131e-05,1.463929495595255091e-04
3.168253968253968100e+00,5.772433818379457861e-05,1.134482870070436893e-04
3.169047619047618891e+00,7.325351829334282583e-05,6.555857072812471117e-05
3.169841269841269682e+00,8.145720326103005342e-05,1.144580420896074180e-05
3.170634920634920473e+00,7.972215313206045136e-05,-3.961413045492652831e-05
3.171428571428571264e+00,6.628265355935260587e-05,-7.921920758329967227e-05
3.172222222222222054e+00,4.068287362584268945e-05,-1.011002659780608424e-04
3.173015873015872845e+00,4.152719841608640120e-06,-1.021073991602581540e-04
3.173809523809523636e+00,-4.015800233431797797e-05,-8.279511315949163348e-05
3.174603174603174427e+00,-8.717747889832722617e-05,-4.744732491922019300e-05
3.175396825396825218e+00,-1.302602971803119782e-04,-3.413973375567340052e-06
3.176190476190476009e+00,-1.619825641804082241e-04,4.024615123251567395e-05
3.176984126984126799e+00,-1.753804708006289422e-04,7.462631775293584763e-05
3.177777777777777590e+00,-1.654619064063554289e-04,9.294077989480290056e-05
3.178571428571428381e+00,-1.306447312568295759e-04,9.208652517228361654e-05
3.179365079365079172e+00,-7.368136385955092983e-05,7.333758293492063669e-05
3.180158730158729963e+00,-1.689822289388817099e-06,4.194631832887581321e-05
3.180952380952380754e+00,7.486877001392152362e-05,5.744554031630952966e-06
3.181746031746031544e+00,1.441181277454892540e-04,-2.688276980135151313e-05
3.182539682539682335e+00,1.951656315802653740e-04,-4.911164652799222618e-05
3.183333333333333126e+00,2.203698052730986544e-04,-5.731625218892982555e-05
3.184126984126983917e+00,2.168817561945780240e-04,-5.179436452228548381e-05
3.184920634920634708e+00,1.870568939190258033e-04,-3.640935192186207741e-05
3.185714285714285499e+00,1.376583758070272913e-04,-1.729463384484278670e-05
3.186507936507936289e+00,7.812445071468482555e-05,-1.022147017407736577e-06
3.187301587301587080e+00,1.841826270007956024e-05,7.250771491146245451e-06
3.188095238095238315e+00,-3.296239482592918063e-05,5.173543668948271285e-06
3.188888888888889106e+00,-7.036148834289560766e-05,-6.215251014128806597e-06
3.189682539682539897e+00,-9.150591341290410937e-05,-2.285915094835909027e-05
3.190476190476190688e+00,-9.723852724484886097e-05,-3.889855086110969679e-05
3.191269841269841478e+00,-9.065950523337339476e-05,-4.837240166532841583e-05
3.192063492063492269e+00,-7.598477132295565690e-05,-4.690403400305725686e-05
3.192857142857143060e+00,-5.743191979037450695e-05,-3.289014270486026307e-05
3.193650793650793851e+00,-3.838646287731000973e-05,-7.891447831401932300e-06
3.194444444444444642e+00,-2.100383421754661948e-05,2.382602733768298870e-05
3.195238095238095433e+00,-6.268142193741571653e-06,5.642846528343911942e-05
3.196031746031746223e+00,5.618422044180746021e-06,8.401039340052875030e-05
3.196825396825397014e+00,1.474001186145131445e-05,1.020405540449474452e-04
3.197619047619047805e+00,2.108817748268661699e-05,1.083291266455637590e-04
3.198412698412698596e+00,2.442925394146838099e-05,1.032006926745935877e-04
3.199206349206349387e+00,2.442065589265425874e-05,8.883755971319757334e-05
3.200000000000000178e+00,2.087509653593594522e-05,6.811003545212017233e-05
3.200793650793650968e+00,1.402417766973146940e-05,4.343798114781812641e-05
3.201587301587301759e+00,4.649703798121148732e-06,1.618862040476719353e-05
3.202380952380952550e+00,-5.982008817478226939e-06,-1.316920132734427347e-05
3.203174603174603341e+00,-1.636485128350142169e-05,-4.430618924720129643e-05
3.203968253968254132e+00,-2.509606489678482672e-05,-7.609448353908556913e-05
3.204761904761904923e+00,-3.121304614755202132e-05,-1.059729275698055589e-04
3.205555555555555713e+00,-3.443008344643560062e-05,-1.299399850797672729e-04
3.206349206349206504e+00,-3.521098802274847859e-05,-1.432305914857643075e-04
3.207142857142857295e+00,-3.464766093809189024e-05,-1.414921610815912418e-04
3.207936507936508086e+00,-3.415267145761742020e-05,-1.221370448524331279e-04
3.208730158730158877e+00,-3.502146806428945764e-05,-8.550500259936000616e-05
3.209523809523809668e+00,-3.796963129764042652e-05,-3.548361195750503438e-05
3.210317460317460458e+00,-4.278013648425393916e-05,2.068935144138984606e-05
3.211111111111111249e+00,-4.818523748398621191e-05,7.354315373669375547e-05
3.211904761904762040e+00,-5.205522631441240980e-05,1.132442651296184299e-04
3.212698412698412831e+00,-5.188513017204570462e-05,1.317802629502077389e-04
3.213492063492063622e+00,-4.548046783436408120e-05,1.248694282298785864e-04
3.214285714285714413e+00,-3.166998907930277860e-05,9.306234436504361282e-05
3.215079365079365203e+00,-1.084434081357304681e-05,4.174446811532041767e-05
3.215873015873015994e+00,1.485098031788083914e-05,-1.992320215296173420e-05
3.216666666666666785e+00,4.176194241156577281e-05,-8.081441151542083595e-05
3.217460317460317576e+00,6.540144587012481714e-05,-1.299611625453558894e-04
3.218253968253968367e+00,8.143500712546199963e-05,-1.585650523258052527e-04
3.219047619047619158e+00,8.676068614066433495e-05,-1.615520902244916700e-04
3.219841269841269948e+00,8.040582945969146984e-05,-1.384276342489736752e-04
3.220634920634920739e+00,6.396977107700302595e-05,-9.330723295251230768e-05
3.221428571428571530e+00,4.143691616062452482e-05,-3.413492511523450834e-05
3.222222222222222321e+00,1.835105840970915859e-05,2.877631968182013946e-05
3.223015873015873112e+00,5.259556740091557480e-07,8.465498180640030560e-05
3.223809523809523903e+00,-7.389371303613399781e-06,1.243213762435041436e-04
3.224603174603174693e+00,-3.111425388370802392e-06,1.419801531611631609e-04
3.225396825396825484e+00,1.264496293546314064e-05,1.363269132884725266e-04
3.226190476190476275e+00,3.628810657097826102e-05,1.106582690877683809e-04
3.226984126984127066e+00,6.220269107128243238e-05,7.194456114605677331e-05
3.227777777777777857e+00,8.411034919421188230e-05,2.913114503352544148e-05
3.228571428571428648e+00,9.657855713081070612e-05,-8.863864135774127955e-06
3.229365079365079438e+00,9.628386709999847822e-05,-3.495539929931784661e-05
3.230158730158730229e+00,8.270683215274322864e-05,-4.511628054035352747e-05
3.230952380952381020e+00,5.809725881460499764e-05,-3.883247375885075009e-05
3.231746031746031811e+00,2.675656038457275611e-05,-1.880233638902400082e-05
3.232539682539682602e+00,-6.125435107112941913e-06,9.949775086616947939e-06
3.233333333333333393e+00,-3.573190306394801688e-05,4.127706762732620880e-05
3.234126984126984183e+00,-5.863421248933270354e-05,6.912111725505240599e-05
3.234920634920634974e+00,-7.331999377132496307e-05,8.845600864481219640e-05
