Timestamp,Flexor carpi radialis,Extensor digitorum
2.000000000000000000e+00,2.705121734161214435e-05,1.382978793019245742e-04
2.000793650793650791e+00,2.934803430854295277e-05,1.046591412643633410e-04
2.001587301587301582e+00,1.999746461693570622e-05,6.320559648287237431e-05
2.002380952380952372e+00,1.413633072383329432e-06,1.829442092835368392e-05
2.003174603174603163e+00,-2.212734676481606342e-05,-2.623254167226834465e-05
2.003968253968253954e+00,-4.551879823784012598e-05,-6.717824477548055089e-05
2.004761904761904745e+00,-6.396234956248425974e-05,-1.019159982728743465e-04
2.005555555555555536e+00,-7.395593974387237889e-05,-1.282412936696257749e-04
2.006349206349206327e+00,-7.391032845290673411e-05,-1.442625948839399959e-04
2.007142857142857117e+00,-6.427070410028783230e-05,-1.484172093636524985e-04
2.007936507936507908e+00,-4.715894129039996613e-05,-1.396690378104884986e-04
2.008730158730158699e+00,-2.568364544110505074e-05,-1.178910740509956550e-04
2.009523809523809490e+00,-3.140884692608266031e-06,-8.434858953680899110e-05
2.010317460317460281e+00,1.767181339214372309e-05,-4.210773378220013778e-05
2.011111111111111072e+00,3.487213388801520459e-05,3.853153004631209800e-06
2.011904761904761862e+00,4.758790541378035764e-05,4.701937366514081292e-05
2.012698412698412653e+00,5.578062904566828808e-05,8.027099576484661165e-05
2.013492063492063444e+00,5.991467851697911628e-05,9.725350590772758794e-05
2.014285714285714235e+00,6.060442237216683475e-05,9.389010407942751453e-05
2.015079365079365026e+00,5.834652425355842521e-05,6.963410485520560452e-05
2.015873015873015817e+00,5.340310974384216401e-05,2.807659093425259812e-05
2.016666666666666607e+00,4.585662447974518679e-05,-2.334900446675592045e-05
2.017460317460317398e+00,3.580616467825448797e-05,-7.461724917973049987e-05
2.018253968253968189e+00,2.361494144792110084e-05,-1.151100051998951755e-04
2.019047619047618980e+00,1.007198034561025721e-05,-1.359063297817680925e-04
2.019841269841269771e+00,-3.651085599550773468e-06,-1.317639200204252597e-04
2.020634920634920562e+00,-1.626000985118302054e-05,-1.022620996292153368e-04
2.021428571428571352e+00,-2.669088675724050637e-05,-5.184494661203331367e-05
2.022222222222222143e+00,-3.437517145726118523e-05,1.116713977930435225e-05
2.023015873015872934e+00,-3.929624440071137730e-05,7.629025197238759233e-05
2.023809523809523725e+00,-4.183485041510275114e-05,1.329052176861116789e-04
2.024603174603174516e+00,-4.249685583781907182e-05,1.721889876449246776e-04
2.025396825396825307e+00,-4.165414283375454681e-05,1.886008294791261225e-04
2.026190476190476097e+00,-3.940889285653837083e-05,1.806941187742140307e-04
2.026984126984126888e+00,-3.563237190452323694e-05,1.511636244062871488e-04
2.027777777777777679e+00,-3.015522988342889409e-05,1.061598741004674473e-04
2.028571428571428470e+00,-2.301907069247275065e-05,5.401179045699737815e-05
2.029365079365079261e+00,-1.466659983231505700e-05,3.613901075149434839e-06
2.030158730158730052e+00,-5.974080638588180918e-06,-3.717451934379343437e-05
2.030952380952380842e+00,1.897629970717994813e-06,-6.277122525180033844e-05
2.031746031746031633e+00,7.784254664144053229e-06,-7.053447905056631814e-05
2.032539682539682424e+00,1.084073666129508439e-05,-6.083929217636771308e-05
2.033333333333333215e+00,1.080459047086053234e-05,-3.673804247751696650e-05
2.034126984126984006e+00,8.114911241210156099e-06,-3.424420695078447521e-06
2.034920634920634797e+00,3.843343263967675037e-06,3.238122842630746499e-05
2.035714285714285587e+00,-5.491345571837260598e-07,6.316446241194982960e-05
2.036507936507936378e+00,-3.563885781062443130e-06,8.158553817216260837e-05
2.037301587301587169e+00,-4.031520011409736225e-06,8.172481745245887836e-05
2.038095238095237960e+00,-1.402301822389214546e-06,6.044489980524944065e-05
2.038888888888888751e+00,4.108692019889242398e-06,1.851005491743545442e-05
2.039682539682539542e+00,1.155756337052459630e-05,-3.896353764260329552e-05
2.040476190476190332e+00,1.948761252800238790e-05,-1.030240734884474457e-04
2.041269841269841123e+00,2.628223241270410287e-05,-1.623811566958922533e-04
2.042063492063491914e+00,3.056892447848368435e-05,-2.055873214658311091e-04
2.042857142857142705e+00,3.156260036086108907e-05,-2.234040860546415393e-04
2.043650793650793496e+00,2.924511259083649404e-05,-2.108181817888307469e-04
2.044444444444444287e+00,2.432444907246514361e-05,-1.682772486611776015e-04
2.045238095238095077e+00,1.798609268266178766e-05,-1.018798030090257338e-04
2.046031746031745868e+00,1.151741073054211189e-05,-2.243569733885015475e-05
2.046825396825396659e+00,5.929937242104262941e-06,5.648074222498243813e-05
2.047619047619047450e+00,1.704616419366717098e-06,1.211264560003403711e-04
2.048412698412698241e+00,-1.263213389930884132e-06,1.602753366868137704e-04
2.049206349206349032e+00,-3.519036597549221015e-06,1.673848720855386800e-04
2.049999999999999822e+00,-5.773651445719080397e-06,1.417869940382620502e-04
2.050793650793650613e+00,-8.600546652184365510e-06,8.872496962574490228e-05
2.051587301587301404e+00,-1.220563599276906842e-05,1.832713158641876574e-05
2.052380952380952195e+00,-1.633584900671395353e-05,-5.621600542644475341e-05
2.053174603174602986e+00,-2.034325535435694068e-05,-1.209224942712273460e-04
2.053968253968253777e+00,-2.336963355466980253e-05,-1.633700848206392033e-04
2.054761904761904567e+00,-2.458199970932803296e-05,-1.747909743830353829e-04
2.055555555555555358e+00,-2.338693090583834181e-05,-1.516366590600747130e-04
2.056349206349206149e+00,-1.957756171169933591e-05,-9.638709991717983312e-05
2.057142857142856940e+00,-1.340040625484653625e-05,-1.739031372960176387e-05
2.057936507936507731e+00,-5.545837809004981984e-06,7.242041088452010750e-05
2.058730158730158522e+00,2.937195744074790716e-06,1.578619895423447376e-04
2.059523809523809312e+00,1.080407963897355052e-05,2.244734586832797978e-04
2.060317460317460103e+00,1.683932315716593281e-05,2.614326010577627249e-04
2.061111111111110894e+00,2.009756151957724907e-05,2.636856707492345772e-04
2.061904761904761685e+00,2.009898293216671016e-05,2.327650271582747728e-04
2.062698412698412920e+00,1.692930550924541788e-05,1.761300795640893487e-04
2.063492063492063711e+00,1.122428805598262410e-05,1.052621768359407028e-04
2.064285714285714501e+00,4.048001304937674475e-06,3.304933473922668169e-05
2.065079365079365292e+00,-3.306552749967610038e-06,-2.888257034432386498e-05
2.065873015873016083e+00,-9.555418153897523860e-06,-7.231278013356464969e-05
2.066666666666666874e+00,-1.365697604811971053e-05,-9.367039943533814737e-05
2.067460317460317665e+00,-1.499938817514134259e-05,-9.424988108569523301e-05
2.068253968253968456e+00,-1.350962758276202610e-05,-7.947539395940017093e-05
2.069047619047619246e+00,-9.663461295717323181e-06,-5.744332490260343658e-05
2.069841269841270037e+00,-4.387933977012600315e-06,-3.705905677853537007e-05
2.070634920634920828e+00,1.136399165807681358e-06,-2.611128284013455097e-05
2.071428571428571619e+00,5.741362030561211321e-06,-2.961212763237169930e-05
2.072222222222222410e+00,8.544170904532613246e-06,-4.868732738971283652e-05
2.073015873015873201e+00,9.151337403580773431e-06,-8.022357050246932950e-05
2.073809523809523991e+00,7.729918409311230888e-06,-1.173696917351170835e-04
2.074603174603174782e+00,4.922101689291948906e-06,-1.508592723806589215e-04
2.075396825396825573e+00,1.630667375602462173e-06,-1.709808274004832711e-04
2.076190476190476364e+00,-1.255701131081514508e-06,-1.698617783412283480e-04
2.076984126984127155e+00,-3.115474046753610451e-06,-1.435723949938961662e-04
2.077777777777777946e+00,-3.760350596863137972e-06,-9.346965722734288371e-05
2.078571428571428736e+00,-3.477842743790220029e-06,-2.628730459758066599e-05
2.079365079365079527e+00,-2.939856872350214081e-06,4.721304637864745377e-05
2.080158730158730318e+00,-2.989517714534383786e-06,1.147439214635952962e-04
2.080952380952381109e+00,-4.344583000134130248e-06,1.654130561284542303e-04
2.081746031746031900e+00,-7.283766315391873368e-06,1.921465355083731049e-04
2.082539682539682691e+00,-1.139956198717112644e-05,1.929118266513967319e-04
2.083333333333333481e+00,-1.549595100535459128e-05,1.705370040088053697e-04
2.084126984126984272e+00,-1.768342695272062123e-05,1.314209345379090392e-04
2.084920634920635063e+00,-1.569015122495748374e-05,8.370058147513930748e-05
2.085714285714285854e+00,-7.374491665764953780e-06,3.545032273396136232e-05
2.086507936507936645e+00,8.616920073470126900e-06,-6.668682779845370743e-06
2.087301587301587436e+00,3.216056435959384466e-05,-3.811407931051229441e-05
2.088095238095238226e+00,6.111864149992665858e-05,-5.655729972641710762e-05
2.088888888888889017e+00,9.117370221199542265e-05,-6.157827390246112221e-05
2.089682539682539808e+00,1.162287076643758147e-04,-5.423214807921451108e-05
2.090476190476190599e+00,1.294557042361081222e-04,-3.669496998375808711e-05
2.091269841269841390e+00,1.248931806100167410e-04,-1.204310610722664587e-05
2.092063492063492181e+00,9.926740013083932028e-05,1.594351476750736067e-05
2.092857142857142971e+00,5.350855138124802920e-05,4.313668925899630859e-05
2.093650793650793762e+00,-6.644885284814314696e-06,6.565606513587466319e-05
2.094444444444444553e+00,-7.139136189566314388e-05,8.057022228685244082e-05
2.095238095238095344e+00,-1.289571618746026356e-04,8.641303010379776492e-05
2.096031746031746135e+00,-1.684777798481544434e-04,8.326949075717615385e-05
2.096825396825396925e+00,-1.827511343073407065e-04,7.238322914861291429e-05
2.097619047619047716e+00,-1.699823559804082638e-04,5.544491178121045580e-05
2.098412698412698507e+00,-1.340412066943317616e-04,3.383384804365511503e-05
2.099206349206349298e+00,-8.328027817697268348e-05,8.086180054667835968e-06
2.100000000000000089e+00,-2.837429479980287187e-05,-2.221658515503126025e-05
2.100793650793650880e+00,2.017359140068308930e-05,-5.806489223956053997e-05
2.101587301587301670e+00,5.423732160395677924e-05,-1.002028466487787955e-04
2.102380952380952461e+00,6.952528230257591071e-05,-1.480665713854873204e-04
2.103174603174603252e+00,6.605862910078284377e-05,-1.987922585956497935e-04
2.103968253968254043e+00,4.768810422578172712e-05,-2.466761837502762602e-04
2.104761904761904834e+00,2.088327558854343726e-05,-2.834351356494764734e-04
2.105555555555555625e+00,-6.847723284292893688e-06,-2.994504540648166039e-04
2.106349206349206415e+00,-2.854923578510651426e-05,-2.858992210201094899e-04
2.107142857142857206e+00,-3.914981890607886696e-05,-2.373413073148905930e-04
2.107936507936507997e+00,-3.636649583726606565e-05,-1.540368179281103331e-04
2.108730158730158788e+00,-2.107799154939634978e-05,-4.314954171979113915e-05
2.109523809523809579e+00,2.897048996015593270e-06,8.181445746636658613e-05
2.110317460317460370e+00,2.962029244440978447e-05,2.034481836979758651e-04
2.111111111111111160e+00,5.234913615877987174e-05,3.041818454192646987e-04
2.111904761904761951e+00,6.511085430073110052e-05,3.702068742428817950e-04
2.112698412698412742e+00,6.418714618310712369e-05,3.943859657835193191e-04
2.113492063492063533e+00,4.912176051753042069e-05,3.773285918956129970e-04
2.114285714285714324e+00,2.293804456168206882e-05,3.264677272891010036e-04
2.115079365079365115e+00,-8.550289120289725534e-06,2.536238532394078597e-04
2.115873015873015905e+00,-3.818253316378441100e-05,1.719361840273255252e-04
2.116666666666666696e+00,-5.925681931533431011e-05,9.306919555461933154e-05
2.117460317460317487e+00,-6.719719525151999009e-05,2.533886064716962073e-05
2.118253968253968278e+00,-6.063297851148693047e-05,-2.698332127604264743e-05
2.119047619047619069e+00,-4.161612490324002265e-05,-6.329549013026339788e-05
2.119841269841269860e+00,-1.493762286116338562e-05,-8.558320505418754820e-05
2.120634920634920650e+00,1.324830023014414219e-05,-9.709402586038858073e-05
2.121428571428571441e+00,3.707670743346659956e-05,-1.011798781043308945e-04
2.122222222222222232e+00,5.240241920251259800e-05,-1.005640341589274852e-04
2.123015873015873023e+00,5.761327137648321431e-05,-9.710519370000612101e-05
2.123809523809523814e+00,5.368640270803366863e-05,-9.197114740145819031e-05
2.124603174603174605e+00,4.361758587416255154e-05,-8.603064130970326003e-05
2.125396825396825395e+00,3.149822442373116773e-05,-8.023721442689268912e-05
2.126190476190476186e+00,2.150052940568424260e-05,-7.580871846353399025e-05
2.126984126984126977e+00,1.694256261751977713e-05,-7.408878749814252823e-05
2.127777777777777768e+00,1.954776323717304863e-05,-7.610303938938065926e-05
2.128571428571428559e+00,2.901351378527784337e-05,-8.197554995162296498e-05
2.129365079365079350e+00,4.299988795820856185e-05,-9.049336790398133012e-05
2.130158730158730140e+00,5.758195060988888415e-05,-9.911042661569259289e-05
2.130952380952380931e+00,6.808124108239577382e-05,-1.045181453805189072e-04
2.131746031746031722e+00,7.006836401082473180e-05,-1.036393225749060242e-04
2.132539682539682513e+00,6.028929620292192945e-05,-9.467945386406222466e-05
2.133333333333333304e+00,3.734662740053131951e-05,-7.783131532059276401e-05
2.134126984126984095e+00,2.093401687027083901e-06,-5.538178537036349383e-05
2.134920634920634885e+00,-4.225407042160381611e-05,-3.120008732065920025e-05
2.135714285714285676e+00,-9.033778922847812936e-05,-9.771537645917847902e-06
2.136507936507936467e+00,-1.353175271373940707e-04,4.960479540631455530e-06
2.137301587301587258e+00,-1.699862785146949039e-04,1.064725017002444281e-05
2.138095238095238049e+00,-1.881574505914386671e-04,7.199187157850916947e-06
2.138888888888888840e+00,-1.859651914905900802e-04,-3.143828787126814598e-06
2.139682539682539630e+00,-1.627057983785096739e-04,-1.638907586186301723e-05
2.140476190476190421e+00,-1.210094065863050763e-04,-2.786736810178039645e-05
2.141269841269841212e+00,-6.636305018251782413e-05,-3.349098504220442016e-05
2.142063492063492003e+00,-6.174241963104289208e-06,-3.081912768052370340e-05
2.142857142857142794e+00,5.139744765150298635e-05,-1.965063909858480394e-05
2.143650793650793585e+00,9.866612854792215120e-05,-2.051160344947245503e-06
2.144444444444444375e+00,1.295806898376746842e-04,1.811124018028279379e-05
2.145238095238095166e+00,1.406967378939093553e-04,3.597997191221903596e-05
2.146031746031745957e+00,1.317980428995786115e-04,4.673988151970902239e-05
2.146825396825396748e+00,1.059971959095141515e-04,4.673288573596905891e-05
2.147619047619047539e+00,6.920715006004013502e-05,3.448311880747555094e-05
2.148412698412698330e+00,2.900571827976591079e-05,1.139825813853220030e-05
2.149206349206349120e+00,-6.919333364407099580e-06,-1.808345888164679857e-05
2.149999999999999911e+00,-3.240217832847403661e-05,-4.703855094512314077e-05
2.150793650793650702e+00,-4.408329986797873289e-05,-6.728491910839673289e-05
2.151587301587301493e+00,-4.197596179713380867e-05,-7.111831336913023837e-05
2.152380952380952284e+00,-2.914267355358312350e-05,-5.323400566311149203e-05
2.153174603174603075e+00,-1.057687847390766151e-05,-1.238503675304851193e-05
2.153968253968253865e+00,8.379596318642103256e-06,4.771050934396072141e-05
2.154761904761904656e+00,2.361316621561577038e-05,1.185976865200107647e-04
2.155555555555555447e+00,3.332584462054528083e-05,1.885808433051837818e-04
2.156349206349206238e+00,3.828368101735641195e-05,2.452694378954607766e-04
2.157142857142857029e+00,4.114647140850336064e-05,2.785910664036142319e-04
2.157936507936507819e+00,4.512694129730120753e-05,2.834253103255201275e-04
2.158730158730158610e+00,5.248017924125814666e-05,2.609822965754929943e-04
2.159523809523809401e+00,6.338559440830200209e-05,2.183528768658307587e-04
2.160317460317460192e+00,7.563098705934210425e-05,1.662591917000908685e-04
2.161111111111110983e+00,8.521275419229553988e-05,1.157184527262733459e-04
2.161904761904761774e+00,8.763702595448172924e-05,7.477933924828014005e-05
2.162698412698412564e+00,7.945037324196292379e-05,4.646786316686965957e-05
2.163492063492063355e+00,5.943989462120329443e-05,2.859860681531676483e-05
2.164285714285714146e+00,2.907587812651274314e-05,1.539665864885788961e-05
2.165079365079364937e+00,-7.911487217545907740e-06,2.274325619370747380e-07
2.165873015873015728e+00,-4.657627407786667375e-05,-2.162363510305647922e-05
2.166666666666666519e+00,-8.197667845729195016e-05,-5.112559723498092816e-05
2.167460317460317309e+00,-1.101684176873895512e-04,-8.520878778841299626e-05
2.168253968253968100e+00,-1.287736055424169043e-04,-1.179758594001187446e-04
2.169047619047618891e+00,-1.371249227185776759e-04,-1.428567369760882447e-04
2.169841269841269682e+00,-1.360762708777513304e-04,-1.548764538029743913e-04
2.170634920634920473e+00,-1.275753908689132967e-04,-1.522554221489289981e-04
2.171428571428571264e+00,-1.140830169554764637e-04,-1.368735407209082093e-04
2.172222222222222054e+00,-9.794156979447222805e-05,-1.135604205962170108e-04
2.173015873015872845e+00,-8.083628219392877058e-05,-8.855702868529017225e-05
2.173809523809523636e+00,-6.350891249816662963e-05,-6.770506151176248360e-05
2.174603174603174427e+00,-4.583333327976749880e-05,-5.492033342319718313e-05
2.175396825396825218e+00,-2.723776470695716756e-05,-5.133843617480788284e-05
2.176190476190476009e+00,-7.312562002112628381e-06,-5.527496366101302013e-05
2.176984126984126799e+00,1.364493027431652682e-05,-6.291191713490482638e-05
2.177777777777777590e+00,3.437334940307756089e-05,-6.946768582578271135e-05
2.178571428571428381e+00,5.277797744144572059e-05,-7.054390016992883672e-05
2.179365079365079172e+00,6.638994968882405896e-05,-6.334295001941403892e-05
2.180158730158729963e+00,7.298662638596526819e-05,-4.748239515061787158e-05
2.180952380952380754e+00,7.119356793694924044e-05,-2.519469733418424853e-05
2.181746031746031544e+00,6.094813780836456641e-05,-8.191461453299235863e-07
2.182539682539682335e+00,4.376863458818858193e-05,2.032777496360394331e-05
2.183333333333333126e+00,2.279085376244858649e-05,3.342547369034749828e-05
2.184126984126983917e+00,2.513305093091543388e-06,3.555547548959352090e-05
2.184920634920634708e+00,-1.181580578948245234e-05,2.661630783828856239e-05
2.185714285714285499e+00,-1.518498427591971103e-05,9.454327928269814653e-06
2.186507936507936289e+00,-4.075433422336072482e-06,-1.083720028840437984e-05
2.187301587301587080e+00,2.226908806668730420e-05,-2.824301291576897631e-05
2.188095238095238315e+00,6.093986237611908333e-05,-3.740373994118220674e-05
2.188888888888889106e+00,1.052366187672944080e-04,-3.503174575832028150e-05
2.189682539682539897e+00,1.455864701640119559e-04,-2.079451485200784332e-05
2.190476190476190688e+00,1.714713590635565826e-04,2.592819261298872471e-06
2.191269841269841478e+00,1.739684364400315608e-04,3.013600521507884091e-05
2.192063492063492269e+00,1.482646954207069974e-04,5.599974512313061299e-05
2.192857142857143060e+00,9.545043510667755116e-05,7.516316243981473091e-05
2.193650793650793851e+00,2.298720026666253204e-05,8.472621979737099288e-05
2.194444444444444642e+00,-5.652027734328242831e-05,8.443778091488945308e-05
2.195238095238095433e+00,-1.281775876459343984e-04,7.634712887686228601e-05
2.196031746031746223e+00,-1.786045693844117300e-04,6.381243347949706684e-05
2.196825396825397014e+00,-1.995167548821739467e-04,5.027157590509910887e-05
2.197619047619047805e+00,-1.898528635705227737e-04,3.817940386166434089e-05
2.198412698412698596e+00,-1.557119622899298152e-04,2.840993693051208861e-05
2.199206349206349387e+00,-1.081932650305060989e-04,2.025350177420902657e-05
2.200000000000000178e+00,-5.997549069310903719e-05,1.193187895238666794e-05
2.200793650793650968e+00,-2.179081271050719185e-05,1.380400873557156081e-06
2.201587301587301759e+00,2.084252023584097958e-07,-1.300730084030073104e-05
2.202380952380952550e+00,5.619323855334612276e-06,-3.188492455366392209e-05
2.203174603174603341e+00,-6.211998826288335271e-07,-5.475144487681956489e-05
2.203968253968254132e+00,-9.985627428362091890e-06,-7.994248313160746218e-05
2.204761904761904923e+00,-1.296896391633157170e-05,-1.046901402467328898e-04
2.205555555555555713e+00,-1.948801619929341604e-06,-1.252159583904202472e-04
2.206349206349206504e+00,2.638715053784908954e-05,-1.369475022104794763e-04
2.207142857142857295e+00,6.968204656391468554e-05,-1.350167376338178872e-04
2.207936507936508086e+00,1.200523474617007776e-04,-1.151585601066827793e-04
2.208730158730158877e+00,1.658003659389703879e-04,-7.497692767110316486e-05
2.209523809523809668e+00,1.943342778602415697e-04,-1.531227920552775888e-05
2.210317460317460458e+00,1.955725480173274035e-04,5.878094605844281096e-05
2.211111111111111249e+00,1.649278620524625776e-04,1.379905353202339131e-04
2.211904761904762040e+00,1.050193033720835903e-04,2.099447239774271292e-04
2.212698412698412831e+00,2.555705539867063564e-05,2.615132384499683224e-04
2.213492063492063622e+00,-5.867850744897931724e-05,2.816492431384879399e-04
2.214285714285714413e+00,-1.313077681021712173e-04,2.640162981475484803e-04
2.215079365079365203e+00,-1.783794666735163666e-04,2.087191657764008855e-04
2.215873015873015994e+00,-1.918570998576259146e-04,1.227091053062544462e-04
2.216666666666666785e+00,-1.715877989475156579e-04,1.874391675155989185e-05
2.217460317460317576e+00,-1.252131973332736860e-04,-8.692043802815738033e-05
2.218253968253968367e+00,-6.607928358259053121e-05,-1.776561067445451094e-04
2.219047619047619158e+00,-9.749152288432001533e-06,-2.397222454820109052e-04
2.219841269841269948e+00,2.993062678103334837e-05,-2.648753830467847487e-04
2.220634920634920739e+00,4.417744385182196908e-05,-2.517154932492030495e-04
2.221428571428571530e+00,3.119886129118319191e-05,-2.055527395353836555e-04
2.222222222222222321e+00,-3.713798743538315394e-06,-1.370057839935737490e-04
2.223015873015873112e+00,-4.982840405296195792e-05,-5.977900955684603524e-05
2.223809523809523903e+00,-9.383037266031718406e-05,1.192841490782343882e-05
2.224603174603174693e+00,-1.231293322877643950e-04,6.602207127756338622e-05
2.225396825396825484e+00,-1.287968116061256809e-04,9.478895081124690284e-05
2.226190476190476275e+00,-1.074565441026428060e-04,9.644460646558734439e-05
2.226984126984127066e+00,-6.175909630855107562e-05,7.549724925118793915e-05
2.227777777777777857e+00,5.235891683548841913e-07,4.162981623881621934e-05
2.228571428571428648e+00,6.839684589174513168e-05,7.195071081995242078e-06
2.229365079365079438e+00,1.299785676215413441e-04,-1.609957674889366203e-05
2.230158730158730229e+00,1.747449162327169270e-04,-2.040624751133882466e-05
2.230952380952381020e+00,1.953074056173648425e-04,-3.906753064386943719e-06
2.231746031746031811e+00,1.885100584454081499e-04,2.872679319828820558e-05
2.232539682539682602e+00,1.557734757787040600e-04,6.775553065566203531e-05
2.233333333333333393e+00,1.027104168532532748e-04,1.012905410427030720e-04
2.234126984126984183e+00,3.810363987451077626e-05,1.188362304567048926e-04
2.234920634920634974e+00,-2.760582015235215085e-05,1.143710135772814227e-04
2.235714285714285765e+00,-8.410124097278271643e-05,8.800232298949683105e-05
2.236507936507936556e+00,-1.229501622775230234e-04,4.568824357605931306e-05
2.237301587301587347e+00,-1.390154452112463514e-04,-2.839962090759627021e-06
2.238095238095238138e+00,-1.312442675793312568e-04,-4.720982952588693342e-05
2.238888888888888928e+00,-1.026920110752692540e-04,-7.949384795737452966e-05
2.239682539682539719e+00,-5.979080103885001275e-05,-9.619634779760531651e-05
2.240476190476190510e+00,-1.100827987227323500e-05,-9.853516477325254181e-05
2.241269841269841301e+00,3.483844437485641158e-05,-9.108760402990841089e-05
2.242063492063492092e+00,7.025382910907243344e-05,-7.949673380074744609e-05
2.242857142857142883e+00,9.034330039457237475e-05,-6.824430412470551403e-05
2.243650793650793673e+00,9.343508323071398995e-05,-5.935589945386061169e-05
2.244444444444444464e+00,8.098670763947829184e-05,-5.240180262281320486e-05
2.245238095238095255e+00,5.692145381133012076e-05,-4.556706873730741018e-05
2.246031746031746046e+00,2.664539624183919208e-05,-3.716091997523469459e-05
2.246825396825396837e+00,-4.012754812527685348e-06,-2.684086552682652082e-05
2.247619047619047628e+00,-2.976745323502749628e-05,-1.601509634565792433e-05
2.248412698412698418e+00,-4.664548695691550343e-05,-7.266035982223049877e-06
2.249206349206349209e+00,-5.249532059428812109e-05,-3.080245548023506237e-06
2.250000000000000000e+00,-4.719404964800589668e-05,-4.498391543373325875e-06
2.250793650793650791e+00,-3.253708191690246425e-05,-1.034672925153519172e-05
2.251587301587301582e+00,-1.183903038508002096e-05,-1.744462861978451299e-05
2.252380952380952372e+00,1.068024982003829407e-05,-2.173522809631808303e-05
2.253174603174603163e+00,3.061970203562435557e-05,-1.986475399418669510e-05
2.253968253968253954e+00,4.411748007551932743e-05,-1.052171615418572249e-05
2.254761904761904745e+00,4.847019578130114600e-05,5.053548902334210957e-06
2.255555555555555536e+00,4.259014121851882302e-05,2.359727040287707233e-05
2.256349206349206327e+00,2.727014890195919816e-05,4.112973842107239483e-05
2.257142857142857117e+00,5.214456287440593656e-06,5.447512041330882296e-05
2.257936507936507908e+00,-1.925698167232939336e-05,6.239601307535376452e-05
2.258730158730158699e+00,-4.094231954208631531e-05,6.593689538049956169e-05
2.259523809523809490e+00,-5.492764421019828616e-05,6.786152137059187452e-05
2.260317460317460281e+00,-5.793266281146023793e-05,7.137004665539858211e-05
2.261111111111111072e+00,-4.933600263591186429e-05,7.854317791340592809e-05
2.261904761904761862e+00,-3.140326200884419023e-05,8.911700508883723673e-05
2.262698412698412653e+00,-8.567239637706118433e-06,1.001407956928766047e-04
2.263492063492063444e+00,1.396289726818243185e-05,1.067557112473099123e-04
2.264285714285714235e+00,3.171910374023246789e-05,1.038593715047317589e-04
2.265079365079365026e+00,4.207813994241828921e-05,8.802733680640617250e-05
2.265873015873015817e+00,4.463720770738307853e-05,5.894884685413368506e-05
2.266666666666666607e+00,4.086260101161822252e-05,1.983546211373011717e-05
2.267460317460317398e+00,3.326768657665682026e-05,-2.333507447954067453e-05
2.268253968253968189e+00,2.447765145917645609e-05,-6.344673721936838545e-05
2.269047619047618980e+00,1.648864131123277188e-05,-9.416190564634944007e-05
2.269841269841269771e+00,1.029515055846146241e-05,-1.114958293507436820e-04
2.270634920634920562e+00,5.910108237704101733e-06,-1.146025105431668366e-04
2.271428571428571352e+00,2.681883222876574087e-06,-1.056325182952968931e-04
2.272222222222222143e+00,-2.529701286796838629e-07,-8.881204556956885958e-05
2.273015873015872934e+00,-3.546792741941054347e-06,-6.907538645186853772e-05
2.273809523809523725e+00,-7.370379938098966959e-06,-5.065002539969745953e-05
2.274603174603174516e+00,-1.135058058274270420e-05,-3.597464715400635954e-05
2.275396825396825307e+00,-1.470278069544705301e-05,-2.524667413308726908e-05
2.276190476190476097e+00,-1.649425821827588842e-05,-1.674288121645862586e-05
2.276984126984126888e+00,-1.595317718028291135e-05,-7.827421670529946009e-06
2.277777777777777679e+00,-1.274394651851521589e-05,3.703016806598505998e-06
2.278571428571428470e+00,-7.149215427417309672e-06,1.846896844477519269e-05
2.279365079365079261e+00,-1.190567011696184992e-07,3.504552625590286278e-05
2.280158730158730052e+00,6.833878887022352437e-06,5.039520964625371385e-05
2.280952380952380842e+00,1.189127970559635476e-05,6.102365090979655697e-05
2.281746031746031633e+00,1.330272591778324842e-05,6.440777509932641917e-05
2.282539682539682424e+00,9.805314527575656114e-06,6.015872618622352904e-05
2.283333333333333215e+00,9.996142766180225969e-07,5.046451820083750232e-05
2.284126984126984006e+00,-1.240338649303847196e-05,3.958232763779613372e-05
2.284920634920634797e+00,-2.852887232006600938e-05,3.248150754650824926e-05
2.285714285714285587e+00,-4.451340967115955706e-05,3.306850457131312607e-05
2.286507936507936378e+00,-5.690719019798842423e-05,4.261055358558359004e-05
2.287301587301587169e+00,-6.226133682147989260e-05,5.894134412399785583e-05
2.288095238095237960e+00,-5.782181934616316285e-05,7.679671492218997171e-05
2.288888888888888751e+00,-4.222223819660243316e-05,8.925441320113531815e-05
2.289682539682539542e+00,-1.604432517867766651e-05,8.984541196414608287e-05
2.290476190476190332e+00,1.789810846307876951e-05,7.463715617371921758e-05
2.291269841269841123e+00,5.468584203908279714e-05,4.360911867221030531e-05
2.292063492063491914e+00,8.791844577587498819e-05,9.238245529534915074e-07
2.292857142857142705e+00,1.108290222113388122e-04,-4.594079419467031195e-05
2.293650793650793496e+00,1.177386618529672921e-04,-8.794707380992392877e-05
2.294444444444444287e+00,1.055302499722804248e-04,-1.167062896350021158e-04
2.295238095238095077e+00,7.470191113002223459e-05,-1.265852412834740984e-04
2.296031746031745868e+00,2.959305971185665070e-05,-1.161261040826265024e-04
2.296825396825396659e+00,-2.239520261344503572e-05,-8.834296888069537504e-05
2.297619047619047450e+00,-7.241739290750829467e-05,-4.980617495309773511e-05
2.298412698412698241e+00,-1.121737362929491213e-04,-8.836837719015800514e-06
2.299206349206349032e+00,-1.356990431657141701e-04,2.659967631711507790e-05
2.299999999999999822e+00,-1.404798241042220597e-04,5.069256485594672015e-05
2.300793650793650613e+00,-1.276712340422918584e-04,6.083499509224666771e-05
2.301587301587301404e+00,-1.014612828311198218e-04,5.772793247381137325e-05
2.302380952380952195e+00,-6.784879466389933192e-05,4.460658403010521488e-05
2.303174603174602986e+00,-3.320832774377874231e-05,2.590552851641193000e-05
2.303968253968253777e+00,-3.000832196461207359e-06,5.840325917616348294e-06
2.304761904761904567e+00,1.911442486235913105e-05,-1.262482146371136564e-05
2.305555555555555358e+00,3.165311501902060384e-05,-2.814910910219048899e-05
2.306349206349206149e+00,3.518636627323779167e-05,-4.074248938224297203e-05
2.307142857142856940e+00,3.184977146063257839e-05,-5.109941011832371433e-05
2.307936507936507731e+00,2.465109515599472889e-05,-5.987325665913031036e-05
2.308730158730158522e+00,1.674821278381083447e-05,-6.716366513442989495e-05
2.309523809523809312e+00,1.083677388692711703e-05,-7.235134303370235399e-05
2.310317460317460103e+00,8.737189880450165502e-06,-7.427434074275366142e-05
2.311111111111110894e+00,1.121241299808890747e-05,-7.164502712861944226e-05
2.311904761904761685e+00,1.799060024086822506e-05,-6.357270919631667031e-05
2.312698412698412920e+00,2.792661339863034423e-05,-5.005901040511554037e-05
2.313492063492063711e+00,3.923074923605564561e-05,-3.233793832066744766e-05
2.314285714285714501e+00,4.972277075339755692e-05,-1.293315202328901043e-05
2.315079365079365292e+00,5.711192277743115696e-05,4.674723232279465708e-06
2.315873015873016083e+00,5.932851407454667634e-05,1.680384934715206986e-05
2.316666666666666874e+00,5.492173775753989896e-05,2.063549484541693659e-05
2.317460317460317665e+00,4.349358143416943875e-05,1.528071190082045861e-05
2.318253968253968456e+00,2.607228126213195272e-05,2.412700578969516007e-06
2.319047619047619246e+00,5.257898684346510143e-06,-1.391040510077391041e-05
2.319841269841270037e+00,-1.506101356305423431e-05,-2.832020653981615397e-05
2.320634920634920828e+00,-3.053740896061355207e-05,-3.581115295498783405e-05
2.321428571428571619e+00,-3.761177350456224359e-05,-3.343260074319562113e-05
2.322222222222222410e+00,-3.473663993656684592e-05,-2.138329105388227073e-05
2.323015873015873201e+00,-2.302288075745141500e-05,-3.093666428007003586e-06
2.323809523809523991e+00,-5.973513937560963358e-06,1.577522475620721367e-05
2.324603174603174782e+00,1.159384893537313243e-05,2.911389878204352486e-05
2.325396825396825573e+00,2.498440514393005546e-05,3.233412008427590293e-05
2.326190476190476364e+00,3.089671697161058454e-05,2.384932227607627320e-05
2.326984126984127155e+00,2.816324985202482651e-05,5.580042334858204021e-06
2.327777777777777946e+00,1.784301874761797535e-05,-1.762595689175893294e-05
2.328571428571428736e+00,2.749785336955863635e-06,-3.940624084313335495e-05
2.329365079365079527e+00,-1.338360880928909673e-05,-5.366349316776280982e-05
2.330158730158730318e+00,-2.686014129107018651e-05,-5.619514738173343130e-05
2.330952380952381109e+00,-3.486011430854203756e-05,-4.572832661132410003e-05
2.331746031746031900e+00,-3.599350124100834068e-05,-2.409701276229855898e-05
2.332539682539682691e+00,-3.047449543162836656e-05,4.436598791292621473e-06
2.333333333333333481e+00,-1.992527289852755689e-05,3.444177682076728954e-05
2.334126984126984272e+00,-6.897068720960643393e-06,6.071383057558534565e-05
2.334920634920635063e+00,5.754513358853892314e-06,7.936677034206738300e-05
2.335714285714285854e+00,1.549369536067876190e-05,8.836795596353046579e-05
2.336507936507936645e+00,2.060622038609923097e-05,8.751081846684374539e-05
2.337301587301587436e+00,2.049938209596187678e-05,7.801748028839131501e-05
2.338095238095238226e+00,1.576743772618796155e-05,6.202295296473802895e-05
2.338888888888889017e+00,8.030174796096755145e-06,4.212167524780558586e-05
2.339682539682539808e+00,-4.150161294936737842e-07,2.102947870277300314e-05
2.340476190476190599e+00,-7.063249459397023332e-06,1.320086188073012705e-06
2.341269841269841390e+00,-9.715784594634212557e-06,-1.481821076811890813e-05
2.342063492063492181e+00,-6.954113337208859306e-06,-2.581323399542234778e-05
2.342857142857142971e+00,1.505049734851786266e-06,-3.088116559591930590e-05
2.343650793650793762e+00,1.464357064066187332e-05,-3.007451954163833531e-05
2.344444444444444553e+00,3.021632560148715139e-05,-2.416679339696405879e-05
2.345238095238095344e+00,4.508837414224512515e-05,-1.440068991173329037e-05
2.346031746031746135e+00,5.581290634309120889e-05,-2.197712838799187367e-06
2.346825396825396925e+00,5.937005957964523598e-05,1.104846978873771007e-05
2.347619047619047716e+00,5.392165061807427563e-05,2.402445410628065704e-05
2.348412698412698507e+00,3.938545763651701636e-05,3.543041308681051723e-05
2.349206349206349298e+00,1.763151676844796728e-05,4.391970948398769760e-05
2.350000000000000089e+00,-7.816308621096324438e-06,4.817698397101871275e-05
2.350793650793650880e+00,-3.253604801104259862e-05,4.717751966065219583e-05
2.351587301587301670e+00,-5.221839095195807004e-05,4.054377624300723788e-05
2.352380952380952461e+00,-6.363970958879878971e-05,2.883389237928464009e-05
2.353174603174603252e+00,-6.533381674499172658e-05,1.360908908677199628e-05
2.353968253968254043e+00,-5.781547867382488967e-05,-2.777861334628713424e-06
2.354761904761904834e+00,-4.333609379653830548e-05,-1.761108252424737212e-05
2.355555555555555625e+00,-2.525082881123354237e-05,-2.832496746784375123e-05
2.356349206349206415e+00,-7.164651829628084936e-06,-3.297929448514443069e-05
2.357142857142857206e+00,7.897519510478797261e-06,-3.061675039509131294e-05
2.357936507936507997e+00,1.804640551580507466e-05,-2.144925117757633139e-05
2.358730158730158788e+00,2.267569278779841388e-05,-6.832052959509960761e-06
2.359523809523809579e+00,2.224697377800866446e-05,1.098100577280172490e-05
2.360317460317460370e+00,1.788029282759752252e-05,2.925253905632903089e-05
2.361111111111111160e+00,1.092274077718340259e-05,4.525528982335045165e-05
2.361904761904761951e+00,2.601609493267460633e-06,5.673900635374471275e-05
2.362698412698412742e+00,-6.187437975606531967e-06,6.227537332955431892e-05
2.363492063492063533e+00,-1.492670249691075472e-05,6.142052300454454398e-05
2.364285714285714324e+00,-2.334568551238410563e-05,5.469117895365284231e-05
2.365079365079365115e+00,-3.115480199419280385e-05,4.339788293074345576e-05
2.365873015873015905e+00,-3.775513087139889605e-05,2.938705123906066457e-05
2.366666666666666696e+00,-4.206591035700956815e-05,1.472947463400300978e-05
2.367460317460317487e+00,-4.257095943014594709e-05,1.390603260213585120e-06
2.368253968253968278e+00,-3.760378118100009411e-05,-9.075829307660658702e-06
2.369047619047619069e+00,-2.581948979137850748e-05,-1.577745065362783327e-05
2.369841269841269860e+00,-6.756396876395998398e-06,-1.865819573410326890e-05
2.370634920634920650e+00,1.864409881290415798e-05,-1.857693575206414925e-05
2.371428571428571441e+00,4.771920880914323635e-05,-1.724414412730232668e-05
2.372222222222222232e+00,7.613056039275537077e-05,-1.695610975355355411e-05
2.373015873015873023e+00,9.838835396111652795e-05,-2.009437684528635136e-05
2.373809523809523814e+00,1.088618163529500696e-04,-2.844312921350143210e-05
2.374603174603174605e+00,1.031336287767222479e-04,-4.249187652621565404e-05
2.375396825396825395e+00,7.939193244941589731e-05,-6.096356460952702481e-05
2.376190476190476186e+00,3.942985141326191940e-05,-8.077110024167981448e-05
2.376984126984126977e+00,-1.117408794474764695e-05,-9.746476712727912670e-05
2.377777777777777768e+00,-6.391914771070268729e-05,-1.060800554884657653e-04
2.378571428571428559e+00,-1.091553495231506509e-04,-1.022187284632324468e-04
2.379365079365079350e+00,-1.382936077570585454e-04,-8.318611620862205675e-05
2.380158730158730140e+00,-1.458357227783778950e-04,-4.898117618565620392e-05
2.380952380952380931e+00,-1.306885212709804883e-04,-2.865551395418530532e-06
2.381746031746031722e+00,-9.644305118135162178e-05,4.878133464180913560e-05
2.382539682539682513e+00,-5.055522216163713594e-05,9.746402966991612852e-05
2.383333333333333304e+00,-2.615533399806160554e-06,1.342663301611486020e-04
2.384126984126984095e+00,3.788029874221644018e-05,1.517840733268713174e-04
2.384920634920634885e+00,6.369915698775768776e-05,1.457420866596133519e-04
2.385714285714285676e+00,7.141101893282188792e-05,1.158800665669243310e-04
2.386507936507936467e+00,6.190860186435555865e-05,6.596107506280255925e-05
2.387301587301587258e+00,3.981536405202765693e-05,3.012864286408707615e-06
2.388095238095238049e+00,1.201284193916635577e-05,-6.393952206697478687e-05
2.388888888888888840e+00,-1.425391266821234758e-05,-1.253628580570978512e-04
2.389682539682539630e+00,-3.315994114172173050e-05,-1.726687807786414822e-04
2.390476190476190421e+00,-4.151795771750078646e-05,-1.994077615388273295e-04
2.391269841269841212e+00,-3.916769582021759251e-05,-2.020410070983724802e-04
2.392063492063492003e+00,-2.852827517470690239e-05,-1.802373750139524299e-04
2.392857142857142794e+00,-1.354469739229512318e-05,-1.367522948346686096e-04
2.393650793650793585e+00,1.592750385238503023e-06,-7.698712127417046123e-05
2.394444444444444375e+00,1.356486820896053135e-05,-8.303419089377008527e-06
2.395238095238095166e+00,2.059316838301055892e-05,6.086934617304318916e-05
2.396031746031745957e+00,2.255791092146331152e-05,1.220998311074912839e-04
2.396825396825396748e+00,2.064263764269491462e-05,1.681154996473792828e-04
2.397619047619047539e+00,1.671234452898560395e-05,1.938882761863174389e-04
2.398412698412698330e+00,1.266862695391876644e-05,1.974001980238280487e-04
2.399206349206349120e+00,9.968485963187342878e-06,1.798684070831036558e-04
2.399999999999999911e+00,9.385857404325376971e-06,1.453568665469442489e-04
2.400793650793650702e+00,1.099551986792361762e-05,9.989557041405143349e-05
2.401587301587301493e+00,1.430753294535279027e-05,5.035096562468676181e-05
2.402380952380952284e+00,1.847716201976119322e-05,3.297003347213838034e-06
2.403174603174603075e+00,2.253449928690182935e-05,-3.592857340257091383e-05
2.403968253968253865e+00,2.559624445963634478e-05,-6.386505841618253499e-05
2.404761904761904656e+00,2.703286731053649477e-05,-7.919726689229071906e-05
2.405555555555555447e+00,2.657200196444437022e-05,-8.263610893942703183e-05
2.406349206349206238e+00,2.432794595556798259e-05,-7.647367792620128461e-05
2.407142857142857029e+00,2.075828591112327144e-05,-6.395090092280406057e-05
2.407936507936507819e+00,1.655995943413403690e-05,-4.859901202411397723e-05
2.408730158730158610e+00,1.252561072998689189e-05,-3.367156260951407429e-05
2.409523809523809401e+00,9.384744383906870607e-06,-2.171088853416129716e-05
2.410317460317460192e+00,7.653106161791843934e-06,-1.424800813947891982e-05
2.411111111111110983e+00,7.510808398075076255e-06,-1.164306543569030860e-05
2.411904761904761774e+00,8.728246653835682140e-06,-1.310957269272254903e-05
2.412698412698412564e+00,1.065911883941626797e-05,-1.697408644011063751e-05
2.413492063492063355e+00,1.231823648264963960e-05,-2.116958232519586608e-05
2.414285714285714146e+00,1.255334524602535483e-05,-2.386733511348542691e-05
2.415079365079364937e+00,1.030238555146906273e-05,-2.407076376304036615e-05
2.415873015873015728e+00,4.902560563983559900e-06,-2.196572003855459533e-05
2.416666666666666519e+00,-3.609069513781518486e-06,-1.886428071474812246e-05
2.417460317460317309e+00,-1.428417735739328872e-05,-1.669880695166266142e-05
2.418253968253968100e+00,-2.522650865907512163e-05,-1.720057903017133916e-05
2.419047619047618891e+00,-3.379553314034879438e-05,-2.106507238903181014e-05
2.419841269841269682e+00,-3.706720306970301681e-05,-2.745961923613097878e-05
2.420634920634920473e+00,-3.249878875364135958e-05,-3.410548973509964788e-05
2.421428571428571264e+00,-1.867236507493498068e-05,-3.791963188646101644e-05
2.422222222222222054e+00,4.063301155022843396e-06,-3.597269004132770784e-05
2.423015873015872845e+00,3.325352995617651236e-05,-2.642245749481610782e-05
2.423809523809523636e+00,6.447201088791994867e-05,-9.130143233611343135e-06
2.424603174603174427e+00,9.200473618351255644e-05,1.419777253270019950e-05
2.425396825396825218e+00,1.100112397549320137e-04,4.034671499199373498e-05
2.426190476190476009e+00,1.139278337931367159e-04,6.528818096223176055e-05
2.426984126984126799e+00,1.017455728470290040e-04,8.502753950636014345e-05
2.427777777777777590e+00,7.474177145083156894e-05,9.638510792285129899e-05
2.428571428571428381e+00,3.733033527623394406e-05,9.754768028329149714e-05
2.429365079365079172e+00,-4.039980856223866868e-06,8.832468108116270334e-05
2.430158730158729963e+00,-4.263960466744057834e-05,7.011693290128161995e-05
2.430952380952380754e+00,-7.326636187456359874e-05,4.563581759991614087e-05
2.431746031746031544e+00,-9.345501332970560394e-05,1.842441394616492126e-05
2.432539682539682335e+00,-1.036700231554934886e-04,-7.748967163626695374e-06
2.433333333333333126e+00,-1.064876132123378130e-04,-2.953052851737266528e-05
2.434126984126983917e+00,-1.051950138474622105e-04,-4.453436812869752617e-05
2.434920634920634708e+00,-1.024506579239512372e-04,-5.168324081270414137e-05
2.435714285714285499e+00,-9.954140926048035123e-05,-5.125550827121530729e-05
2.436507936507936289e+00,-9.640368339954796210e-05,-4.464965076533958444e-05
2.437301587301587080e+00,-9.217628066949081541e-05,-3.396361315934439041e-05
2.438095238095238315e+00,-8.586330265252425909e-05,-2.151909682066523960e-05
2.438888888888889106e+00,-7.677207868969805745e-05,-9.443153661875132421e-06
2.439682539682539897e+00,-6.462929044693239522e-05,6.219753599332362459e-07
2.440476190476190688e+00,-4.948764524939692518e-05,7.657675333209984294e-06
2.441269841269841478e+00,-3.160870738951769625e-05,1.127901162931131390e-05
2.442063492063492269e+00,-1.144759966660372416e-05,1.166812733933002130e-05
2.442857142857143060e+00,1.025688289028088500e-05,9.481473231023069545e-06
2.443650793650793851e+00,3.238695252331179699e-05,5.751190336794960517e-06
2.444444444444444642e+00,5.347080057494358571e-05,1.766094132914133641e-06
2.445238095238095433e+00,7.187927371098747640e-05,-1.097261633822505111e-06
2.446031746031746223e+00,8.612061707739655466e-05,-1.610918421008258060e-06
2.446825396825397014e+00,9.508797461531216712e-05,1.015615216592362746e-06
2.447619047619047805e+00,9.816020070212880765e-05,6.849843452356492146e-06
2.448412698412698596e+00,9.517083021303381660e-05,1.504288138708907053e-05
2.449206349206349387e+00,8.633865572512231152e-05,2.382219849402784134e-05
2.450000000000000178e+00,7.224771558861855397e-05,3.073191492540978129e-05
2.450793650793650968e+00,5.390259520436551033e-05,3.311770905210616113e-05
2.451587301587301759e+00,3.281332996720167993e-05,2.877655082742617228e-05
2.452380952380952550e+00,1.101409102336990043e-05,1.662674277470166593e-05
2.453174603174603341e+00,-9.083406521882782369e-06,-2.777976293769378870e-06
2.453968253968254132e+00,-2.504095909140929266e-05,-2.705518904632536487e-05
2.454761904761904923e+00,-3.488589480480786806e-05,-5.223327058712691630e-05
2.455555555555555713e+00,-3.759364079432313195e-05,-7.344795072761118356e-05
2.456349206349206504e+00,-3.339210185345908578e-05,-8.600481482437481446e-05
2.457142857142857295e+00,-2.377563764588773958e-05,-8.658278212102914759e-05
2.457936507936508086e+00,-1.121257418316012148e-05,-7.423965316413573871e-05
2.458730158730158877e+00,1.378245311319391488e-06,-5.085946900489948764e-05
2.459523809523809668e+00,1.124894394872718177e-05,-2.080998420464592329e-05
2.460317460317460458e+00,1.639469559664518715e-05,1.015886611436794090e-05
2.461111111111111249e+00,1.594982100008114078e-05,3.644658635976844133e-05
2.461904761904762040e+00,1.032388214514111175e-05,5.404862960830681670e-05
2.462698412698412831e+00,1.048812627418790010e-06,6.144118085409981341e-05
2.463492063492063622e+00,-9.627814390054734701e-06,5.967078212890441694e-05
2.464285714285714413e+00,-1.930316349987027039e-05,5.171647293767115994e-05
2.465079365079365203e+00,-2.598717023633579775e-05,4.140698476274880648e-05
2.465873015873015994e+00,-2.852875063247131284e-05,3.225566860322403673e-05
2.466666666666666785e+00,-2.679592825389783995e-05,2.654413676581268995e-05
2.467460317460317576e+00,-2.158307054569239889e-05,2.487845520086867890e-05
2.468253968253968367e+00,-1.429908111318233445e-05,2.629073194787816275e-05
2.469047619047619158e+00,-6.547170326862669076e-06,2.879828111382812933e-05
2.469841269841269948e+00,2.757415214541017924e-07,3.020299310598254064e-05
2.470634920634920739e+00,5.254618549946254283e-06,2.885553568798282045e-05
2.471428571428571530e+00,8.053264045764849105e-06,2.414580404773735667e-05
2.472222222222222321e+00,8.841827475167625725e-06,1.660049667143642443e-05
2.473015873015873112e+00,8.116821805312067427e-06,7.620376001520052396e-06
2.473809523809523903e+00,6.498846719590137277e-06,-9.923197241154175424e-07
2.474603174603174693e+00,4.578382524920558580e-06,-7.526997966727999118e-06
2.475396825396825484e+00,2.837598978802764937e-06,-1.073073207755060765e-05
2.476190476190476275e+00,1.631739909473049914e-06,-9.985563006936314039e-06
2.476984126984127066e+00,1.191451806241925982e-06,-5.318735024587079801e-06
2.477777777777777857e+00,1.614946213241981238e-06,2.685481153260015487e-06
2.478571428571428648e+00,2.845450440416416975e-06,1.300287095060374002e-05
2.479365079365079438e+00,4.655307174414859062e-06,2.427738236893448005e-05
2.480158730158730229e+00,6.666299956095678588e-06,3.491888686781012037e-05
2.480952380952381020e+00,8.421396991066582878e-06,4.320902197451004711e-05
2.481746031746031811e+00,9.495681521796253935e-06,4.743507283175138120e-05
2.482539682539682602e+00,9.610638467262577495e-06,4.606594765945627875e-05
2.483333333333333393e+00,8.709461605933821381e-06,3.797639970215972699e-05
2.484126984126984183e+00,6.964640836460011413e-06,2.271103316244562883e-05
2.484920634920634974e+00,4.715536348455449753e-06,7.538327966220948238e-07
2.485714285714285765e+00,2.360530778454237239e-06,-2.626327195943831266e-05
2.486507936507936556e+00,2.445741783730486499e-07,-5.550496179695234582e-05
2.487301587301587347e+00,-1.417878295325245138e-06,-8.312503309175457104e-05
2.488095238095238138e+00,-2.562820539483558740e-06,-1.047657706964656618e-04
2.488888888888888928e+00,-3.245528366042139334e-06,-1.163412236155763219e-04
2.489682539682539719e+00,-3.586111570010041257e-06,-1.149661052381482299e-04
2.490476190476190510e+00,-3.723507027105033975e-06,-9.978429450368418100e-05
2.491269841269841301e+00,-3.796113976402726308e-06,-7.241378740768859802e-05
2.492063492063492092e+00,-3.946943564729759875e-06,-3.680939779563795476e-05
2.492857142857142883e+00,-4.335141391685981613e-06,1.464631428544935045e-06
2.493650793650793673e+00,-5.130410172892762656e-06,3.635941497789639461e-05
2.494444444444444464e+00,-6.473816916719779501e-06,6.256540894018697882e-05
2.495238095238095255e+00,-8.405493020399550436e-06,7.654777813437741894e-05
2.496031746031746046e+00,-1.078129081847260114e-05,7.717735548180510786e-05
2.496825396825396837e+00,-1.321831245037442603e-05,6.582882761698675023e-05
2.497619047619047628e+00,-1.511319224987282990e-05,4.592097446859022585e-05
2.498412698412698418e+00,-1.575804640553137196e-05,2.200604916116128250e-05
2.499206349206349209e+00,-1.453747363239624053e-05,-1.345885558305582829e-06
2.500000000000000000e+00,-1.114367715936336398e-05,-2.054384743889967611e-05
2.500793650793650791e+00,-5.724983148178946398e-06,-3.357507652806128218e-05
2.501587301587301582e+00,1.096100489150403354e-06,-4.008955637118956605e-05
2.502380952380952372e+00,8.346755143671778318e-06,-4.105086095251081685e-05
2.503174603174603163e+00,1.492822337393347567e-05,-3.816685248822194131e-05
2.503968253968253954e+00,1.987009801801866346e-05,-3.333171031574079296e-05
2.504761904761904745e+00,2.254309837428268584e-05,-2.823843671951279335e-05
2.505555555555555536e+00,2.277830586333416622e-05,-2.421626929100979277e-05
2.506349206349206327e+00,2.086976961820685071e-05,-2.225417405418117739e-05
2.507142857142857117e+00,1.746772389783200514e-05,-2.310996839663584555e-05
2.507936507936507908e+00,1.339712408948695548e-05,-2.738299660362489166e-05
2.508730158730158699e+00,9.455758235665826731e-06,-3.544950497524891836e-05
2.509523809523809490e+00,6.248561888482720275e-06,-4.722185658628818856e-05
2.510317460317460281e+00,4.095086947992646547e-06,-6.178575446554943475e-05
2.511111111111111072e+00,3.015233440319736428e-06,-7.706893631952029097e-05
2.511904761904761862e+00,2.772713139311443489e-06,-8.975767096458344189e-05
2.512698412698412653e+00,2.946780978300823461e-06,-9.565632191702674750e-05
2.513492063492063444e+00,3.008079401833677115e-06,-9.055602784818761464e-05
2.514285714285714235e+00,2.387033929279186208e-06,-7.146695278004787486e-05
2.515079365079365026e+00,5.382354772122493422e-07,-3.785419445458441338e-05
2.515873015873015817e+00,-2.983296671900735028e-06,7.593125426989862075e-06
2.516666666666666607e+00,-8.415194755270184081e-06,5.905228758628040185e-05
2.517460317460317398e+00,-1.564239168139481745e-05,1.086347446202401998e-04
2.518253968253968189e+00,-2.402777796477753797e-05,1.481750857444800486e-04
2.519047619047618980e+00,-3.226230714892743028e-05,1.711901052443344257e-04
2.519841269841269771e+00,-3.831324180494653287e-05,1.743973636206538414e-04
2.520634920634920562e+00,-3.958162302793801656e-05,1.583716932322286255e-04
2.521428571428571352e+00,-3.337270352194006363e-05,1.272174736730232478e-04
2.522222222222222143e+00,-1.769061683078953205e-05,8.739581829915651619e-05
2.523015873015872934e+00,7.801911254943180672e-06,4.602884599111805452e-05
2.523809523809523725e+00,4.098123391083660205e-05,9.131441110178910918e-06
2.524603174603174516e+00,7.699210335801612650e-05,-1.972052242044301340e-05
2.525396825396825307e+00,1.087783623933995714e-04,-3.985215628844586633e-05
2.526190476190476097e+00,1.284536325277452402e-04,-5.290692623737950392e-05
2.526984126984126888e+00,1.292640021168954187e-04,-6.144748414250964809e-05
2.527777777777777679e+00,1.076372457276614307e-04,-6.735058085514808923e-05
2.528571428571428470e+00,6.467490106566294527e-05,-7.073500676511715931e-05
2.529365079365079261e+00,6.506049384491685305e-06,-6.991010918288345080e-05
2.530158730158730052e+00,-5.678434027317465834e-05,-6.232500633560228724e-05
2.530952380952380842e+00,-1.134816351915210784e-04,-4.602545076689774011e-05
2.531746031746031633e+00,-1.531899480249801330e-04,-2.092226252238941047e-05
2.532539682539682424e+00,-1.694929189716242303e-04,1.069659143561615353e-05
2.533333333333333215e+00,-1.614637081201210345e-04,4.460791380759690841e-05
2.534126984126984006e+00,-1.335546994597090948e-04,7.581407825218626853e-05
2.534920634920634797e+00,-9.398822040580956546e-05,9.989705416398985804e-05
2.535714285714285587e+00,-5.227919821295229613e-05,1.140255522798596283e-04
2.536507936507936378e+00,-1.671915314909006600e-05,1.173177449254706481e-04
2.537301587301587169e+00,7.486103950731724156e-06,1.105974935224606761e-04
2.538095238095237960e+00,1.905031724992686893e-05,9.581404340946394506e-05
2.538888888888888751e+00,2.036219700905853432e-05,7.542862277885205844e-05
2.539682539682539542e+00,1.636103563707344636e-05,5.195477463050326023e-05
2.540476190476190332e+00,1.289057342684511425e-05,2.769348499347953769e-05
2.541269841269841123e+00,1.495903080266789647e-05,4.618018934784593860e-06
2.542063492063491914e+00,2.531478348471503142e-05,-1.565545009434224778e-05
2.542857142857142705e+00,4.365483343246129517e-05,-3.186632056657233382e-05
2.543650793650793496e+00,6.663886807288339959e-05,-4.311877828324724605e-05
2.544444444444444287e+00,8.870598371805192095e-05,-4.891944642058741716e-05
2.545238095238095077e+00,1.035093762300778143e-04,-4.922655645327089817e-05
2.546031746031745868e+00,1.056294048194260561e-04,-4.447280821604849329e-05
2.546825396825396659e+00,9.212977636504553289e-05,-3.553892726793172043e-05
2.547619047619047450e+00,6.351704777658642026e-05,-2.369461923735054491e-05
2.548412698412698241e+00,2.378722538707913210e-05,-1.054773453598228320e-05
2.549206349206349032e+00,-2.049337475882397446e-05,1.981300543851748325e-06
2.549999999999999822e+00,-6.179675459349134609e-05,1.170180973019753387e-05
2.550793650793650613e+00,-9.341524280000998220e-05,1.630154868354795938e-05
2.551587301587301404e+00,-1.108753722994125290e-04,1.369086873871450656e-05
2.552380952380952195e+00,-1.126270888067970713e-04,2.568271283755530258e-06
2.553174603174602986e+00,-9.993553558527252731e-05,-1.689843231485184153e-05
2.553968253968253777e+00,-7.615794491556623913e-05,-4.254276997718459152e-05
2.554761904761904567e+00,-4.573164343000418898e-05,-7.016151263142661454e-05
2.555555555555555358e+00,-1.320483734553883961e-05,-9.417433443944946516e-05
2.556349206349206149e+00,1.746330989774772083e-05,-1.088841018349276938e-04
2.557142857142856940e+00,4.325995247282833763e-05,-1.099513252348914457e-04
2.557936507936507731e+00,6.219238407385480906e-05,-9.559388055973880413e-05
2.558730158730158522e+00,7.320396495941883111e-05,-6.713754286221192038e-05
2.559523809523809312e+00,7.604980288498493983e-05,-2.878128591461359361e-05
2.560317460317460103e+00,7.119322374286107889e-05,1.331352460035693203e-05
2.561111111111110894e+00,5.972077439079662907e-05,5.232406257416586276e-05
2.561904761904761685e+00,4.324036937043495383e-05,8.209784150896024869e-05
2.562698412698412920e+00,2.373667776480176190e-05,9.820408546375497994e-05
2.563492063492063711e+00,3.390790559773384233e-06,9.854153167152186234e-05
2.564285714285714501e+00,-1.560685353402148904e-05,8.350120456450448123e-05
2.565079365079365292e+00,-3.122861655107835298e-05,5.575999519248386091e-05
2.565873015873016083e+00,-4.176865623859566773e-05,1.976358396905691526e-05
2.566666666666666874e+00,-4.600343900452905202e-05,-1.906506482882706807e-05
2.567460317460317665e+00,-4.335834993786000756e-05,-5.529941406290795057e-05
2.568253968253968456e+00,-3.406032622764209098e-05,-8.446469036501704831e-05
2.569047619047619246e+00,-1.923243364777477474e-05,-1.037217575277022742e-04
2.569841269841270037e+00,-8.735613248520711856e-07,-1.120990548441373546e-04
2.570634920634920828e+00,1.832764132288028179e-05,-1.102572343777903402e-04
2.571428571428571619e+00,3.536508250545262219e-05,-9.993784454663263549e-05
2.572222222222222410e+00,4.744217669026585686e-05,-8.333293172374829226e-05
2.573015873015873201e+00,5.256365468096025278e-05,-6.258308713204124038e-05
2.573809523809523991e+00,5.006031934532141864e-05,-3.950359276433039566e-05
2.574603174603174782e+00,4.090509239351937154e-05,-1.553272721044076014e-05
2.575396825396825573e+00,2.770551629564205228e-05,8.155775846794364184e-06
2.576190476190476364e+00,1.431517503469626323e-05,3.045087708454966382e-05
2.576984126984127155e+00,5.084387627283457971e-06,5.010941441144825650e-05
2.577777777777777946e+00,3.858008821177417694e-06,6.568844203550592133e-05
2.578571428571428736e+00,1.290959392035461797e-05,7.570338027314126733e-05
2.579365079365079527e+00,3.205509945508018202e-05,7.900585748366272226e-05
2.580158730158730318e+00,5.819638232717485958e-05,7.521950391087827445e-05
2.580952380952381109e+00,8.549647009401979149e-05,6.498035031687355038e-05
2.581746031746031900e+00,1.062860114675116244e-04,4.980630971929759626e-05
2.582539682539682691e+00,1.126478749797675484e-04,3.163831681993106633e-05
2.583333333333333481e+00,9.843279144743368142e-05,1.229340731780894958e-05
2.584126984126984272e+00,6.125006749335579160e-05,-6.897153855076579201e-06
2.584920634920635063e+00,3.823646023656820571e-06,-2.512702964490321633e-05
2.585714285714285854e+00,-6.587700629007828723e-05,-4.188372414752132398e-05
2.586507936507936645e+00,-1.360275603262089516e-04,-5.662944353145212153e-05
2.587301587301587436e+00,-1.936283542485952170e-04,-6.859841791335672160e-05
2.588095238095238226e+00,-2.277136671684752440e-04,-7.683742377663271882e-05
2.588888888888889017e+00,-2.320981689681070293e-04,-8.047214473546354815e-05
2.589682539682539808e+00,-2.068383811869371725e-04,-7.903564783903436217e-05
2.590476190476190599e+00,-1.580332262503739821e-04,-7.263847305041537257e-05
2.591269841269841390e+00,-9.609562288130165276e-05,-6.185039575473770936e-05
2.592063492063492181e+00,-3.304436051483166910e-05,-4.734752093437519851e-05
2.592857142857142971e+00,2.038893891328936314e-05,-2.951814027666914704e-05
2.593650793650793762e+00,5.702763512986743541e-05,-8.235597987322692426e-06
2.594444444444444553e+00,7.432410073679907199e-05,1.706430353284597748e-05
2.595238095238095344e+00,7.410030454552761600e-05,4.695679692243392945e-05
2.596031746031746135e+00,6.125120478477376058e-05,8.132796286914174789e-05
2.596825396825396925e+00,4.196387783000673485e-05,1.186375750838703587e-04
2.597619047619047716e+00,2.202203104669698909e-05,1.555127298527960767e-04
2.598412698412698507e+00,5.613330836797052657e-06,1.870148254491016447e-04
2.599206349206349298e+00,-5.164515791320804051e-06,2.076786082568474905e-04
2.600000000000000089e+00,-1.012876046208327885e-05,2.130373732154506640e-04
2.600793650793650880e+00,-1.037966625125662852e-05,2.010297797739133568e-04
2.601587301587301670e+00,-7.515359534549483013e-06,1.726558851189458489e-04
2.602380952380952461e+00,-2.975974107038818416e-06,1.315817123986719270e-04
2.603174603174603252e+00,2.310598922949661217e-06,8.290453847049016577e-05
2.603968253968254043e+00,7.949188980821527407e-06,3.166793185118748830e-05
2.604761904761904834e+00,1.384780157033790789e-05,-1.825866034288937159e-05
2.605555555555555625e+00,1.989061234529559160e-05,-6.459554124516146960e-05
2.606349206349206415e+00,2.568344458773374873e-05,-1.063630644566870831e-04
2.607142857142857206e+00,3.050096155754779406e-05,-1.431123232988846064e-04
2.607936507936507997e+00,3.346750891314856428e-05,-1.740080314057245294e-04
2.608730158730158788e+00,3.388420988276018156e-05,-1.971358957479807828e-04
2.609523809523809579e+00,3.153571816746280422e-05,-2.093733049203372733e-04
2.610317460317460370e+00,2.681977955298578097e-05,-2.070055056624594560e-04
2.611111111111111160e+00,2.063847675254844812e-05,-1.869876873959904200e-04
2.611904761904761951e+00,1.411469679683508424e-05,-1.484388198530612582e-04
2.612698412698412742e+00,8.275842165244538400e-06,-9.376985958822385916e-05
2.613492063492063533e+00,3.837091974139979789e-06,-2.892590315458604908e-05
2.614285714285714324e+00,1.137844955610552417e-06,3.747052290351576045e-05
2.615079365079365115e+00,1.980057375303959167e-07,9.591535586260561085e-05
2.615873015873015905e+00,8.189408380149965286e-07,1.382988999405476433e-04
2.616666666666666696e+00,2.668532050013721463e-06,1.600074993027679829e-04
2.617460317460317487e+00,5.332137097424733182e-06,1.611346325752688379e-04
2.618253968253968278e+00,8.343687791334231278e-06,1.462607335756463259e-04
2.619047619047619069e+00,1.121690756153500202e-05,1.227358574526635150e-04
2.619841269841269860e+00,1.348446537545239574e-05,9.802307954731696870e-05
2.620634920634920650e+00,1.474034507437182201e-05,7.711510445915105547e-05
2.621428571428571441e+00,1.467839450409568710e-05,6.106787900755827263e-05
2.622222222222222232e+00,1.312667227717607968e-05,4.726578869999673293e-05
2.623015873015873023e+00,1.008304194147684170e-05,3.129997882023473062e-05
2.623809523809523814e+00,5.753144617109697951e-06,9.604006139242678546e-06
2.624603174603174605e+00,5.778006920313703628e-07,-1.837182479709489826e-05
2.625396825396825395e+00,-4.776286393569716472e-06,-4.941529530606073300e-05
2.626190476190476186e+00,-9.488939932559388516e-06,-7.748374360749483763e-05
2.626984126984126977e+00,-1.273156658285595168e-05,-9.581480175251869244e-05
2.627777777777777768e+00,-1.386550229674826586e-05,-9.932082301715767125e-05
2.628571428571428559e+00,-1.264438172402323136e-05,-8.638863711679557343e-05
2.629365079365079350e+00,-9.353174446618080289e-06,-5.950891333539926102e-05
2.630158730158730140e+00,-4.820724075308335712e-06,-2.459360489124328518e-05
2.630952380952380931e+00,-2.717915781182549387e-07,1.073073842454614658e-05
2.631746031746031722e+00,2.968131949253450647e-06,3.926499787394186543e-05
2.632539682539682513e+00,3.848830731919223963e-06,5.612604668215502639e-05
2.633333333333333304e+00,1.941947804652976610e-06,5.979992709750981322e-05
2.634126984126984095e+00,-2.366061750540328717e-06,5.205926472016687959e-05
2.634920634920634885e+00,-7.923135457630325264e-06,3.683146422985699597e-05
2.635714285714285676e+00,-1.310792489601365671e-05,1.847290943826455922e-05
2.636507936507936467e+00,-1.628298982996343735e-05,1.161037392892949956e-07
2.637301587301587258e+00,-1.625777421823285600e-05,-1.727286354498485467e-05
2.638095238095238049e+00,-1.262037784301625678e-05,-3.476091465487324983e-05
2.638888888888888840e+00,-5.851696716664490327e-06,-5.430340947030156307e-05
2.639682539682539630e+00,2.793172082065091040e-06,-7.708148201390563955e-05
2.640476190476190421e+00,1.158877428063943596e-05,-1.020550131909449027e-04
2.641269841269841212e+00,1.874197351200087322e-05,-1.254013966345604288e-04
2.642063492063492003e+00,2.279669706428483360e-05,-1.411637644269500200e-04
2.642857142857142794e+00,2.295553321039922425e-05,-1.429517406548745564e-04
2.643650793650793585e+00,1.925486014570526740e-05,-1.261185084880207200e-04
2.644444444444444375e+00,1.255721060081528715e-05,-8.963510277895146510e-05
2.645238095238095166e+00,4.357785528657808365e-06,-3.697121138177577362e-05
2.646031746031745957e+00,-3.559598499122841733e-06,2.434953690373524335e-05
2.646825396825396748e+00,-9.545059778521025097e-06,8.436112817893380361e-05
2.647619047619047539e+00,-1.248627739195715404e-05,1.328785899130122486e-04
2.648412698412698330e+00,-1.209117503773607876e-05,1.616545758984909583e-04
2.649206349206349120e+00,-8.969795559987269159e-06,1.659353674134079689e-04
2.649999999999999911e+00,-4.483579282799508218e-06,1.451513867256066365e-04
2.650793650793650702e+00,-3.927621615152636763e-07,1.027422231548178665e-04
2.651587301587301493e+00,1.611188817193991205e-06,4.531988980286630764e-05
2.652380952380952284e+00,3.712124264569882635e-07,-1.852838540868212064e-05
2.653174603174603075e+00,-4.383825326144375105e-06,-7.953296007137236113e-05
2.653968253968253865e+00,-1.188075169316018052e-05,-1.289811801012061287e-04
2.654761904761904656e+00,-2.037034098417749494e-05,-1.598362026414923507e-04
2.655555555555555447e+00,-2.741350801185453738e-05,-1.676579213830189105e-04
2.656349206349206238e+00,-3.034456239247049369e-05,-1.512025879990892992e-04
2.657142857142857029e+00,-2.684650048597769743e-05,-1.125912200097811114e-04
2.657936507936507819e+00,-1.555253669849067231e-05,-5.702816561819830415e-05
2.658730158730158610e+00,3.432740045452354210e-06,7.859020154655136471e-06
2.659523809523809401e+00,2.821733898970801610e-05,7.297586666130477225e-05
2.660317460317460192e+00,5.513702742903075094e-05,1.289735614477013187e-04
2.661111111111110983e+00,7.919194432843038815e-05,1.676745114206241462e-04
2.661904761904761774e+00,9.491167215504931127e-05,1.835605876523326225e-04
2.662698412698412564e+00,9.753574332139984125e-05,1.750131411326925955e-04
2.663492063492063355e+00,8.426921131280490308e-05,1.448946881850453664e-04
2.664285714285714146e+00,5.527714889500401888e-05,1.001268923821112635e-04
2.665079365079364937e+00,1.406253380816000311e-05,5.017906261127317614e-05
2.665873015873015728e+00,-3.302082273784964908e-05,4.763099934028163158e-06
2.666666666666666519e+00,-7.810954709604208779e-05,-2.862507977294228483e-05
2.667460317460317309e+00,-1.136735001406621827e-04,-4.654585439972820909e-05
2.668253968253968100e+00,-1.342649236486296541e-04,-5.024010664016145703e-05
2.669047619047618891e+00,-1.376071628853971045e-04,-4.485945768745089177e-05
2.669841269841269682e+00,-1.247502391575503681e-04,-3.759545373041372303e-05
2.670634920634920473e+00,-9.939480028307138312e-05,-3.531824166325486726e-05
2.671428571428571264e+00,-6.673944957810141706e-05,-4.241702513816648869e-05
2.672222222222222054e+00,-3.225993570788724172e-05,-5.942612241706105627e-05
2.673015873015872845e+00,-7.258085480291052028e-07,-8.279998530729776535e-05
2.673809523809523636e+00,2.440480163787070710e-05,-1.059111784906733417e-04
2.674603174603174427e+00,4.121635655073585557e-05,-1.210157107978524675e-04
2.675396825396825218e+00,4.928027364100589385e-05,-1.216269514055657301e-04
2.676190476190476009e+00,4.942019828210485785e-05,-1.045753495907133189e-04
2.676984126984126799e+00,4.338590768676630401e-05,-7.110584318083951194e-05
2.677777777777777590e+00,3.349059975404084367e-05,-2.667804029210024068e-05
2.678571428571428381e+00,2.224078400759815842e-05,2.044288567469053079e-05
2.679365079365079172e+00,1.197869374920052347e-05,6.135985731219206925e-05
2.680158730158729963e+00,4.562566598368168283e-06,8.885043956521431038e-05
2.680952380952380754e+00,1.120378993582252385e-06,9.916489942545897137e-05
2.681746031746031544e+00,1.914433068997455764e-06,9.281942442518338707e-05
2.682539682539682335e+00,6.341768398397940236e-06,7.416910180721364768e-05
2.683333333333333126e+00,1.307478626004074851e-05,4.991148962634098756e-05
2.684126984126983917e+00,2.032664670909827218e-05,2.701587631540701683e-05
2.684920634920634708e+00,2.620912548382987262e-05,1.076358002739249837e-05
2.685714285714285499e+00,2.913335869792007431e-05,3.527781616621444079e-06
2.686507936507936289e+00,2.818460646607027817e-05,4.623032258647911122e-06
2.687301587301587080e+00,2.338617215162637844e-05,1.113431544352054121e-05
2.688095238095238315e+00,1.576752435423022891e-05,1.927613644371715075e-05
2.688888888888889106e+00,7.181410125172720777e-06,2.569106496426811127e-05
2.689682539682539897e+00,-1.225146885124118291e-07,2.822333159106244283e-05
2.690476190476190688e+00,-4.082193035213404762e-06,2.600690829106910824e-05
2.691269841269841478e+00,-3.419930274749985405e-06,1.902726015849780171e-05
2.692063492063492269e+00,1.914030420882532980e-06,7.522627441762257335e-06
2.692857142857143060e+00,1.059314426589658206e-05,-8.376483044625285737e-06
2.693650793650793851e+00,2.014339720947543161e-05,-2.852131341915611036e-05
2.694444444444444642e+00,2.753476239810396606e-05,-5.216718273686682058e-05
2.695238095238095433e+00,2.999534015152166837e-05,-7.727446750978340126e-05
2.696031746031746223e+00,2.579587625423865942e-05,-1.001757068532561256e-04
2.696825396825397014e+00,1.472604141142283175e-05,-1.160022745230173335e-04
2.697619047619047805e+00,-1.901418535666026793e-06,-1.199142531582834438e-04
2.698412698412698596e+00,-2.166095029559788796e-05,-1.087244119922478781e-04
2.699206349206349387e+00,-4.159543913695273035e-05,-8.222027206920083631e-05
2.700000000000000178e+00,-5.872053814452187810e-05,-4.357108180675038623e-05
2.700793650793650968e+00,-7.037071706663059335e-05,1.386471960025519742e-06
2.701587301587301759e+00,-7.447162422022599059e-05,4.571443788907704557e-05
2.702380952380952550e+00,-6.984062622570992780e-05,8.321500575720498360e-05
2.703174603174603341e+00,-5.650459042123949358e-05,1.099155602055834402e-04
2.703968253968254132e+00,-3.590813612500024459e-05,1.247393201745522213e-04
2.704761904761904923e+00,-1.086246956089157363e-05,1.292288431179774825e-04
2.705555555555555713e+00,1.483845028484257752e-05,1.265393624035102528e-04
2.706349206349206504e+00,3.708511016868033908e-05,1.201431207835969826e-04
2.707142857142857295e+00,5.225179594942289270e-05,1.126967117563672569e-04
2.707936507936508086e+00,5.793719208069885801e-05,1.053677200694469902e-04
2.708730158730158877e+00,5.347931264390107107e-05,9.773072323256086339e-05
2.709523809523809668e+00,4.013978136594811602e-05,8.820428980760766494e-05
2.710317460317460458e+00,2.092425239392329823e-05,7.487961032448107090e-05
2.711111111111111249e+00,7.180364061175354849e-08,5.646812066964862579e-05
2.711904761904762040e+00,-1.769912622712997301e-05,3.303884396823557996e-05
2.712698412698412831e+00,-2.806228552180204631e-05,6.290634931928996238e-06
2.713492063492063622e+00,-2.793003387714022059e-05,-2.072113794604096327e-05
2.714285714285714413e+00,-1.613588046620449242e-05,-4.429136510808714196e-05
2.715079365079365203e+00,6.169507042446178731e-06,-6.094896331498335791e-05
2.715873015873015994e+00,3.550848023645892973e-05,-6.821854369914498093e-05
2.716666666666666785e+00,6.651704416565873358e-05,-6.504982981748655543e-05
2.717460317460317576e+00,9.283801065502676850e-05,-5.188198423908155986e-05
2.718253968253968367e+00,1.083698235906293080e-04,-3.046524325692990954e-05
2.719047619047619158e+00,1.086505770258123160e-04,-3.603145793049519088e-06
2.719841269841269948e+00,9.204859751498797838e-05,2.509578385585603343e-05
2.720634920634920739e+00,6.039370815366155412e-05,5.147904271235727124e-05
2.721428571428571530e+00,1.876364882074470276e-05,7.120779934584587332e-05
2.722222222222222321e+00,-2.564405116240293136e-05,8.027444063641796213e-05
2.723015873015873112e+00,-6.530641565628373952e-05,7.566352765586235993e-05
2.723809523809523903e+00,-9.428274334723694397e-05,5.604921641417303860e-05
2.724603174603174693e+00,-1.095724007462167021e-04,2.236315834470239033e-05
2.725396825396825484e+00,-1.114612671952894219e-04,-2.194108859165072088e-05
2.726190476190476275e+00,-1.028306480572711932e-04,-7.106286649488733481e-05
2.726984126984127066e+00,-8.782618386881746540e-05,-1.175358677754784333e-04
2.727777777777777857e+00,-7.046878895092461377e-05,-1.533943898652436876e-04
2.728571428571428648e+00,-5.367660124973045593e-05,-1.716902421039854642e-04
2.729365079365079438e+00,-3.887810017140825333e-05,-1.680932129683474028e-04
2.730158730158730229e+00,-2.612666941910337127e-05,-1.421840836141781688e-04
2.730952380952381020e+00,-1.450438268735592407e-05,-9.800145196393544671e-05
2.731746031746031811e+00,-2.625369895543201434e-06,-4.351312040113575902e-05
2.732539682539682602e+00,1.086388566668588891e-05,1.101994963091349536e-05
2.733333333333333393e+00,2.681338078710812596e-05,5.541958531842220180e-05
2.734126984126984183e+00,4.513180243256311678e-05,8.202918493210674790e-05
2.734920634920634974e+00,6.443586744045219324e-05,8.749693923567827695e-05
2.735714285714285765e+00,8.192539868692310127e-05,7.342783002505458810e-05
2.736507936507936556e+00,9.365632990090285944e-05,4.579490183604907833e-05
2.737301587301587347e+00,9.530301343522346611e-05,1.331111636624387581e-05
2.738095238095238138e+00,8.332714600225689860e-05,-1.483359074733989246e-05
2.738888888888888928e+00,5.627893173852578271e-05,-3.133600218179020941e-05
2.739682539682539719e+00,1.581811771542232999e-05,-3.266110509930809268e-05
2.740476190476190510e+00,-3.297908486182189210e-05,-1.994711206701374717e-05
2.741269841269841301e+00,-8.230164258635272315e-05,1.317611118337238952e-06
2.742063492063492092e+00,-1.232031171740529372e-04,2.276584699067933757e-05
2.742857142857142883e+00,-1.476591784048746580e-04,3.537931735613230748e-05
2.743650793650793673e+00,-1.504249321226069057e-04,3.188988069250194333e-05
2.744444444444444464e+00,-1.301511488831480327e-04,8.751431574124488591e-06
2.745238095238095255e+00,-8.955121008859644595e-05,-3.278431535383914176e-05
2.746031746031746046e+00,-3.473827747200161821e-05,-8.672007965789654057e-05
2.746825396825396837e+00,2.597407982380792567e-05,-1.434542940318655319e-04
2.747619047619047628e+00,8.349846486935327686e-05,-1.917286113754232738e-04
2.748412698412698418e+00,1.293827933427971796e-04,-2.209397596522192416e-04
2.749206349206349209e+00,1.570343102448478931e-04,-2.233310614613769833e-04
2.750000000000000000e+00,1.626509434228155327e-04,-1.956465845648081838e-04
2.750793650793650791e+00,1.457898966272852591e-04,-1.399700460721484867e-04
2.751587301587301582e+00,1.095163548372190014e-04,-6.362389398308472771e-05
2.752380952380952372e+00,6.006748380779893741e-05,2.187162910439520658e-05
2.753174603174603163e+00,5.969067039913099531e-06,1.026772933608793912e-04
2.753968253968253954e+00,-4.338437219880415634e-05,1.651235371806847655e-04
2.754761904761904745e+00,-7.949950219833098130e-05,1.984132248273354725e-04
2.755555555555555536e+00,-9.651755542567689813e-05,1.969887035082444084e-04
2.756349206349206327e+00,-9.244728195736185469e-05,1.619701688956690934e-04
2.757142857142857117e+00,-6.955224829300199073e-05,1.012073528097409849e-04
2.757936507936507908e+00,-3.379313794096646295e-05,2.779486087201551425e-05
2.758730158730158699e+00,6.525518881027779101e-06,-4.269496314636636066e-05
2.759523809523809490e+00,4.257821250752345766e-05,-9.563594791566424464e-05
2.760317460317460281e+00,6.689567367499400644e-05,-1.205904132494013963e-04
2.761111111111111072e+00,7.487873940737645585e-05,-1.135493369000464684e-04
2.761904761904761862e+00,6.562078337047045978e-05,-7.759417353630430718e-05
2.762698412698412653e+00,4.188406829839448121e-05,-2.181685134254789666e-05
2.763492063492063444e+00,9.286778523263434747e-06,4.119095124968326810e-05
2.764285714285714235e+00,-2.506398082554152370e-05,9.858217965804032896e-05
2.765079365079365026e+00,-5.416357931799607045e-05,1.403613790173190558e-04
2.765873015873015817e+00,-7.258884591033735903e-05,1.615448981632664816e-04
2.766666666666666607e+00,-7.757746428257078280e-05,1.628232042136808872e-04
2.767460317460317398e+00,-6.950038851337312024e-05,1.495862412903512255e-04
2.768253968253968189e+00,-5.162691250027459064e-05,1.296536326053137819e-04
2.769047619047618980e+00,-2.922317970448029485e-05,1.104421695042721201e-04
2.769841269841269771e+00,-8.188170990376299280e-06,9.645715546213539477e-05
2.770634920634920562e+00,6.427325415176688359e-06,8.787455139458624613e-05
2.771428571428571352e+00,1.161502679275810588e-05,8.064544260864823003e-05
2.772222222222222143e+00,6.984520752854834649e-06,6.809656845201589358e-05
2.773015873015872934e+00,-5.414612892359704796e-06,4.353764751559097764e-05
2.773809523809523725e+00,-2.190210735069795652e-05,3.057443379070742566e-06
2.774603174603174516e+00,-3.827990599731058462e-05,-5.239475233979105868e-05
2.775396825396825307e+00,-5.085549955653570519e-05,-1.163605891949694290e-04
2.776190476190476097e+00,-5.707972281822778452e-05,-1.779635605844849500e-04
2.776984126984126888e+00,-5.570593199887723980e-05,-2.244971779115810182e-04
2.777777777777777679e+00,-4.658430390081105084e-05,-2.447441097884169373e-04
2.778571428571428470e+00,-3.032271594948886799e-05,-2.319828117467566614e-04
2.779365079365079261e+00,-8.034368123896581184e-06,-1.857652307302625134e-04
2.780158730158730052e+00,1.872412171042176925e-05,-1.120296707636854477e-04
2.780952380952380842e+00,4.787707969047384044e-05,-2.169724932068686722e-05
2.781746031746031633e+00,7.679110566090452243e-05,7.169300455899885530e-05
2.782539682539682424e+00,1.024678731770380460e-04,1.546566835150831607e-04
2.783333333333333215e+00,1.220442468926863887e-04,2.162108278577240690e-04
2.784126984126984006e+00,1.334525120146922230e-04,2.497061186168463096e-04
2.784920634920634797e+00,1.359014749771442980e-04,2.537388244187835005e-04
2.785714285714285587e+00,1.298500258858845124e-04,2.319552266090456805e-04
2.786507936507936378e+00,1.164096009439375594e-04,1.918075782128764249e-04
2.787301587301587169e+00,9.647529128560442902e-05,1.426089747126938455e-04
2.788095238095237960e+00,7.009830757136853961e-05,9.339271891518559127e-05
2.788888888888888751e+00,3.653363085212890828e-05,5.105462697297643491e-05
2.789682539682539542e+00,-4.924926466518302988e-06,1.912989359930095904e-05
2.790476190476190332e+00,-5.360827828920600266e-05,-2.579858245359017993e-06
2.791269841269841123e+00,-1.062272901828837285e-04,-1.745267070657108744e-05
2.792063492063491914e+00,-1.564076499284959587e-04,-3.067009854696432000e-05
2.792857142857142705e+00,-1.954936017881162534e-04,-4.734298104423052085e-05
2.793650793650793496e+00,-2.146168975235103124e-04,-7.064568804748916722e-05
2.794444444444444287e+00,-2.074189437665420065e-04,-1.005204973153524662e-04
2.795238095238095077e+00,-1.724202548120321303e-04,-1.333953448949175768e-04
2.796031746031745868e+00,-1.141013084841021111e-04,-1.630735607626608227e-04
2.796825396825396659e+00,-4.225450846559388759e-05,-1.825676184826966050e-04
2.797619047619047450e+00,3.019090773345383015e-05,-1.862895469735184714e-04
2.798412698412698241e+00,9.018233506906172810e-05,-1.718391152228367709e-04
2.799206349206349032e+00,1.275306830366762577e-04,-1.407606579903479993e-04
2.799999999999999822e+00,1.371193902180859521e-04,-9.804894624203619002e-05
2.800793650793650613e+00,1.198660616308395180e-04,-5.068092091674190815e-05
2.801587301587301404e+00,8.229413829901801182e-05,-5.771295873854601056e-06
2.802380952380952195e+00,3.487138352709053050e-05,3.103450011262447791e-05
2.803174603174602986e+00,-1.048612314882283573e-05,5.652429377281808652e-05
2.803968253968253777e+00,-4.317331726581337430e-05,7.010040449833673175e-05
2.804761904761904567e+00,-5.626717408370558255e-05,7.326820738652320083e-05
2.805555555555555358e+00,-4.792378213144948547e-05,6.869357469219972698e-05
2.806349206349206149e+00,-2.147207453769270276e-05,5.918270546764930123e-05
2.807142857142856940e+00,1.573879739826665960e-05,4.691675067004533943e-05
2.807936507936507731e+00,5.433556789038829313e-05,3.313928334267089541e-05
2.808730158730158522e+00,8.519892621089916198e-05,1.830469213543566484e-05
2.809523809523809312e+00,1.014945225189454981e-04,2.533877572647119999e-06
2.810317460317460103e+00,1.000540095697605126e-04,-1.385466996407147390e-05
2.811111111111110894e+00,8.185137765584862314e-05,-2.996006545896921951e-05
2.811904761904761685e+00,5.149113684901145105e-05,-4.420473891031581322e-05
2.812698412698412920e+00,1.583579284181982862e-05,-5.455896704910809068e-05
2.813492063492063711e+00,-1.787522914664164443e-05,-5.899866941910749432e-05
2.814285714285714501e+00,-4.389200305581047312e-05,-5.604360644529330070e-05
2.815079365079365292e+00,-5.924502338818131756e-05,-4.522091465716333365e-05
2.815873015873016083e+00,-6.405293576973564141e-05,-2.734126756156436686e-05
2.816666666666666874e+00,-6.077381809080727843e-05,-4.523236001632847745e-06
2.817460317460317665e+00,-5.273753849179467306e-05,2.006549088975046767e-05
2.818253968253968456e+00,-4.260964248464995275e-05,4.274587573186273639e-05
2.819047619047619246e+00,-3.148237160962224579e-05,6.006752997714855796e-05
2.819841269841270037e+00,-1.899302256064706179e-05,6.957163556115551816e-05
2.820634920634920828e+00,-4.342321701897871618e-06,7.033794522343201033e-05
2.821428571428571619e+00,1.239283311022935894e-05,6.312962177239364765e-05
2.822222222222222410e+00,2.940265003833012343e-05,5.009424513540347026e-05
2.823015873015873201e+00,4.323200009908113905e-05,3.413010324534489762e-05
2.823809523809523991e+00,4.980968930720403205e-05,1.812803005790457358e-05
2.824603174603174782e+00,4.596989571804692057e-05,4.341474520103225115e-06
2.825396825396825573e+00,3.081084227856792807e-05,-5.901891735462507482e-06
2.826190476190476364e+00,6.330866613417603905e-06,-1.208469569394459255e-05
2.826984126984127155e+00,-2.289862322623047999e-05,-1.413016265629242870e-05
2.827777777777777946e+00,-5.088683377037334066e-05,-1.206117435709003693e-05
2.828571428571428736e+00,-7.179513498606000831e-05,-5.922539599195165511e-06
2.829365079365079527e+00,-8.142539935543000561e-05,3.987973421218733358e-06
2.830158730158730318e+00,-7.819996690528913954e-05,1.672361286816075409e-05
2.830952380952381109e+00,-6.339882076422712314e-05,3.035882868722293077e-05
2.831746031746031900e+00,-4.065394639241502945e-05,4.194077925243324604e-05
2.832539682539682691e+00,-1.490273521010371335e-05,4.785937388561209692e-05
2.833333333333333481e+00,8.879224509354689449e-06,4.464625971563090430e-05
2.834126984126984272e+00,2.681958292532739480e-05,3.003822990838352921e-05
2.834920634920635063e+00,3.687521006622597870e-05,3.972679505213507121e-06
2.835714285714285854e+00,3.898575515763531726e-05,-3.087700833468975259e-05
2.836507936507936645e+00,3.468316743768630819e-05,-6.931428693508712104e-05
2.837301587301587436e+00,2.635945450680356463e-05,-1.046351087046120201e-04
2.838095238095238226e+00,1.647921914377251459e-05,-1.302183131662730845e-04
2.838888888888889017e+00,6.984284145410143270e-06,-1.412229909029474883e-04
2.839682539682539808e+00,-9.903300744770630427e-07,-1.358366932898312702e-04
2.840476190476190599e+00,-7.111433950101699774e-06,-1.156624756839204267e-04
2.841269841269841390e+00,-1.166115610018378989e-05,-8.516944433512893640e-05
2.842063492063492181e+00,-1.527751520376289127e-05,-5.048246935508667922e-05
2.842857142857142971e+00,-1.867899978661759976e-05,-1.796191527979340303e-05
2.843650793650793762e+00,-2.238784996113074848e-05,7.030355372373750704e-06
2.844444444444444553e+00,-2.647103851246648842e-05,2.096973729324470848e-05
2.845238095238095344e+00,-3.035378971904275600e-05,2.258287701874831939e-05
2.846031746031746135e+00,-3.278756132466790921e-05,1.289807605288373845e-05
2.846825396825396925e+00,-3.204314707526895379e-05,-5.000874412894025259e-06
2.847619047619047716e+00,-2.634174121004611663e-05,-2.647549943899617502e-05
2.848412698412698507e+00,-1.444618787575256677e-05,-4.605290598689716999e-05
2.849206349206349298e+00,3.751119471454307367e-06,-5.831013834735276848e-05
2.850000000000000089e+00,2.684224781863423696e-05,-5.884029096421406597e-05
2.850793650793650880e+00,5.188330689281446295e-05,-4.518972423293677541e-05
2.851587301587301670e+00,7.481577192520868439e-05,-1.760326980230456258e-05
2.852380952380952461e+00,9.128576358898300952e-05,2.066277522352551638e-05
2.853174603174603252e+00,9.767528484432694736e-05,6.372448770423379781e-05
2.853968253968254043e+00,9.203975054538737332e-05,1.042740319660646675e-04
2.854761904761904834e+00,7.463941397759091051e-05,1.354016151590764288e-04
2.855555555555555625e+00,4.790518122589387980e-05,1.524797958029063352e-04
2.856349206349206415e+00,1.591277532649227437e-05,1.544051807029124957e-04
2.857142857142857206e+00,-1.639893086524716619e-05,1.436845156627816690e-04
2.857936507936507997e+00,-4.402779453691713866e-05,1.253133364133998749e-04
2.858730158730158788e+00,-6.260403534894234587e-05,1.048965666789011304e-04
2.859523809523809579e+00,-6.897574510036807885e-05,8.676304944739771032e-05
2.860317460317460370e+00,-6.171126832857754365e-05,7.279866842420325192e-05
2.861111111111111160e+00,-4.148919933866668258e-05,6.238406615153278302e-05
2.861904761904761951e+00,-1.126045973190431159e-05,5.333154505254512543e-05
2.862698412698412742e+00,2.397010004481132882e-05,4.329852974017578182e-05
2.863492063492063533e+00,5.783572625392305956e-05,3.099444106457067147e-05
2.864285714285714324e+00,8.373045938748517798e-05,1.665334086272102205e-05
2.865079365079365115e+00,9.617155809901348034e-05,1.635090646106134260e-06
2.865873015873015905e+00,9.209922738920705979e-05,-1.254720407359848783e-05
2.866666666666666696e+00,7.175024076609973417e-05,-2.520962537889027012e-05
2.867460317460317487e+00,3.876275174667004645e-05,-3.695467764495371951e-05
2.868253968253968278e+00,-6.567440557204854130e-07,-4.936021054728893554e-05
2.869047619047619069e+00,-3.933100295456021440e-05,-6.404145664041582060e-05
2.869841269841269860e+00,-7.094518385892152883e-05,-8.150684970771108193e-05
2.870634920634920650e+00,-9.146783398834340193e-05,-1.003026239175102698e-04
2.871428571428571441e+00,-9.972724149772919250e-05,-1.168288598652711353e-04
2.872222222222222232e+00,-9.709620682989639694e-05,-1.259755364887349058e-04
2.873015873015873023e+00,-8.654954282467813864e-05,-1.224479515454086583e-04
2.873809523809523814e+00,-7.148401408392228320e-05,-1.024220291760189578e-04
2.874603174603174605e+00,-5.466424669470422594e-05,-6.506214863919353175e-05
2.875396825396825395e+00,-3.755598593116007988e-05,-1.344266294942365901e-05
2.876190476190476186e+00,-2.018354966048770135e-05,4.548982899901858569e-05
2.876984126984126977e+00,-1.525077975299462630e-06,1.020727875851688160e-04
2.877777777777777768e+00,1.966270657889552701e-05,1.460288526975064946e-04
2.878571428571428559e+00,4.382353034770771621e-05,1.689609148853822237e-04
2.879365079365079350e+00,6.972236276862477209e-05,1.664632191510584879e-04
2.880158730158730140e+00,9.406884153796911906e-05,1.391604180501963915e-04
2.880952380952380931e+00,1.118905089532895754e-04,9.238063201415770372e-05
2.881746031746031722e+00,1.176657000310784527e-04,3.466288005739821365e-05
2.882539682539682513e+00,1.069494543151938454e-04,-2.434565862208170622e-05
2.883333333333333304e+00,7.801144001400684780e-05,-7.594994155880077603e-05
2.884126984126984095e+00,3.292704658433312325e-05,-1.139115405072227611e-04
2.884920634920634885e+00,-2.233371231297023973e-05,-1.351547140411147696e-04
2.885714285714285676e+00,-7.898273296865164484e-05,-1.397031499498047709e-04
2.886507936507936467e+00,-1.274095396838027328e-04,-1.300530052678257093e-04
2.887301587301587258e+00,-1.594902404438904714e-04,-1.102476195800061867e-04
2.888095238095238049e+00,-1.704776072488410697e-04,-8.489659029770677391e-05
2.888888888888888840e+00,-1.599142781567442883e-04,-5.832021665818295521e-05
2.889682539682539630e+00,-1.313852915361235333e-04,-3.392755198212112560e-05
2.890476190476190421e+00,-9.131543885579240685e-05,-1.387112343484711611e-05
2.891269841269841212e+00,-4.726904969313487881e-05,1.021005805491501282e-06
2.892063492063492003e+00,-6.265463029859666462e-06,1.105804388890387713e-05
2.892857142857142794e+00,2.648705225109605752e-05,1.729577562453732398e-05
2.893650793650793585e+00,4.823191855397523865e-05,2.104407212926883623e-05
2.894444444444444375e+00,5.867101073978752595e-05,2.341886466800436020e-05
2.895238095238095166e+00,5.947747755303252559e-05,2.508269053051434864e-05
2.896031746031745957e+00,5.353206560121274369e-05,2.625372421833012968e-05
2.896825396825396748e+00,4.410921822702843534e-05,2.695209219325305088e-05
2.897619047619047539e+00,3.419444944710583957e-05,2.733213923290098092e-05
2.898412698412698330e+00,2.603801609418042196e-05,2.788647549747639515e-05
2.899206349206349120e+00,2.096633953874679461e-05,2.936766516118922906e-05
2.899999999999999911e+00,1.940558558708042121e-05,3.244515344771104523e-05
2.900793650793650702e+00,2.103834183705617677e-05,3.728782186317432874e-05
2.901587301587301493e+00,2.501674026569453014e-05,4.331236943679141530e-05
2.902380952380952284e+00,3.017863421890441564e-05,4.923215396412594582e-05
2.903174603174603075e+00,3.523782441801307929e-05,5.336406656926782476e-05
2.903968253968253865e+00,3.893737466503639869e-05,5.403262876729156977e-05
2.904761904761904656e+00,4.017062428465385522e-05,4.991638007522818831e-05
2.905555555555555447e+00,3.808751777928260089e-05,4.026866130966381686e-05
2.906349206349206238e+00,3.220618405672677866e-05,2.503039644299775621e-05
2.907142857142857029e+00,2.253676256293596239e-05,4.891843365654830986e-06
2.907936507936507819e+00,9.702361730838333432e-06,-1.865271801702726406e-05
2.908730158730158610e+00,-4.979223064101991586e-06,-4.326900974601850835e-05
2.909523809523809401e+00,-1.950301042691223903e-05,-6.584523905954228035e-05
2.910317460317460192e+00,-3.132455182703580807e-05,-8.276557058062553767e-05
2.911111111111110983e+00,-3.768161312446120938e-05,-9.046653534836856538e-05
2.911904761904761774e+00,-3.608485762355625331e-05,-8.623258101541764599e-05
2.912698412698412564e+00,-2.491700024570408045e-05,-6.903992589158822657e-05
2.913492063492063355e+00,-4.021171655430385828e-06,-4.015744938811672735e-05
2.914285714285714146e+00,2.488250688268729563e-05,-3.232916627463897354e-06
2.915079365079364937e+00,5.811623649958141751e-05,3.625229200733940153e-05
2.915873015873015728e+00,9.041217717046155734e-05,7.205219647504258230e-05
2.916666666666666519e+00,1.157325842572922954e-04,9.845256261489812263e-05
2.917460317460317309e+00,1.284047476756232224e-04,1.114255832242855689e-04
2.918253968253968100e+00,1.243125397486697075e-04,1.093396614810311960e-04
2.919047619047618891e+00,1.018551522120362759e-04,9.308615975880603387e-05
2.919841269841269682e+00,6.246185662528991865e-05,6.566622767499255163e-05
2.920634920634920473e+00,1.056934261710048741e-05,3.140514546884699864e-05
2.921428571428571264e+00,-4.696417214003653190e-05,-4.984679392935481500e-06
2.922222222222222054e+00,-1.019961963425124158e-04,-3.926058503650176724e-05
2.923015873015872845e+00,-1.466578202076353600e-04,-6.821709301761974423e-05
2.923809523809523636e+00,-1.749872020615777124e-04,-8.983637512860675144e-05
2.924603174603174427e+00,-1.841475142765223116e-04,-1.030544679444680116e-04
2.925396825396825218e+00,-1.748270522301302262e-04,-1.073537369499340065e-04
2.926190476190476009e+00,-1.507235925768931673e-04,-1.024617328647171481e-04
2.926984126984126799e+00,-1.173549061985578720e-04,-8.833840844344934386e-05
2.927777777777777590e+00,-8.063381752827852519e-05,-6.545007465310066883e-05
2.928571428571428381e+00,-4.563549020988972248e-05,-3.518550672471251978e-05
2.929365079365079172e+00,-1.582436668392397404e-05,-2.125187787670579103e-07
2.930158730158729963e+00,7.189828665623170903e-06,3.542076702077771936e-05
2.930952380952380754e+00,2.344750192723843075e-05,6.657981137285555419e-05
2.931746031746031544e+00,3.414169725144969644e-05,8.776030591947609838e-05
2.932539682539682335e+00,4.099768412510179769e-05,9.410952761724841070e-05
2.933333333333333126e+00,4.567761011358053701e-05,8.251887464380109575e-05
2.934126984126983917e+00,4.932140330728726989e-05,5.251773358790307549e-05
2.934920634920634708e+00,5.229712077059559547e-05,6.735296593966332822e-06
2.935714285714285499e+00,5.419778430786683791e-05,-4.921920983383604105e-05
2.936507936507936289e+00,5.408241973707051450e-05,-1.074832239201567501e-04
2.937301587301587080e+00,5.091144441260381156e-05,-1.591558444058343885e-04
2.938095238095238315e+00,4.407357701040064444e-05,-1.957712234882794165e-04
2.938888888888889106e+00,3.385780840537634982e-05,-2.107534154622981836e-04
2.939682539682539897e+00,2.171294582362369406e-05,-2.005820436482862233e-04
2.940476190476190688e+00,1.017668100387299379e-05,-1.654545719615536318e-04
2.941269841269841478e+00,2.441354028401054146e-06,-1.093432761209803689e-04
2.942063492063492269e+00,1.625939013722869279e-06,-3.946681194117084365e-05
2.942857142857143060e+00,9.908687052105706041e-06,3.474640039146532618e-05
2.943650793650793851e+00,2.771977978733797607e-05,1.031234630410984062e-04
2.944444444444444642e+00,5.319483121059324714e-05,1.565090701767637754e-04
2.945238095238095433e+00,8.206362528075805554e-05,1.885290179867055735e-04
2.946031746031746223e+00,1.081100029393714364e-04,1.968876063751384155e-04
2.946825396825397014e+00,1.242671912259582262e-04,1.837442084236935139e-04
2.947619047619047805e+00,1.242516131269921027e-04,1.549866264287801283e-04
2.948412698412698596e+00,1.043805289649662300e-04,1.186089875537729699e-04
2.949206349206349387e+00,6.499091101605304112e-05,8.269364279474318981e-05
2.950000000000000178e+00,1.087747128826617552e-05,5.358082462876057918e-05
2.950793650793650968e+00,-4.952372727741397170e-05,3.470199293526532572e-05
2.951587301587301759e+00,-1.060144039656857773e-04,2.631546175018954165e-05
2.952380952380952550e+00,-1.490172121634313139e-04,2.609367363067897398e-05
2.953174603174603341e+00,-1.717749096951931695e-04,3.026476834589455166e-05
2.953968253968254132e+00,-1.717678606610721658e-04,3.489116429852208873e-05
2.954761904761904923e+00,-1.510022232942301811e-04,3.690326723702981642e-05
2.955555555555555713e+00,-1.151718928166356172e-04,3.465750805931377352e-05
2.956349206349206504e+00,-7.203714015787035096e-05,2.798086066125074332e-05
2.957142857142857295e+00,-2.955145281978025366e-05,1.783104708180739524e-05
2.957936507936508086e+00,5.755562348252989051e-06,5.794450144098801048e-06
2.958730158730158877e+00,2.980906017079604147e-05,-6.364991584827347911e-06
2.959523809523809668e+00,4.132682073974653459e-05,-1.699216449094422432e-05
2.960317460317460458e+00,4.154403011001644346e-05,-2.467685937064608857e-05
2.961111111111111249e+00,3.351862973939584303e-05,-2.833137280604153103e-05
2.961904761904762040e+00,2.124707584464927137e-05,-2.729403303293006957e-05
2.962698412698412831e+00,8.793790989102921927e-06,-2.148019499291037938e-05
2.963492063492063622e+00,-4.246588784332924500e-07,-1.153654218090790127e-05
2.964285714285714413e+00,-4.127927234548302437e-06,1.079174802363439017e-06
2.965079365079365203e+00,-1.413115981438098486e-06,1.416566277876734158e-05
2.965873015873015994e+00,7.239897549051763270e-06,2.503612895077632526e-05
2.966666666666666785e+00,2.017102541665950362e-05,3.097374502626315881e-05
2.967460317460317576e+00,3.490425284486255668e-05,2.984266607449108442e-05
2.968253968253968367e+00,4.860304618768064886e-05,2.073290107647917272e-05
2.969047619047619158e+00,5.853209852656306243e-05,4.429700790703830832e-06
2.969841269841269948e+00,6.245654610588833406e-05,-1.651894270507722203e-05
2.970634920634920739e+00,5.895083409357699259e-05,-3.825674720037125888e-05
2.971428571428571530e+00,4.762519691832810519e-05,-5.652705256906971908e-05
2.972222222222222321e+00,2.928035607383354931e-05,-6.778887332348627719e-05
2.973015873015873112e+00,5.968578166765698843e-06,-7.020008006748722565e-05
2.973809523809523903e+00,-1.910405146626430360e-05,-6.414314236149776553e-05
2.974603174603174693e+00,-4.191644299623531293e-05,-5.210587051981420257e-05
2.975396825396825484e+00,-5.825402774881071070e-05,-3.795210859960729884e-05
2.976190476190476275e+00,-6.455377003734702750e-05,-2.582557038957467772e-05
2.976984126984127066e+00,-5.879547706936167831e-05,-1.902015453260480889e-05
2.977777777777777857e+00,-4.119455234699871790e-05,-1.911647073197679975e-05
2.978571428571428648e+00,-1.447406252913328991e-05,-2.560704498727534969e-05
2.979365079365079438e+00,1.641046748222303758e-05,-3.614348770959232573e-05
2.980158730158730229e+00,4.510015756769783371e-05,-4.737855539838355351e-05
2.980952380952381020e+00,6.510527844575861832e-05,-5.612962098848068009e-05
2.981746031746031811e+00,7.129032353636802883e-05,-6.039234211043594154e-05
2.982539682539682602e+00,6.122041133549601928e-05,-5.976622135820566746e-05
2.983333333333333393e+00,3.595354460918331158e-05,-5.514800737975969383e-05
2.984126984126984183e+00,-5.269721017104490280e-08,-4.792555206843024959e-05
2.984920634920634974e+00,-3.998000231922513428e-05,-3.912481425199265434e-05
2.985714285714285765e+00,-7.633280455901800081e-05,-2.892142898175286721e-05
2.986507936507936556e+00,-1.027135930385249891e-04,-1.670272714526884305e-05
2.987301587301587347e+00,-1.151391494204261561e-04,-1.606891676727867802e-06
2.988095238095238138e+00,-1.125808154594640155e-04,1.672185163970295047e-05
2.988888888888888928e+00,-9.672704972888307743e-05,3.750209215260928177e-05
2.989682539682539719e+00,-7.120494711401799555e-05,5.860720517957164607e-05
2.990476190476190510e+00,-4.058431636108400693e-05,7.691836217859143667e-05
2.991269841269841301e+00,-9.443159842649422151e-06,8.913834701618190233e-05
2.992063492063492092e+00,1.833539970852493515e-05,9.275750276210247794e-05
2.992857142857142883e+00,3.997691487907396581e-05,8.680365714382175539e-05
2.993650793650793673e+00,5.396612193774131492e-05,7.212989209669297169e-05
2.994444444444444464e+00,6.000384023444692142e-05,5.120570720706082502e-05
2.995238095238095255e+00,5.884260307601711372e-05,2.754413649432533253e-05
2.996031746031746046e+00,5.204766349164283065e-05,4.954601871186799220e-06
2.996825396825396837e+00,4.170183252440648187e-05,-1.321017328928677332e-05
2.997619047619047628e+00,3.006586851352925416e-05,-2.468069701987756019e-05
2.998412698412698418e+00,1.922459596441623527e-05,-2.866360231861866993e-05
2.999206349206349209e+00,1.077437468737560225e-05,-2.592752301257815291e-05
3.000000000000000000e+00,5.616230317356391101e-06,-1.856167194092086029e-05
3.000793650793650791e+00,3.899585530252476518e-06,-9.446339064398793191e-06
3.001587301587301582e+00,5.120959065347677194e-06,-1.533719907290208237e-06
3.002380952380952372e+00,8.338849840341474613e-06,2.902082946157328214e-06
3.003174603174603163e+00,1.243884281265984385e-05,2.846628394707511233e-06
3.003968253968253954e+00,1.638027472999048541e-05,-1.220117140559571668e-06
3.004761904761904745e+00,1.937342102595109456e-05,-7.516530090365704401e-06
3.005555555555555536e+00,2.096281803853581257e-05,-1.352488653713961100e-05
3.006349206349206327e+00,2.101824480119124139e-05,-1.676771867124011357e-05
3.007142857142857117e+00,1.965572781784742694e-05,-1.558852677466924142e-05
3.007936507936507908e+00,1.712482992979160858e-05,-9.733413412092976907e-06
3.008730158730158699e+00,1.370256620060594376e-05,-5.571426168671607114e-07
3.009523809523809490e+00,9.626427990163111397e-06,9.258116330480625211e-06
3.010317460317460281e+00,5.081657135399421801e-06,1.644984897094140683e-05
3.011111111111111072e+00,2.378348415856440234e-07,1.818569134579046687e-05
3.011904761904761862e+00,-4.686128065328903280e-06,1.300058041311571114e-05
3.012698412698412653e+00,-9.357300609280224074e-06,1.330000056946142965e-06
3.013492063492063444e+00,-1.329162011914405888e-05,-1.454156085671311293e-05
3.014285714285714235e+00,-1.586319240907281593e-05,-3.109062489866290112e-05
3.015079365079365026e+00,-1.636778727868563762e-05,-4.451958277903666307e-05
3.015873015873015817e+00,-1.413777404418296743e-05,-5.176494541086837381e-05
3.016666666666666607e+00,-8.694891676341377410e-06,-5.122309902943025952e-05
3.017460317460317398e+00,8.643892876012746035e-08,-4.297268389114945508e-05
3.018253968253968189e+00,1.184755158784853358e-05,-2.847845557741654821e-05
3.019047619047618980e+00,2.569521936785789076e-05,-9.973461336372936565e-06
3.019841269841269771e+00,4.026994912136510279e-05,1.018256448955299135e-05
3.020634920634920562e+00,5.393682238970612543e-05,2.993071027434960967e-05
3.021428571428571352e+00,6.506049054764738773e-05,4.765499049484881415e-05
3.022222222222222143e+00,7.229080889860631449e-05,6.212763430220792258e-05
3.023015873015872934e+00,7.476839576707079433e-05,7.241376800997117048e-05
3.023809523809523725e+00,7.217216825399820363e-05,7.785677454410185115e-05
3.024603174603174516e+00,6.458667925555904780e-05,7.817107081403700138e-05
3.025396825396825307e+00,5.225421250253279394e-05,7.357122856439606527e-05
3.026190476190476097e+00,3.534677739516356584e-05,6.482246172466137719e-05
3.026984126984126888e+00,1.389756397678326610e-05,5.314291497996734899e-05
3.027777777777777679e+00,-1.203671237293958980e-05,3.999077701187843815e-05
3.028571428571428470e+00,-4.201749429138301918e-05,2.683935504453470821e-05
3.029365079365079261e+00,-7.480379036528848414e-05,1.502079714119252883e-05
3.030158730158730052e+00,-1.080599893530339765e-04,5.633490958378605897e-06
3.030952380952380842e+00,-1.383790186412102365e-04,-5.567048005652449349e-07
3.031746031746031633e+00,-1.617301267681621685e-04,-3.273500781561286652e-06
3.032539682539682424e+00,-1.742870175869750283e-04,-2.905826175771378045e-06
3.033333333333333215e+00,-1.734070846178494723e-04,-5.723770167202169438e-07
3.034126984126984006e+00,-1.584172248212791043e-04,2.055098838966722772e-06
3.034920634920634797e+00,-1.309049505866421352e-04,3.187500501988823290e-06
3.035714285714285587e+00,-9.440622480162958569e-05,1.473778367686362402e-06
3.036507936507936378e+00,-5.361745666074931358e-05,-3.559384275704085539e-06
3.037301587301587169e+00,-1.341451107821471757e-05,-1.138907387863886893e-05
3.038095238095237960e+00,2.202597940889999999e-05,-2.075816628162940278e-05
3.038888888888888751e+00,4.980963604376265866e-05,-3.018970612797264441e-05
3.039682539682539542e+00,6.855125969005578359e-05,-3.849857922292385245e-05
3.040476190476190332e+00,7.828318996910229352e-05,-4.505549776928351619e-05
3.041269841269841123e+00,8.013376642476954239e-05,-4.970735201362918009e-05
3.042063492063491914e+00,7.588807150679243319e-05,-5.245675042787814325e-05
3.042857142857142705e+00,6.755168821560122484e-05,-5.312307976316448367e-05
3.043650793650793496e+00,5.702388309541382456e-05,-5.118391902844983936e-05
3.044444444444444287e+00,4.593381899257281789e-05,-4.587910145870063183e-05
3.045238095238095077e+00,3.561059410901219616e-05,-3.654050409958544456e-05
3.046031746031745868e+00,2.709441351762635879e-05,-2.302908782214726214e-05
3.046825396825396659e+00,2.110460886667185986e-05,-6.110582232487291614e-06
3.047619047619047450e+00,1.795569405659900087e-05,1.241353585472979307e-05
3.048412698412698241e+00,1.748852127931688449e-05,2.994680009606026774e-05
3.049206349206349032e+00,1.909566254668157296e-05,4.368625496460452505e-05
3.049999999999999822e+00,2.186522526803537386e-05,5.134964033723553924e-05
3.050793650793650613e+00,2.479612193762995357e-05,5.174756360325760820e-05
3.051587301587301404e+00,2.700343347015696384e-05,4.499576510854763606e-05
3.052380952380952195e+00,2.785174018734541820e-05,3.234644038855845008e-05
3.053174603174602986e+00,2.700430966367170979e-05,1.576044051495206939e-05
3.053968253968253777e+00,2.441657507374453924e-05,-2.610908735128069147e-06
3.054761904761904567e+00,2.030787414722079896e-05,-2.088019005946092996e-05
3.055555555555555358e+00,1.512306470674736319e-05,-3.769388863314468235e-05
3.056349206349206149e+00,9.472587965880013887e-06,-5.224801691833071463e-05
3.057142857142856940e+00,4.036468438963915326e-06,-6.406447720128391552e-05
3.057936507936507731e+00,-5.647920594095700446e-07,-7.265085372054102869e-05
3.058730158730158522e+00,-3.905797376835310599e-06,-7.724248476060908541e-05
3.059523809523809312e+00,-5.858148486048882897e-06,-7.681523392648636529e-05
3.060317460317460103e+00,-6.623061944679792406e-06,-7.044484180830636272e-05
3.061111111111110894e+00,-6.679011624108574958e-06,-5.790483614214286226e-05
3.061904761904761685e+00,-6.654636873267979225e-06,-4.021640777947055263e-05
3.062698412698412920e+00,-7.159588763561327069e-06,-1.980660546733162934e-05
3.063492063492063711e+00,-8.618199593781462040e-06,-8.320699169111226614e-08
3.064285714285714501e+00,-1.114967402196459757e-05,1.545845827828483087e-05
3.065079365079365292e+00,-1.452470602183686152e-05,2.422435710865616376e-05
3.065873015873016083e+00,-1.820720148611055519e-05,2.520827562889346455e-05
3.066666666666666874e+00,-2.146862926173717437e-05,1.916778144891010909e-05
3.067460317460317665e+00,-2.354718285190796870e-05,8.316844771696861233e-06
3.068253968253968456e+00,-2.381638553388596119e-05,-4.293963093578179337e-06
3.069047619047619246e+00,-2.192765872715350442e-05,-1.550486208400129139e-05
3.069841269841270037e+00,-1.789785790806555312e-05,-2.270726228929384181e-05
3.070634920634920828e+00,-1.212450515475078415e-05,-2.431567274821587292e-05
3.071428571428571619e+00,-5.326006175301541584e-06,-1.998433104643220406e-05
3.072222222222222410e+00,1.581222379437939083e-06,-1.055178597103036313e-05
3.073015873015873201e+00,7.644238703026639092e-06,2.254304251123657517e-06
3.073809523809523991e+00,1.204082521832340796e-05,1.626943956494055426e-05
3.074603174603174782e+00,1.421817265063508432e-05,2.937896227482346892e-05
3.075396825396825573e+00,1.397583186162712746e-05,3.991001294471193485e-05
3.076190476190476364e+00,1.147990862812459891e-05,4.683918396090337824e-05
3.076984126984127155e+00,7.211946724208684372e-06,4.979882923725207960e-05
3.077777777777777946e+00,1.869838748948626322e-06,4.893845734837010407e-05
3.078571428571428736e+00,-3.754144547993357573e-06,4.473958418134932433e-05
3.079365079365079527e+00,-8.893413463204433600e-06,3.787517550665347343e-05
3.080158730158730318e+00,-1.290780526535635972e-05,2.915570452000813966e-05
3.080952380952381109e+00,-1.535724400481262061e-05,1.954457810824386738e-05
3.081746031746031900e+00,-1.604620114484245613e-05,1.018964559532661859e-05
3.082539682539682691e+00,-1.503645243304872947e-05,2.412013521914185055e-06
3.083333333333333481e+00,-1.262346868882000270e-05,-2.396662012362221478e-06
3.084126984126984272e+00,-9.274033897658761337e-06,-2.998060996714607506e-06
3.084920634920635063e+00,-5.531241248738346124e-06,1.360236299712385603e-06
3.085714285714285854e+00,-1.904177353643662694e-06,1.058603029707318963e-05
3.086507936507936645e+00,1.232567549203259090e-06,2.350537946810428747e-05
3.087301587301587436e+00,3.704305273074387082e-06,3.790026017374194554e-05
3.088095238095238226e+00,5.549549712318087865e-06,5.089179002502547205e-05
3.088888888888889017e+00,6.977738259036618184e-06,5.960038408695309117e-05
3.089682539682539808e+00,8.282307146753006119e-06,6.188899605232383292e-05
3.090476190476190599e+00,9.731715405567835020e-06,5.694762560152990557e-05
3.091269841269841390e+00,1.146730375319877729e-05,4.552613398440275976e-05
3.092063492063492181e+00,1.343573228533146609e-05,2.974151562743949725e-05
3.092857142857142971e+00,1.537472947437086779e-05,1.252367927050793985e-05
3.093650793650793762e+00,1.685644300756713592e-05,-3.129263799077824878e-06
3.094444444444444553e+00,1.737772052051546738e-05,-1.486964422512206647e-05
3.095238095238095344e+00,1.647629642623381208e-05,-2.149684479496563304e-05
3.096031746031746135e+00,1.384832612343495569e-05,-2.310734266555469806e-05
3.096825396825396925e+00,9.444239218496096078e-06,-2.087513695363091328e-05
3.097619047619047716e+00,3.523729701967444917e-06,-1.655098744976816837e-05
3.098412698412698507e+00,-3.343762908999734127e-06,-1.186147861381305855e-05
3.099206349206349298e+00,-1.033870586745311605e-05,-8.023128802151410077e-06
3.100000000000000089e+00,-1.650650364090093720e-05,-5.535546870693517293e-06
3.100793650793650880e+00,-2.091203225945051150e-05,-4.295033311458760442e-06
3.101587301587301670e+00,-2.280808436239121405e-05,-3.932775847369275883e-06
3.102380952380952461e+00,-2.178573328908477996e-05,-4.195760185680583788e-06
3.103174603174603252e+00,-1.787360682909279369e-05,-5.187871054099641725e-06
3.103968253968254043e+00,-1.155992220418649011e-05,-7.362674706376419089e-06
3.104761904761904834e+00,-3.726959298902899439e-06,-1.126901466484128652e-05
3.105555555555555625e+00,4.490867754568658306e-06,-1.715229253590860441e-05
3.106349206349206415e+00,1.189491370474481807e-05,-2.457647960736840037e-05
3.107142857142857206e+00,1.741693215534598831e-05,-3.223991490443069266e-05
3.107936507936507997e+00,2.028545461703391861e-05,-3.810983748219232305e-05
3.108730158730158788e+00,2.014084951920858704e-05,-3.990279533648583715e-05
3.109523809523809579e+00,1.708689848506510819e-05,-3.580931828664973778e-05
3.110317460317460370e+00,1.167314277991421235e-05,-2.523949791691839292e-05
3.111111111111111160e+00,4.807721008627362275e-06,-9.306389754444984792e-06
3.111904761904761951e+00,-2.390665671950856236e-06,9.184515417952435426e-06
3.112698412698412742e+00,-8.780839364648047041e-06,2.630854907615993879e-05
3.113492063492063533e+00,-1.339516567826925176e-05,3.802012450658169242e-05
3.114285714285714324e+00,-1.560554588177205001e-05,4.127988531165538145e-05
3.115079365079365115e+00,-1.522320755325270971e-05,3.495833022803815831e-05
3.115873015873015905e+00,-1.250483691615586315e-05,2.022289349036065123e-05
3.116666666666666696e+00,-8.052048780856434665e-06,2.797239463071694441e-07
3.117460317460317487e+00,-2.613268056469889188e-06,-2.044453978627587757e-05
3.118253968253968278e+00,3.170154398235989428e-06,-3.742270354729078754e-05
3.119047619047619069e+00,8.994916559564462423e-06,-4.712068503758793064e-05
3.119841269841269860e+00,1.500683693895073180e-05,-4.777286323528910693e-05
3.120634920634920650e+00,2.171879371017969101e-05,-3.966023874226800325e-05
3.121428571428571441e+00,2.972672945334107342e-05,-2.486898652909287630e-05
3.122222222222222232e+00,3.928981761929756602e-05,-6.663593688225621631e-06
3.123015873015873023e+00,4.989392268769618396e-05,1.128992977509102831e-05
3.123809523809523814e+00,5.994088777531011238e-05,2.561560100988052947e-05
3.124603174603174605e+00,6.671044776440726110e-05,3.369692318880529273e-05
3.125396825396825395e+00,6.672166895102967486e-05,3.391715495597224183e-05
3.126190476190476186e+00,5.654244758258240812e-05,2.574364627357396385e-05
3.126984126984126977e+00,3.393372990365310453e-05,9.729709504554330499e-06
3.127777777777777768e+00,-9.920589139471140507e-07,-1.254027520677363000e-05
3.128571428571428559e+00,-4.506273109446115105e-05,-3.857711837319483872e-05
3.129365079365079350e+00,-9.220757930222392765e-05,-6.520158231599357604e-05
3.130158730158730140e+00,-1.346224092827377598e-04,-8.884269363344419416e-05
3.130952380952380931e+00,-1.646494678694385063e-04,-1.058995841951003729e-04
3.131746031746031722e+00,-1.767505550394106049e-04,-1.131523738938538967e-04
3.132539682539682513e+00,-1.689008585812414346e-04,-1.082180940915700114e-04
3.133333333333333304e+00,-1.429725225201783562e-04,-9.003282252083848896e-05
3.134126984126984095e+00,-1.040629620730084657e-04,-5.928684958683945932e-05
3.134920634920634885e+00,-5.907138166659249291e-05,-1.867372839882936673e-05
3.135714285714285676e+00,-1.500973428782215053e-05,2.720823415990342983e-05
3.136507936507936467e+00,2.248215154069779892e-05,7.240383037919298265e-05
3.137301587301587258e+00,5.009866225153108694e-05,1.105635027207597335e-04
3.138095238095238049e+00,6.717087378282812467e-05,1.361234867927066600e-04
3.138888888888888840e+00,7.532371640278966781e-05,1.453996374977648313e-04
3.139682539682539630e+00,7.762147126315630051e-05,1.373057346641148359e-04
3.140476190476190421e+00,7.743396809500001365e-05,1.135364823190911521e-04
3.141269841269841212e+00,7.732126146895399192e-05,7.821951454805996685e-05
3.142063492063492003e+00,7.824085075133398735e-05,3.715672973870905681e-05
3.142857142857142794e+00,7.931394093054682046e-05,-3.175603694427093693e-06
3.143650793650793585e+00,7.824857531956107531e-05,-3.668309636862251489e-05
3.144444444444444375e+00,7.232557415269467657e-05,-5.858000088538860305e-05
3.145238095238095166e+00,5.964650556459396408e-05,-6.603614497933398778e-05
3.146031746031745957e+00,4.019098038250042159e-05,-5.848166779229437397e-05
3.146825396825396748e+00,1.622850802195380051e-05,-3.760652220307946273e-05
3.147619047619047539e+00,-8.155133873849017138e-06,-7.130658445698593922e-06
3.148412698412698330e+00,-2.827764097462922931e-05,2.762369241996804519e-05
3.149206349206349120e+00,-4.033805668984261143e-05,6.039491217796770685e-05
3.149999999999999911e+00,-4.256062642882986203e-05,8.491781178356365596e-05
3.150793650793650702e+00,-3.560692262867112611e-05,9.606092081631674938e-05
3.151587301587301493e+00,-2.220633363910581818e-05,9.093663482624098440e-05
3.152380952380952284e+00,-6.244400026017269069e-06,6.967429394453761239e-05
3.153174603174603075e+00,8.339360497003328311e-06,3.560528853632206160e-05
3.153968253968253865e+00,1.853346198918233290e-05,-5.244035529017368119e-06
3.154761904761904656e+00,2.290223024162435199e-05,-4.530029492285751476e-05
3.155555555555555447e+00,2.177423827129596205e-05,-7.703058467583185102e-05
3.156349206349206238e+00,1.694001840979458359e-05,-9.462278274075845643e-05
3.157142857142857029e+00,1.095407892625506690e-05,-9.532252217134380907e-05
3.157936507936507819e+00,6.264807346060251890e-06,-8.002943216319877043e-05
3.158730158730158610e+00,4.454012532892900818e-06,-5.294763182359837726e-05
3.159523809523809401e+00,5.817587980120382037e-06,-2.038515353397796643e-05
3.160317460317460192e+00,9.388561961650677756e-06,1.091482353665253038e-05
3.161111111111110983e+00,1.335491728239535817e-05,3.539096966390850574e-05
3.161904761904761774e+00,1.570984253072846087e-05,4.978033789724811269e-05
3.162698412698412564e+00,1.492041831663942121e-05,5.350127442816166100e-05
3.163492063492063355e+00,1.041675350822678996e-05,4.831643030198415161e-05
3.164285714285714146e+00,2.772273394742307446e-06,3.748334027190291254e-05
3.165079365079364937e+00,-6.458443067876028072e-06,2.469879451826433058e-05
3.165873015873015728e+00,-1.518262473073251308e-05,1.313908571777333418e-05
3.166666666666666519e+00,-2.136011142024081335e-05,4.813045445092862673e-06
3.167460317460317309e+00,-2.357692612391246577e-05,3.201017920570721831e-07
3.168253968253968100e+00,-2.144799490905132972e-05,-1.013539124304871676e-06
3.169047619047618891e+00,-1.574480328182441288e-05,-7.277771862612389161e-07
3.169841269841269682e+00,-8.217563360360580197e-06,-6.887481054410876209e-07
3.170634920634920473e+00,-1.159764236846136539e-06,-2.547922261703282096e-06
3.171428571428571264e+00,3.175560041175624584e-06,-7.308324446589164704e-06
3.172222222222222054e+00,3.168281236257668192e-06,-1.507734267455465417e-05
3.173015873015872845e+00,-1.704056352732934620e-06,-2.504908673837286939e-05
3.173809523809523636e+00,-1.063596846350480279e-05,-3.570759689225200359e-05
3.174603174603174427e+00,-2.155805348267451598e-05,-4.518257766164708849e-05
3.175396825396825218e+00,-3.149841817679342732e-05,-5.165093518977624054e-05
3.176190476190476009e+00,-3.718559898092965878e-05,-5.368918895709596937e-05
3.176984126984126799e+00,-3.578277402708354769e-05,-5.053597312246720644e-05
3.177777777777777590e+00,-2.560191215891459472e-05,-4.227244347155041405e-05
3.178571428571428381e+00,-6.633045911989322681e-06,-2.992810900265383580e-05
3.179365079365079172e+00,1.924466960919670469e-05,-1.547365134840723299e-05
3.180158730158729963e+00,4.842673603132444408e-05,-1.617992600306902119e-06
3.180952380952380754e+00,7.608785957385322241e-05,8.657442765162345216e-06
3.181746031746031544e+00,9.693223448760375862e-05,1.279259229071901568e-05
3.182539682539682335e+00,1.060803494817109461e-04,9.391357258305899332e-06
3.183333333333333126e+00,9.999219598759051021e-05,-1.256852071392010107e-06
3.184126984126983917e+00,7.731768607709753696e-05,-1.710759540597981009e-05
3.184920634920634708e+00,3.951284808675768523e-05,-3.481505665375907448e-05
3.185714285714285499e+00,-9.007920552733330409e-06,-5.057706498380598186e-05
3.186507936507936289e+00,-6.140385187119658413e-05,-6.108798348118426094e-05
3.187301587301587080e+00,-1.096656112011955590e-04,-6.428027572268229010e-05
3.188095238095238315e+00,-1.463312195306263220e-04,-5.962406188858374587e-05
3.188888888888889106e+00,-1.661423144253801375e-04,-4.792645750248220266e-05
3.189682539682539897e+00,-1.671106773936178059e-04,-3.077060994349225062e-05
3.190476190476190688e+00,-1.506967964049909137e-04,-9.885283013870239252e-06
3.191269841269841478e+00,-1.211324000324930572e-04,1.324636752371353119e-05
3.192063492063492269e+00,-8.418444696111227876e-05,3.737886392016455319e-05
3.192857142857143060e+00,-4.577171090239658759e-05,6.117086707007075700e-05
3.193650793650793851e+00,-1.080673364728090576e-05,8.277907729540156677e-05
3.194444444444444642e+00,1.749992380289777159e-05,9.967458004341086684e-05
3.195238095238095433e+00,3.780425522648054709e-05,1.088813568958553203e-04
3.196031746031746223e+00,5.034413573985355915e-05,1.076507891092271001e-04
3.196825396825397014e+00,5.638707318485609811e-05,9.438369627840153349e-05
3.197619047619047805e+00,5.762046531919723001e-05,6.948091765979134114e-05
3.198412698412698596e+00,5.565416078022064562e-05,3.579930936513350045e-05
3.199206349206349387e+00,5.172363143913547527e-05,-1.502626637137944165e-06
3.200000000000000178e+00,4.659685602710968318e-05,-3.578176702537516900e-05
3.200793650793650968e+00,4.062992707416252799e-05,-6.026420748998425752e-05
3.201587301587301759e+00,3.390000224672862510e-05,-6.964082661343302082e-05
3.202380952380952550e+00,2.636297767106457848e-05,-6.149261258218132419e-05
3.203174603174603341e+00,1.801265922199965698e-05,-3.713564167868884492e-05
3.203968253968254132e+00,9.032149463685295243e-06,-1.626165666681746284e-06
3.204761904761904923e+00,-8.095399921102901540e-08,3.709026960788256767e-05
3.205555555555555713e+00,-8.452074794476115293e-06,6.967836583950993718e-05
3.206349206349206504e+00,-1.487453874762343965e-05,8.723796771665304542e-05
3.207142857142857295e+00,-1.799461377078812120e-05,8.312506470347376766e-05
3.207936507936508086e+00,-1.663471126867439065e-05,5.448072039033675961e-05
3.208730158730158877e+00,-1.019576223772952998e-05,3.214570210638234071e-06
3.209523809523809668e+00,9.860089183098708228e-07,-6.377819416910914766e-05
3.210317460317460458e+00,1.549025604282066581e-05,-1.353212475061166904e-04
3.211111111111111249e+00,3.099507053044165945e-05,-1.976140527534185046e-04
3.211904761904762040e+00,4.478572852752132200e-05,-2.366947196503313997e-04
3.212698412698412831e+00,5.442714321680570310e-05,-2.413508091193272416e-04
3.213492063492063622e+00,5.835499165480172168e-05,-2.059036609495043394e-04
3.214285714285714413e+00,5.618687527111491828e-05,-1.321324398354452475e-04
3.215079365079365203e+00,4.868689180662633662e-05,-2.962708803665973180e-05
3.215873015873015994e+00,3.744466718078907973e-05,8.580902804136407588e-05
3.216666666666666785e+00,2.439866052832257877e-05,1.954728653769038178e-04
3.217460317460317576e+00,1.134745212252941079e-05,2.819088051868238304e-04
3.218253968253968367e+00,-4.227219490562486443e-07,3.326480672923556110e-04
3.219047619047619158e+00,-1.030047786868728134e-05,3.424326749053573939e-04
3.219841269841269948e+00,-1.826725754919689414e-05,3.134003006140153170e-04
3.220634920634920739e+00,-2.461756028087336753e-05,2.534709800676736074e-04
3.221428571428571530e+00,-2.960437997239411811e-05,1.737537078462482920e-04
3.222222222222222321e+00,-3.316187609883559164e-05,8.593413879752622797e-05
3.223015873015873112e+00,-3.481681253489883414e-05,3.338187841525630649e-07
3.223809523809523903e+00,-3.381019046132106815e-05,-7.512576309646496083e-05
3.224603174603174693e+00,-2.936087622332505081e-05,-1.352031629860204857e-04
3.225396825396825484e+00,-2.095990862080274010e-05,-1.771685288552560104e-04
3.226190476190476275e+00,-8.601200983576165983e-06,-2.004487622096689592e-04
3.226984126984127066e+00,7.093694603217830996e-06,-2.062254269286851788e-04
3.227777777777777857e+00,2.485514000103562451e-05,-1.970298001350473708e-04
3.228571428571428648e+00,4.283684960020475149e-05,-1.763335811826952657e-04
3.229365079365079438e+00,5.878036199432916175e-05,-1.481148186515644511e-04
3.230158730158730229e+00,7.028595960038089556e-05,-1.163732124028409129e-04
3.230952380952381020e+00,7.519513879483281905e-05,-8.458190062559404955e-05
3.231746031746031811e+00,7.205259797825154457e-05,-5.511623300787263206e-05
3.232539682539682602e+00,6.055197245760320958e-05,-2.880272567227644986e-05
3.233333333333333393e+00,4.180772674500877811e-05,-4.818530145150821931e-06
3.234126984126984183e+00,1.829647680418100268e-05,1.887227375224523573e-05
3.234920634920634974e+00,-6.581950636664037319e-06,4.456835920389441637e-05
3.235714285714285765e+00,-2.920235955449087566e-05,7.365226373076573377e-05
