Timestamp,Flexor carpi radialis,Extensor digitorum
2.000000000000000000e+00,-1.837617063334396315e-05,2.410975979075196367e-05
2.000793650793650791e+00,-1.960122384720347621e-05,2.785539339685012665e-05
2.001587301587301582e+00,-1.840986929632074440e-05,2.366785202544767125e-05
2.002380952380952372e+00,-1.524878331804900875e-05,1.390142860857125852e-05
2.003174603174603163e+00,-1.086588660456497237e-05,1.927204876010965111e-06
2.003968253968253954e+00,-6.133629022068201033e-06,-8.679624881287086385e-06
2.004761904761904745e+00,-1.866787959428505190e-06,-1.495998852218660601e-05
2.005555555555555536e+00,1.327958230711317437e-06,-1.520552009058453762e-05
2.006349206349206327e+00,3.144643454642961332e-06,-9.263233225125341630e-06
2.007142857142857117e+00,3.601271619409983220e-06,1.545120935766615068e-06
2.007936507936507908e+00,2.997787874410178427e-06,1.484408529287535636e-05
2.008730158730158699e+00,1.824774651285890492e-06,2.784112997427931824e-05
2.009523809523809490e+00,6.437563853605486311e-07,3.801283394929598708e-05
2.010317460317460281e+00,-4.017850780629910999e-08,4.367291686607482762e-05
2.011111111111111072e+00,1.063807358615022913e-07,4.428638488689337545e-05
2.011904761904761862e+00,1.161943274685677094e-06,4.045552907535940849e-05
2.012698412698412653e+00,2.918058658937939297e-06,3.358996565406316789e-05
2.013492063492063444e+00,4.912902672632114812e-06,2.536886591642437445e-05
2.014285714285714235e+00,6.533749376453987827e-06,1.717808160656195246e-05
2.015079365079365026e+00,7.173549674510309821e-06,9.723606292980061078e-06
2.015873015873015817e+00,6.406227886398314179e-06,2.967618237157026095e-06
2.016666666666666607e+00,4.130880854370780120e-06,-3.586446267316198982e-06
2.017460317460317398e+00,6.362510411976039066e-07,-1.038039710462101178e-05
2.018253968253968189e+00,-3.443003604711762901e-06,-1.729449336538656015e-05
2.019047619047618980e+00,-7.273822974130960018e-06,-2.340207473640959696e-05
2.019841269841269771e+00,-1.003770090227110193e-05,-2.713778152715332401e-05
2.020634920634920562e+00,-1.114675641972294785e-05,-2.684535521221636549e-05
2.021428571428571352e+00,-1.039507691768205869e-05,-2.149391147050360476e-05
2.022222222222222143e+00,-7.995954574754304801e-06,-1.127222111287557264e-05
2.023015873015872934e+00,-4.495439034103812479e-06,2.182913791665842479e-06
2.023809523809523725e+00,-5.986232307867022449e-07,1.603186531021452669e-05
2.024603174603174516e+00,3.024911218761093696e-06,2.689502974263299417e-05
2.025396825396825307e+00,5.891043042900826394e-06,3.174143349610613094e-05
2.026190476190476097e+00,7.769594019169508782e-06,2.873948351454834964e-05
2.026984126984126888e+00,8.671568694942088950e-06,1.781533768353610656e-05
2.027777777777777679e+00,8.781030640150862127e-06,7.500629401103514046e-07
2.028571428571428470e+00,8.364364135299083881e-06,-1.921618304758629159e-05
2.029365079365079261e+00,7.683722077387082359e-06,-3.815911670028117797e-05
2.030158730158730052e+00,6.932550553926355052e-06,-5.240484432416819317e-05
2.030952380952380842e+00,6.203914899581024746e-06,-5.937116461213567432e-05
2.031746031746031633e+00,5.495453496526058303e-06,-5.810362083358928606e-05
2.032539682539682424e+00,4.746046376655686988e-06,-4.938523699797596120e-05
2.033333333333333215e+00,3.890264514431021681e-06,-3.541235138578037580e-05
2.034126984126984006e+00,2.911155137635821012e-06,-1.914253010767012265e-05
2.034920634920634797e+00,1.872366893314115322e-06,-3.510354117183550123e-06
2.035714285714285587e+00,9.169875839492219945e-07,9.256102153709003702e-06
2.036507936507936378e+00,2.311379764399461406e-07,1.802375076091925968e-05
2.037301587301587169e+00,-1.730834453883267959e-08,2.276433530324209530e-05
2.038095238095237960e+00,2.555860081221589848e-07,2.424523012047750928e-05
2.038888888888888751e+00,1.003605035193833922e-06,2.357196857191285781e-05
2.039682539682539542e+00,2.041848637629828939e-06,2.177866613806080272e-05
2.040476190476190332e+00,3.081268188455845869e-06,1.959573344083377056e-05
2.041269841269841123e+00,3.796896110999013623e-06,1.741216834623610289e-05
2.042063492063491914e+00,3.909333288980397057e-06,1.535890269753470010e-05
2.042857142857142705e+00,3.255487797469564248e-06,1.341328972065516807e-05
2.043650793650793496e+00,1.829260893102095760e-06,1.146123080927297914e-05
2.044444444444444287e+00,-2.167961064948202814e-07,9.315211114191576468e-06
2.045238095238095077e+00,-2.606410281402458881e-06,6.729331090383968515e-06
2.046031746031745868e+00,-5.000000117344927790e-06,3.454078230836835208e-06
2.046825396825396659e+00,-7.065274447406493746e-06,-6.576034975844059800e-07
2.047619047619047450e+00,-8.542513548091695095e-06,-5.521841612228354129e-06
2.048412698412698241e+00,-9.291351606953911237e-06,-1.073104587791963015e-05
2.049206349206349032e+00,-9.309821582353775105e-06,-1.555903060442394769e-05
2.049999999999999822e+00,-8.721944448822657630e-06,-1.909744932646785176e-05
2.050793650793650613e+00,-7.737068525877876030e-06,-2.050108658134987334e-05
2.051587301587301404e+00,-6.591398954358203800e-06,-1.926232752722951608e-05
2.052380952380952195e+00,-5.487697849941125732e-06,-1.541005339252935025e-05
2.053174603174602986e+00,-4.550581899167420914e-06,-9.552815168799167335e-06
2.053968253968253777e+00,-3.810484804053648653e-06,-2.747530274506219792e-06
2.054761904761904567e+00,-3.219550071573730878e-06,3.760439613887003209e-06
2.055555555555555358e+00,-2.690728239226618978e-06,8.841865929649703459e-06
2.056349206349206149e+00,-2.142613526291372742e-06,1.174695088960812940e-05
2.057142857142856940e+00,-1.531897691710636384e-06,1.226647488082467015e-05
2.057936507936507731e+00,-8.631973461851612514e-07,1.076506139561287693e-05
2.058730158730158522e+00,-1.774576608350888404e-07,8.091856490535442466e-06
2.059523809523809312e+00,4.714186505801627716e-07,5.394913596478835759e-06
2.060317460317460103e+00,1.039953834136890930e-06,3.877419669698003024e-06
2.061111111111110894e+00,1.510095170016893442e-06,4.539115841484319521e-06
2.061904761904761685e+00,1.893282660832089947e-06,7.946196162336862135e-06
2.062698412698412920e+00,2.225961969664204648e-06,1.406849721686485889e-05
2.063492063492063711e+00,2.560634998066867532e-06,2.221496999194041156e-05
2.064285714285714501e+00,2.955227131738397950e-06,3.108790260910210024e-05
2.065079365079365292e+00,3.461442854186539771e-06,3.896280231438879873e-05
2.065873015873016083e+00,4.111986633009203733e-06,4.398253704076916180e-05
2.066666666666666874e+00,4.907654407853093396e-06,4.452965889639861019e-05
2.067460317460317665e+00,5.807560243755458501e-06,3.961228154507767679e-05
2.068253968253968456e+00,6.727290698565493470e-06,2.917525192709775501e-05
2.069047619047619246e+00,7.548624896300200889e-06,1.424228274210512470e-05
2.069841269841270037e+00,8.140382155608414218e-06,-3.182029167002138561e-06
2.070634920634920828e+00,8.384942554376812731e-06,-2.046506321084558632e-05
2.071428571428571619e+00,8.201836860191373820e-06,-3.489225516438958100e-05
2.072222222222222410e+00,7.560657663913730584e-06,-4.427646377822061486e-05
2.073015873015873201e+00,6.480705003546804759e-06,-4.746835499403777368e-05
2.073809523809523991e+00,5.021714337356978166e-06,-4.462280093401238459e-05
2.074603174603174782e+00,3.274266251436408113e-06,-3.714109835075049933e-05
2.075396825396825573e+00,1.356885268552310807e-06,-2.730253746995775475e-05
2.076190476190476364e+00,-5.801225212325871167e-07,-1.768749835209837315e-05
2.076984126984127155e+00,-2.352489980630978557e-06,-1.054567704071865773e-05
2.077777777777777946e+00,-3.753809330656590003e-06,-7.266770366401158937e-06
2.078571428571428736e+00,-4.588202252147198743e-06,-8.076221878041522212e-06
2.079365079365079527e+00,-4.717610732100608791e-06,-1.201993125096779990e-05
2.080158730158730318e+00,-4.106393161325628527e-06,-1.723393664049717637e-05
2.080952380952381109e+00,-2.845205963728669005e-06,-2.143398751255161635e-05
2.081746031746031900e+00,-1.144806819278920426e-06,-2.251668575569300003e-05
2.082539682539682691e+00,6.986835410848076790e-07,-1.913913909517256888e-05
2.083333333333333481e+00,2.357586459768085449e-06,-1.113616864090743990e-05
2.084126984126984272e+00,3.532480582821516640e-06,3.495509949135869291e-07
2.084920634920635063e+00,4.005478108603576848e-06,1.309526999312871227e-05
2.085714285714285854e+00,3.677529924185701457e-06,2.436044296577935972e-05
2.086507936507936645e+00,2.583631282753496687e-06,3.164624969031273215e-05
2.087301587301587436e+00,8.825362303970818950e-07,3.342665445788574059e-05
2.088095238095238226e+00,-1.178248582657601067e-06,2.961090207628540015e-05
2.088888888888889017e+00,-3.314817125146194690e-06,2.157606275586290261e-05
2.089682539682539808e+00,-5.263288133972330415e-06,1.175082178767192302e-05
2.090476190476190599e+00,-6.826033195540017155e-06,2.878581893408080274e-06
2.091269841269841390e+00,-7.897752658872434628e-06,-2.812891754721249131e-06
2.092063492063492181e+00,-8.467797007375827987e-06,-4.281978522120038602e-06
2.092857142857142971e+00,-8.600569495254277875e-06,-1.980233238177911843e-06
2.093650793650793762e+00,-8.400240126598036315e-06,2.299678775773259726e-06
2.094444444444444553e+00,-7.970509187275985082e-06,5.998428173937705763e-06
2.095238095238095344e+00,-7.383215207282940018e-06,6.628437872228851452e-06
2.096031746031746135e+00,-6.666663600007138944e-06,2.633475140095096277e-06
2.096825396825396925e+00,-5.814617063656763880e-06,-5.996012027988300642e-06
2.097619047619047716e+00,-4.806783055998193095e-06,-1.755988866718411349e-05
2.098412698412698507e+00,-3.629659605109426553e-06,-2.901658463083041552e-05
2.099206349206349298e+00,-2.292660145651442280e-06,-3.680096011588391186e-05
2.100000000000000089e+00,-8.405615781343038608e-07,-3.786828113746707017e-05
2.100793650793650880e+00,6.366367218309376062e-07,-3.065548110101794840e-05
2.101587301587301670e+00,1.999971232094573085e-06,-1.564931284933290486e-05
2.102380952380952461e+00,3.071089902087747235e-06,4.645792494096984147e-06
2.103174603174603252e+00,3.661048879121490928e-06,2.634773091416627540e-05
2.103968253968254043e+00,3.617551754978494156e-06,4.522480495066583459e-05
2.104761904761904834e+00,2.880266655484576152e-06,5.774979977433193103e-05
2.105555555555555625e+00,1.525875405888344131e-06,6.184309349318193000e-05
2.106349206349206415e+00,-2.169988648844956853e-07,5.714106803599071447e-05
2.107142857142857206e+00,-1.995559558574069428e-06,4.483511773806768148e-05
2.107936507936507997e+00,-3.401898388271715535e-06,2.725368755980750777e-05
2.108730158730158788e+00,-4.066929316339747472e-06,7.363860478580583399e-06
2.109523809523809579e+00,-3.753173635684934228e-06,-1.170638905238193557e-05
2.110317460317460370e+00,-2.420047271636373493e-06,-2.710204767554761794e-05
2.111111111111111160e+00,-2.432206700403418221e-07,-3.663468347061623898e-05
2.111904761904761951e+00,2.418450173881184680e-06,-3.911216934900327990e-05
2.112698412698412742e+00,5.102111044820411198e-06,-3.453796209388178750e-05
2.113492063492063533e+00,7.347360682193408586e-06,-2.410436517063448575e-05
2.114285714285714324e+00,8.801740931163759714e-06,-9.951478835209484714e-06
2.115079365079365115e+00,9.296225496870339254e-06,5.256650952877300779e-06
2.115873015873015905e+00,8.871606497963251017e-06,1.882484681112819530e-05
2.116666666666666696e+00,7.752539795916130863e-06,2.846563599410974896e-05
2.117460317460317487e+00,6.280287626377135108e-06,3.260452503813214699e-05
2.118253968253968278e+00,4.823935866090592683e-06,3.053695434110017805e-05
2.119047619047619069e+00,3.692822247787007058e-06,2.246858628123915214e-05
2.119841269841269860e+00,3.070560654709865786e-06,9.474464713088029475e-06
2.120634920634920650e+00,2.984203649274626878e-06,-6.618222971058768850e-06
2.121428571428571441e+00,3.312759381865381167e-06,-2.344964885687547812e-05
2.122222222222222232e+00,3.829779269256641905e-06,-3.846991968844471789e-05
2.123015873015873023e+00,4.266823275829984082e-06,-4.937761627775181053e-05
2.123809523809523814e+00,4.380179756864474043e-06,-5.456393878646648496e-05
2.124603174603174605e+00,4.004187707448628576e-06,-5.343601557429253514e-05
2.125396825396825395e+00,3.080804302469632276e-06,-4.651309712454327125e-05
2.126190476190476186e+00,1.663534390993304801e-06,-3.526185302060022081e-05
2.126984126984126977e+00,-9.956271329704167704e-08,-2.172554316509140202e-05
2.127777777777777768e+00,-1.996353865148586411e-06,-8.062236354528124220e-06
2.128571428571428559e+00,-3.787730886903913097e-06,3.882371808531862678e-06
2.129365079365079350e+00,-5.246365937442133271e-06,1.287304282903830163e-05
2.130158730158730140e+00,-6.193392368776094064e-06,1.840908183625513504e-05
2.130952380952380931e+00,-6.528932389322323925e-06,2.067811134872703669e-05
2.131746031746031722e+00,-6.251291911026422093e-06,2.037989336308624157e-05
2.132539682539682513e+00,-5.459516942715029465e-06,1.848099973848037130e-05
2.133333333333333304e+00,-4.336105741463990510e-06,1.596497926606593685e-05
2.134126984126984095e+00,-3.111066739505846700e-06,1.363201634360169640e-05
2.134920634920634885e+00,-2.014042341013372820e-06,1.198093334267275164e-05
2.135714285714285676e+00,-1.225846732104180909e-06,1.118093434551878771e-05
2.136507936507936467e+00,-8.423163442424404838e-07,1.111822230659091384e-05
2.137301587301587258e+00,-8.604342134362359098e-07,1.148942626167344787e-05
2.138095238095238049e+00,-1.189647777161496147e-06,1.191119634951098933e-05
2.138888888888888840e+00,-1.682979168589956594e-06,1.202069886420334981e-05
2.139682539682539630e+00,-2.177017207921982156e-06,1.155066734703261970e-05
2.140476190476190421e+00,-2.529559398424052421e-06,1.037158754210144899e-05
2.141269841269841212e+00,-2.647328130067228815e-06,8.501029981725903662e-06
2.142063492063492003e+00,-2.500505092377871429e-06,6.086046066383969216e-06
2.142857142857142794e+00,-2.123529710536509468e-06,3.368552305266819953e-06
2.143650793650793585e+00,-1.602801025367860842e-06,6.444157579325237809e-07
2.144444444444444375e+00,-1.053049274092579996e-06,-1.776099222037452368e-06
2.145238095238095166e+00,-5.863476279679264401e-07,-3.603979558413264722e-06
2.146031746031745957e+00,-2.808470658515618978e-07,-4.604555059352755827e-06
2.146825396825396748e+00,-1.586937481952824043e-07,-4.629528714418673216e-06
2.147619047619047539e+00,-1.819762817692609509e-07,-3.645642163421449751e-06
2.148412698412698330e+00,-2.705489390152690526e-07,-1.752540726881015573e-06
2.149206349206349120e+00,-3.370172501148979677e-07,8.196857398708045081e-07
2.149999999999999911e+00,-3.257482225322656814e-07,3.738733532487377221e-06
2.150793650793650702e+00,-2.394867254051911415e-07,6.620375594020682373e-06
2.151587301587301493e+00,-1.416141555327524562e-07,9.088022325252881312e-06
2.152380952380952284e+00,-1.320487994496540365e-07,1.082523132304208181e-05
2.153174603174603075e+00,-3.051302950894774285e-07,1.160851117402482398e-05
2.153968253968253865e+00,-7.045424704437295328e-07,1.131615120800082692e-05
2.154761904761904656e+00,-1.291964514073883189e-06,9.918226207337574028e-06
2.155555555555555447e+00,-1.942316695952466228e-06,7.460354366055076225e-06
2.156349206349206238e+00,-2.469532728926720068e-06,4.056318797482643528e-06
2.157142857142857029e+00,-2.675656909842762554e-06,-1.004621260240422331e-07
2.157936507936507819e+00,-2.407869078482384964e-06,-4.709442949883741674e-06
2.158730158730158610e+00,-1.606282324270685281e-06,-9.337818902960997783e-06
2.159523809523809401e+00,-3.293940184887071241e-07,-1.342605298663916472e-05
2.160317460317460192e+00,1.249060894741559825e-06,-1.634934923094377720e-05
2.161111111111110983e+00,2.870846730230162997e-06,-1.754247987481883587e-05
2.161904761904761774e+00,4.244193310340052003e-06,-1.666783984282414210e-05
2.162698412698412564e+00,5.103059430426274314e-06,-1.377977667746017582e-05
2.163492063492063355e+00,5.260932063201442063e-06,-9.422810722588812783e-06
2.164285714285714146e+00,4.647232741618634987e-06,-4.604711606528015881e-06
2.165079365079364937e+00,3.319806916031091253e-06,-6.116234921012807700e-07
2.165873015873015728e+00,1.453775707356077222e-06,1.318009498087565485e-06
2.166666666666666519e+00,-6.881086049554854615e-07,3.800030620121451866e-07
2.167460317460317309e+00,-2.796951539861978988e-06,-3.482108087547688419e-06
2.168253968253968100e+00,-4.564369639930630396e-06,-9.475417940102812237e-06
2.169047619047618891e+00,-5.727159472151188112e-06,-1.614114708857475935e-05
2.169841269841269682e+00,-6.103178970928775032e-06,-2.177911075422893461e-05
2.170634920634920473e+00,-5.614748530826038676e-06,-2.495830801905912200e-05
2.171428571428571264e+00,-4.299979682676055223e-06,-2.491902106983782641e-05
2.172222222222222054e+00,-2.313413464515452457e-06,-2.172630610559296568e-05
2.173015873015872845e+00,8.557353061223551840e-08,-1.614851675225034000e-05
2.173809523809523636e+00,2.560813289145335963e-06,-9.342132994974768829e-06
2.174603174603174427e+00,4.746123891337984487e-06,-2.477661123013917721e-06
2.175396825396825218e+00,6.306642696506115504e-06,3.566391689614018935e-06
2.176190476190476009e+00,7.003412513521800790e-06,8.362157122961486004e-06
2.176984126984126799e+00,6.745854226577257025e-06,1.192517388715240538e-05
2.177777777777777590e+00,5.617334368873979326e-06,1.457591980572992240e-05
2.178571428571428381e+00,3.864323632475417322e-06,1.673689566744572511e-05
2.179365079365079172e+00,1.848663498597735820e-06,1.873820032453403259e-05
2.180158730158729963e+00,-2.714823539752272135e-08,2.068815204355190822e-05
2.180952380952380754e+00,-1.403345832212373604e-06,2.243581613458380122e-05
2.181746031746031544e+00,-2.033473661768365771e-06,2.362047761004794052e-05
2.182539682539682335e+00,-1.824472676307059023e-06,2.377966248975802601e-05
2.183333333333333126e+00,-8.383573037798737246e-07,2.247908355659823112e-05
2.184126984126983917e+00,7.406326238626471734e-07,1.943427983437340337e-05
2.184920634920634708e+00,2.660259088447214762e-06,1.460615212787823055e-05
2.185714285714285499e+00,4.658635479902197043e-06,8.259924205701015402e-06
2.186507936507936289e+00,6.510788442055917505e-06,9.748820849033411509e-07
2.187301587301587080e+00,8.053328531054588615e-06,-6.411483674726236952e-06
2.188095238095238315e+00,9.185370605944739216e-06,-1.293258909081770579e-05
2.188888888888889106e+00,9.851777356808905323e-06,-1.767664821719696161e-05
2.189682539682539897e+00,1.002004454380621708e-05,-1.997619346391219091e-05
2.190476190476190688e+00,9.663283381803829231e-06,-1.954237812665776929e-05
2.191269841269841478e+00,8.758141655815287067e-06,-1.650539195739280044e-05
2.192063492063492269e+00,7.298938898651592776e-06,-1.136696632789757382e-05
2.192857142857143060e+00,5.320981947412355346e-06,-4.904680730685142932e-06
2.193650793650793851e+00,2.921359888875417729e-06,1.934186485450452166e-06
2.194444444444444642e+00,2.669620767053626796e-07,8.139910790722466749e-06
2.195238095238095433e+00,-2.414290522769394373e-06,1.276155179982534900e-05
2.196031746031746223e+00,-4.856169829606702505e-06,1.504908734563805783e-05
2.196825396825397014e+00,-6.784637060812800520e-06,1.459737402592016609e-05
2.197619047619047805e+00,-7.950916783831001974e-06,1.145329926212554825e-05
2.198412698412698596e+00,-8.164745880761114513e-06,6.151147176900620797e-06
2.199206349206349387e+00,-7.326960105958215255e-06,-3.390886319624787846e-07
2.200000000000000178e+00,-5.459800188602235403e-06,-6.747376605562400786e-06
2.200793650793650968e+00,-2.730837419076741259e-06,-1.170976043505904904e-05
2.201587301587301759e+00,5.365335953991341722e-07,-1.402211194143594751e-05
2.202380952380952550e+00,3.875175289439629806e-06,-1.290487357771115284e-05
2.203174603174603341e+00,6.717449011420586019e-06,-8.227018016374050056e-06
2.203968253968254132e+00,8.472935868205756056e-06,-6.286851269383750231e-07
2.204761904761904923e+00,8.633360227032405826e-06,8.513948707130978078e-06
2.205555555555555713e+00,6.884559012804792351e-06,1.731439373270715425e-05
2.206349206349206504e+00,3.196508045897598355e-06,2.377695700642160604e-05
2.207142857142857295e+00,-2.136548077040856227e-06,2.629278859852936129e-05
2.207936507936508086e+00,-8.522013113639471255e-06,2.409212763976892815e-05
2.208730158730158877e+00,-1.515916339968924803e-05,1.749478849807515742e-05
2.209523809523809668e+00,-2.117459842598322335e-05,7.845859957673137966e-06
2.210317460317460458e+00,-2.577202404753206586e-05,-2.867435673536745700e-06
2.211111111111111249e+00,-2.836201267892816274e-05,-1.259050451325562835e-05
2.211904761904762040e+00,-2.864342755805224613e-05,-1.975709719619870176e-05
2.212698412698412831e+00,-2.662233383430905666e-05,-2.362897983727792577e-05
2.213492063492063622e+00,-2.257200978315179727e-05,-2.432422027283799747e-05
2.214285714285714413e+00,-1.695326138617074264e-05,-2.257176419658061034e-05
2.215079365079365203e+00,-1.032256100844072741e-05,-1.932948509807886058e-05
2.215873015873015994e+00,-3.253972845005825215e-06,-1.542969347655039894e-05
2.216666666666666785e+00,3.709468899504085995e-06,-1.137094265509037512e-05
2.217460317460317576e+00,1.007359650266401518e-05,-7.291020425111741462e-06
2.218253968253968367e+00,1.539148499414760092e-05,-3.077888740817500743e-06
2.219047619047619158e+00,1.926075372012892449e-05,1.462651115951084386e-06
2.219841269841269948e+00,2.133772380205629763e-05,6.454566257866859336e-06
2.220634920634920739e+00,2.137769709675730755e-05,1.185211868014623049e-05
2.221428571428571530e+00,1.929571954219677817e-05,1.740099913298555053e-05
2.222222222222222321e+00,1.522739323209938249e-05,2.265376836767252550e-05
2.223015873015873112e+00,9.562883218231338527e-06,2.702774739020237033e-05
2.223809523809523903e+00,2.933609092969543674e-06,2.988785549352379668e-05
2.224603174603174693e+00,-3.852968465775900451e-06,3.063345916879877068e-05
2.225396825396825484e+00,-9.918088923923562068e-06,2.877466629751261249e-05
2.226190476190476275e+00,-1.443344026592738377e-05,2.399957806526212969e-05
2.226984126984127066e+00,-1.673688429891607228e-05,1.624676769699670171e-05
2.227777777777777857e+00,-1.642577357470906694e-05,5.790012364151233500e-06
2.228571428571428648e+00,-1.341987874186172633e-05,-6.687639072348534150e-06
2.229365079365079438e+00,-7.991065657569466037e-06,-2.008407964876456962e-05
2.230158730158730229e+00,-7.570368694477133784e-07,-3.298340012175512471e-05
2.230952380952381020e+00,7.366061261668909177e-06,-4.387779911548797453e-05
2.231746031746031811e+00,1.525856189596498341e-05,-5.144345809652597879e-05
2.232539682539682602e+00,2.174222174013159636e-05,-5.477880025497501457e-05
2.233333333333333393e+00,2.576619803343744748e-05,-5.353959950866495743e-05
2.234126984126984183e+00,2.660708336786443194e-05,-4.795874839373097685e-05
2.234920634920634974e+00,2.403836372621707932e-05,-3.877732654308723928e-05
2.235714285714285765e+00,1.841806733548678442e-05,-2.711974997098803465e-05
2.236507936507936556e+00,1.065581063052901477e-05,-1.433216629691458245e-05
2.237301587301587347e+00,2.051133751643981228e-06,-1.794937110371253379e-06
2.238095238095238138e+00,-5.966144282107279107e-06,9.270985245492008821e-06
2.238888888888888928e+00,-1.213109755848045702e-05,1.796852570142997335e-05
2.239682539682539719e+00,-1.560065339052379087e-05,2.382199348722668098e-05
2.240476190476190510e+00,-1.611120418102451719e-05,2.678690261135606679e-05
2.241269841269841301e+00,-1.400409941096672428e-05,2.717780247445359074e-05
2.242063492063492092e+00,-1.011842033105661116e-05,2.554185316930017327e-05
2.242857142857142883e+00,-5.579049172683072290e-06,2.251734605936571480e-05
2.243650793650793673e+00,-1.530465136422901267e-06,1.871587505695898441e-05
2.244444444444444464e+00,1.120341554596205591e-06,1.465315166425867343e-05
2.245238095238095255e+00,1.890943172104728089e-06,1.072982990727421455e-05
2.246031746031746046e+00,8.007834583400536041e-07,7.242241779517549756e-06
2.246825396825396837e+00,-1.667740481274069079e-06,4.396495659300225525e-06
2.247619047619047628e+00,-4.699924474206007033e-06,2.309391035247364594e-06
2.248412698412698418e+00,-7.330446257348458899e-06,9.960669687001791506e-07
2.249206349206349209e+00,-8.636225781879114139e-06,3.566809014362219423e-07
2.250000000000000000e+00,-7.910985669173278953e-06,1.784779451610903976e-07
2.250793650793650791e+00,-4.802355921631945498e-06,1.660342454524217426e-07
2.251587301587301582e+00,6.023100273884551232e-07,3.858605018414014683e-09
2.252380952380952372e+00,7.753747018579242706e-06,-5.549659913689552318e-07
2.253174603174603163e+00,1.569266689321495556e-05,-1.590600720431637753e-06
2.253968253968253954e+00,2.317957531502286172e-05,-2.934483697325057013e-06
2.254761904761904745e+00,2.889283917850522316e-05,-4.136393450781684850e-06
2.255555555555555536e+00,3.166696693027946783e-05,-4.512917791691280821e-06
2.256349206349206327e+00,3.072642838223415559e-05,-3.294112941404503736e-06
2.257142857142857117e+00,2.586279749409750066e-05,1.476998588799770167e-07
2.257936507936507908e+00,1.750880287447437829e-05,6.043395932501783679e-06
2.258730158730158699e+00,6.682783594818719373e-06,1.403199977403075820e-05
2.259523809523809490e+00,-5.191197730879618703e-06,2.310986662760713858e-05
2.260317460317460281e+00,-1.654677102193922013e-05,3.177338891481426884e-05
2.261111111111111072e+00,-2.595661139545272529e-05,3.834412773605908650e-05
2.261904761904761862e+00,-3.236487984224687396e-05,4.139892940201696171e-05
2.262698412698412653e+00,-3.522610974815415909e-05,4.017584992015359820e-05
2.263492063492063444e+00,-3.453854401272966017e-05,3.481175652574740483e-05
2.264285714285714235e+00,-3.078716541792563590e-05,2.630907602065860800e-05
2.265079365079365026e+00,-2.482417678557592250e-05,1.622480650814651422e-05
2.265873015873015817e+00,-1.771324950408637882e-05,6.186405836426619330e-06
2.266666666666666607e+00,-1.055753517156385621e-05,-2.587817249577086320e-06
2.267460317460317398e+00,-4.330019147133498474e-06,-9.586756462664568592e-06
2.268253968253968189e+00,2.703168361930221974e-07,-1.501937892901263333e-05
2.269047619047618980e+00,2.909849190799749027e-06,-1.955426391183138674e-05
2.269841269841269771e+00,3.639433350928940505e-06,-2.390700455211930837e-05
2.270634920634920562e+00,2.838850602140904566e-06,-2.845189628556185415e-05
2.271428571428571352e+00,1.103919798807048502e-06,-3.301240304623332571e-05
2.272222222222222143e+00,-8.934285168089145493e-07,-3.690245521156200101e-05
2.273015873015872934e+00,-2.539812214864561726e-06,-3.918992404274230704e-05
2.273809523809523725e+00,-3.384190957879605442e-06,-3.907382108921769162e-05
2.274603174603174516e+00,-3.195659419142066933e-06,-3.623067988992221096e-05
2.275396825396825307e+00,-1.970855636956061393e-06,-3.100145523793189519e-05
2.276190476190476097e+00,1.035092900696896196e-07,-2.435072628854109748e-05
2.276984126984126888e+00,2.719186954050187179e-06,-1.761086949891392856e-05
2.277777777777777679e+00,5.526896541168733646e-06,-1.209479615874850825e-05
2.278571428571428470e+00,8.208678791427104191e-06,-8.699195633348160410e-06
2.279365079365079261e+00,1.052571366379455416e-05,-7.617226334795121387e-06
2.280158730158730052e+00,1.233363425671614150e-05,-8.241641932604850201e-06
2.280952380952380842e+00,1.356864976669577011e-05,-9.285454313562930523e-06
2.281746031746031633e+00,1.421752593156368346e-05,-9.097574771110634366e-06
2.282539682539682424e+00,1.428818744447800741e-05,-6.113517735198625477e-06
2.283333333333333215e+00,1.379430666353194382e-05,6.479305552291022495e-07
2.284126984126984006e+00,1.275907931160021641e-05,1.115685442410613970e-05
2.284920634920634797e+00,1.123398940437244254e-05,2.414536192317387822e-05
2.285714285714285587e+00,9.321211445753067049e-06,3.720568547712378027e-05
2.286507936507936378e+00,7.186267968953577808e-06,4.727810810932276721e-05
2.287301587301587169e+00,5.051356140118821958e-06,5.147195792884884239e-05
2.288095238095237960e+00,3.167082766835291042e-06,4.800904429728518059e-05
2.288888888888888751e+00,1.767874329071861634e-06,3.696764405974440026e-05
2.289682539682539542e+00,1.021918882566783629e-06,2.051366769637362234e-05
2.290476190476190332e+00,9.890322040023912904e-07,2.457891735201404942e-06
2.291269841269841123e+00,1.598613493925318867e-06,-1.277678297589673682e-05
2.292063492063491914e+00,2.655199857152194261e-06,-2.145783564966640552e-05
2.292857142857142705e+00,3.872480809606169740e-06,-2.167347848167950028e-05
2.293650793650793496e+00,4.929416453816986196e-06,-1.390271839812737166e-05
2.294444444444444287e+00,5.535437078029233234e-06,-8.457796189172702803e-07
2.295238095238095077e+00,5.487510824494757727e-06,1.339719886806233649e-05
2.296031746031745868e+00,4.703026975995734484e-06,2.450090549405524110e-05
2.296825396825396659e+00,3.220215199433291096e-06,2.906257645172473369e-05
2.297619047619047450e+00,1.169436248573046552e-06,2.539619823413767440e-05
2.298412698412698241e+00,-1.270996288905949668e-06,1.379818438207001212e-05
2.299206349206349032e+00,-3.916005907381252713e-06,-3.706170188651044816e-06
2.299999999999999822e+00,-6.596630921520180206e-06,-2.397988091787793850e-05
2.300793650793650613e+00,-9.159899298176772342e-06,-4.353719130134227350e-05
2.301587301587301404e+00,-1.145387862100897176e-05,-5.925269625595182689e-05
2.302380952380952195e+00,-1.331343890968328442e-05,-6.887987465650163377e-05
2.303174603174602986e+00,-1.456047591624225826e-05,-7.131691913413583275e-05
2.303968253968253777e+00,-1.502432758812621723e-05,-6.662607973972767424e-05
2.304761904761904567e+00,-1.457894721076807616e-05,-5.585964031401634261e-05
2.305555555555555358e+00,-1.318603748254354005e-05,-4.076396724820872193e-05
2.306349206349206149e+00,-1.092925011821264531e-05,-2.343175559858498545e-05
2.307142857142856940e+00,-8.025221262810069373e-06,-5.964002508846226764e-06
2.307936507936507731e+00,-4.803019274958880092e-06,9.810757528962546468e-06
2.308730158730158522e+00,-1.652428419838322606e-06,2.253361632192010387e-05
2.309523809523809312e+00,1.049733034807761811e-06,3.142503349799163724e-05
2.310317460317460103e+00,3.019260916240737920e-06,3.631714181172114364e-05
2.311111111111110894e+00,4.130138878911450925e-06,3.761962457025165070e-05
2.311904761904761685e+00,4.446060350485784448e-06,3.622244813347833036e-05
2.312698412698412920e+00,4.204248516573554530e-06,3.333085399082995744e-05
2.313492063492063711e+00,3.751094310654116401e-06,3.023043205992957864e-05
2.314285714285714501e+00,3.445346368296547007e-06,2.800029753454325048e-05
2.315079365079365292e+00,3.556541251948779803e-06,2.722695056352457415e-05
2.315873015873016083e+00,4.188393821541434395e-06,2.780335614314099064e-05
2.316666666666666874e+00,5.248938741979341693e-06,2.890436662788971911e-05
2.317460317460317665e+00,6.475433233117254385e-06,2.919427705233780640e-05
2.318253968253968456e+00,7.506935835608959665e-06,2.724526658870311631e-05
2.319047619047619246e+00,7.984682025895405611e-06,2.205184763726905943e-05
2.319841269841270037e+00,7.652824846991632002e-06,1.346304057654670335e-05
2.320634920634920828e+00,6.431751194289345364e-06,2.363064233319369155e-06
2.321428571428571619e+00,4.443467258926909342e-06,-9.482618692456905771e-06
2.322222222222222410e+00,1.982102993143920849e-06,-1.987461926462924706e-05
2.323015873015873201e+00,-5.610680282411130909e-07,-2.677204687180241289e-05
2.323809523809523991e+00,-2.794908625432369205e-06,-2.883580352183540369e-05
2.324603174603174782e+00,-4.419078163209468974e-06,-2.575738444217646510e-05
2.325396825396825573e+00,-5.283925671612996878e-06,-1.829262726060083878e-05
2.326190476190476364e+00,-5.407899885532149969e-06,-8.021212902327217261e-06
2.326984126984127155e+00,-4.954514238023383973e-06,3.068601852005531638e-06
2.327777777777777946e+00,-4.180697932284201752e-06,1.303757820566289131e-05
2.328571428571428736e+00,-3.372496869299915177e-06,2.037680005291628388e-05
2.329365079365079527e+00,-2.783625956723709655e-06,2.423862999079872925e-05
2.330158730158730318e+00,-2.589129018032654743e-06,2.449640458158640027e-05
2.330952380952381109e+00,-2.861649062595800160e-06,2.165503029952640566e-05
2.331746031746031900e+00,-3.572459791862004293e-06,1.665838975127254833e-05
2.332539682539682691e+00,-4.614357776416328089e-06,1.064641861176002329e-05
2.333333333333333481e+00,-5.839034999436898671e-06,4.713662158885648779e-06
2.334126984126984272e+00,-7.097629500460123856e-06,-2.833123217877590796e-07
2.334920634920635063e+00,-8.271330489285973428e-06,-3.833082687315143871e-06
2.335714285714285854e+00,-9.281921408514760306e-06,-5.776274411431154700e-06
2.336507936507936645e+00,-1.008035333965999401e-05,-6.228802326074953678e-06
2.337301587301587436e+00,-1.062105469157198770e-05,-5.468462671232575806e-06
2.338095238095238226e+00,-1.083568088920452785e-05,-3.842177819577387143e-06
2.338888888888889017e+00,-1.062020222209349316e-05,-1.726726135601853080e-06
2.339682539682539808e+00,-9.844771925239174018e-06,4.729184637651652660e-07
2.340476190476190599e+00,-8.388753688594260293e-06,2.338278347674888784e-06
2.341269841269841390e+00,-6.194834550152913732e-06,3.503473420424021023e-06
2.342063492063492181e+00,-3.327248657302107738e-06,3.759866950655380690e-06
2.342857142857142971e+00,-1.195796908985003432e-08,3.139219610607030115e-06
2.343650793650793762e+00,3.364863848441999055e-06,1.910218854847434798e-06
2.344444444444444553e+00,6.315317637457104551e-06,4.652288118585143389e-07
2.345238095238095344e+00,8.361400119342770739e-06,-8.626362663524328944e-07
2.346031746031746135e+00,9.171815812962565042e-06,-1.965906101081482131e-06
2.346825396825396925e+00,8.678273842565730097e-06,-3.026487627202943865e-06
2.347619047619047716e+00,7.124997639872866586e-06,-4.439112254436354284e-06
2.348412698412698507e+00,5.024893047633280617e-06,-6.627729379228892059e-06
2.349206349206349298e+00,3.028598683034360409e-06,-9.842765616309706391e-06
2.350000000000000089e+00,1.744906838463878272e-06,-1.403673317166320811e-05
2.350793650793650880e+00,1.569626745280287760e-06,-1.887473246890085970e-05
2.351587301587301670e+00,2.577442049988419314e-06,-2.386319248810403040e-05
2.352380952380952461e+00,4.508781515306919743e-06,-2.851079610013098738e-05
2.353174603174603252e+00,6.850582740277776584e-06,-3.241527380869490177e-05
2.353968253968254043e+00,8.980025146269266637e-06,-3.522690565859462538e-05
2.354761904761904834e+00,1.032581078323800962e-05,-3.654687491307798613e-05
2.355555555555555625e+00,1.050555288573169070e-05,-3.589263200129071227e-05
2.356349206349206415e+00,9.412471981586860838e-06,-3.282918056928537472e-05
2.357142857142857206e+00,7.238421152230270656e-06,-2.723503327157988745e-05
2.357936507936507997e+00,4.429553747847445395e-06,-1.954143312392579154e-05
2.358730158730158788e+00,1.581212868633399681e-06,-1.076009843847368809e-05
2.359523809523809579e+00,-7.061570188891181505e-07,-2.227292152515646718e-06
2.360317460317460370e+00,-1.973739599003831995e-06,4.835349917457286638e-06
2.361111111111111160e+00,-2.013813199611419102e-06,9.733243468428624893e-06
2.361904761904761951e+00,-9.134682715329752736e-07,1.249889147026339386e-05
2.362698412698412742e+00,9.754894763835981008e-07,1.381725527006676948e-05
2.363492063492063533e+00,3.128673451716235967e-06,1.474064994009342969e-05
2.364285714285714324e+00,4.977975126042321371e-06,1.631904271387318698e-05
2.365079365079365115e+00,6.045858300277426937e-06,1.926637573237569167e-05
2.365873015873015905e+00,6.055171363805040069e-06,2.374411798796330044e-05
2.366666666666666696e+00,4.992163993838630772e-06,2.929794696816098837e-05
2.367460317460317487e+00,3.111424284262041474e-06,3.494537847211020393e-05
2.368253968253968278e+00,8.826995646013433543e-07,3.938497815503990405e-05
2.369047619047619069e+00,-1.110577644548396883e-06,4.128100014225613416e-05
2.369841269841269860e+00,-2.302848443796137140e-06,3.956853281496652272e-05
2.370634920634920650e+00,-2.283055810670094334e-06,3.372053302132504418e-05
2.371428571428571441e+00,-9.072070306007251447e-07,2.391900578005562236e-05
2.372222222222222232e+00,1.641790192102626189e-06,1.108318747527321092e-05
2.373015873015873023e+00,4.868495526871993449e-06,-3.265411524983907104e-06
2.373809523809523814e+00,8.059674488240516581e-06,-1.727999886976385406e-05
2.374603174603174605e+00,1.044360249304789536e-05,-2.914500842597314516e-05
2.375396825396825395e+00,1.137632760172999872e-05,-3.742492270819802822e-05
2.376190476190476186e+00,1.050600470840786035e-05,-4.131964032588362009e-05
2.376984126984126977e+00,7.872164598670422660e-06,-4.076695847990689548e-05
2.377777777777777768e+00,3.916427825443467411e-06,-3.637474236690435315e-05
2.378571428571428559e+00,-5.956235907223141042e-07,-2.921108867059848418e-05
2.379365079365079350e+00,-4.724293776420311406e-06,-2.051929646162565916e-05
2.380158730158730140e+00,-7.550746708923977422e-06,-1.144467238814493590e-05
2.380952380952380931e+00,-8.384792507597442609e-06,-2.851701719594561371e-06
2.381746031746031722e+00,-6.947321212502159073e-06,4.728623712303791297e-06
2.382539682539682513e+00,-3.485121539587410771e-06,1.103569773431142066e-05
2.383333333333333304e+00,1.220292031107688367e-06,1.595856122995406641e-05
2.384126984126984095e+00,5.971653049011806134e-06,1.942851674637719898e-05
2.384920634920634885e+00,9.395873969121908395e-06,2.137490897082406420e-05
2.385714285714285676e+00,1.026339454832238835e-05,2.175208782104493197e-05
2.386507936507936467e+00,7.815066771636736470e-06,2.060469752447795377e-05
2.387301587301587258e+00,2.010426791797722226e-06,1.811950007675369221e-05
2.388095238095238049e+00,-6.379538800093197133e-06,1.462518811830767419e-05
2.388888888888888840e+00,-1.587967934970366344e-05,1.053756798993066850e-05
2.389682539682539630e+00,-2.461372814322505627e-05,6.280894488739759391e-06
2.390476190476190421e+00,-3.074296009082203457e-05,2.225484670284680779e-06
2.391269841269841212e+00,-3.293056768052218304e-05,-1.334566125396089697e-06
2.392063492063492003e+00,-3.069748906477977741e-05,-4.167019221224407225e-06
2.392857142857142794e+00,-2.455535063850549260e-05,-6.076267009384745900e-06
2.393650793650793585e+00,-1.586867142208333120e-05,-6.900864228313410355e-06
2.394444444444444375e+00,-6.487855521504998582e-06,-6.556024299424096422e-06
2.395238095238095166e+00,1.731297050980138395e-06,-5.113473621567439403e-06
2.396031746031745957e+00,7.376551390210752684e-06,-2.874430302601540328e-06
2.396825396825396748e+00,9.774107895705141897e-06,-3.705133214812218937e-07
2.397619047619047539e+00,9.066002293752343827e-06,1.755792592855576340e-06
2.398412698412698330e+00,6.076701252905250025e-06,2.981098929244285108e-06
2.399206349206349120e+00,2.031933352681129521e-06,3.157710909038050347e-06
2.399999999999999911e+00,-1.778712718846770351e-06,2.670556994117952680e-06
2.400793650793650702e+00,-4.304761832332963030e-06,2.392547296690877346e-06
2.401587301587301493e+00,-4.936152819070607305e-06,3.422815835128165852e-06
2.402380952380952284e+00,-3.571530322709857348e-06,6.694618386696885158e-06
2.403174603174603075e+00,-5.592375307700840907e-07,1.260133599158989890e-05
2.403968253968253865e+00,3.455054329236646598e-06,2.077987508234056306e-05
2.404761904761904656e+00,7.725129670610418744e-06,3.012311910835079946e-05
2.405555555555555447e+00,1.159356418874449914e-05,3.900794544218068143e-05
2.406349206349206238e+00,1.462860352803298780e-05,4.566175928668824682e-05
2.407142857142857029e+00,1.667875377791867226e-05,4.856337952933745760e-05
2.407936507936507819e+00,1.783667807052233823e-05,4.677612576089020744e-05
2.408730158730158610e+00,1.832783729815556912e-05,4.013146532253583941e-05
2.409523809523809401e+00,1.836088720793987677e-05,2.921861131649561427e-05
2.410317460317460192e+00,1.799098879981380969e-05,1.518857633616903502e-05
2.411111111111110983e+00,1.704784108585337418e-05,-5.612867922207937244e-07
2.411904761904761774e+00,1.516288997821188951e-05,-1.671614901196411148e-05
2.412698412698412564e+00,1.189705847579276039e-05,-3.227642323349705730e-05
2.413492063492063355e+00,6.932399514397666340e-06,-4.662394057098254011e-05
2.414285714285714146e+00,2.633982175497174281e-07,-5.941994386608671051e-05
2.415079365079364937e+00,-7.682106589855177778e-06,-7.040156795361175897e-05
2.415873015873015728e+00,-1.604368680994783762e-05,-7.918189068037163316e-05
2.416666666666666519e+00,-2.366513210771474960e-05,-8.515567838124254497e-05
2.417460317460317309e+00,-2.933769445944199602e-05,-8.757094939451218793e-05
2.418253968253968100e+00,-3.208345394222376023e-05,-8.575441684934241701e-05
2.419047619047618891e+00,-3.139756321488939694e-05,-7.940144310413665583e-05
2.419841269841269682e+00,-2.738128897096824878e-05,-6.879817199858761470e-05
2.420634920634920473e+00,-2.073157692219330879e-05,-5.486275520181716289e-05
2.421428571428571264e+00,-1.259300779223396645e-05,-3.896711762960959299e-05
2.422222222222222054e+00,-4.313458806953700802e-06,-2.259503732381105739e-05
2.423015873015872845e+00,2.831659436847575212e-06,-6.963176373734840301e-06
2.423809523809523636e+00,7.877451266941472462e-06,7.252705099193371694e-06
2.424603174603174427e+00,1.031926578186804179e-05,1.998929576587299279e-05
2.425396825396825218e+00,1.015607229474450525e-05,3.164954556164421552e-05
2.426190476190476009e+00,7.838193049657065758e-06,4.280151683311066364e-05
2.426984126984126799e+00,4.143579875304960204e-06,5.382983709576488643e-05
2.427777777777777590e+00,8.941266129900184535e-09,6.465352663356876376e-05
2.428571428571428381e+00,-3.656329516942387221e-06,7.460462496735574555e-05
2.429365079365079172e+00,-6.140826872861848188e-06,8.252581005538542705e-05
2.430158730158729963e+00,-7.053022000282384940e-06,8.708524124466813306e-05
2.430952380952380754e+00,-6.370693104722890339e-06,8.722002847089404013e-05
2.431746031746031544e+00,-4.411354248107183413e-06,8.253617727505850794e-05
2.432539682539682335e+00,-1.732773554795630487e-06,7.347265303857253554e-05
2.433333333333333126e+00,1.017089422629302630e-06,6.112276156584559863e-05
2.434126984126983917e+00,3.272705475105695397e-06,4.677239203685291046e-05
2.434920634920634708e+00,4.707717501864137618e-06,3.137177564346183445e-05
2.435714285714285499e+00,5.330146242788579879e-06,1.521019545137504013e-05
2.436507936507936289e+00,5.477210318199618770e-06,-2.022505007044728173e-06
2.437301587301587080e+00,5.698355597451372121e-06,-2.078215134050141887e-05
2.438095238095238315e+00,6.556353826190847141e-06,-4.100070342059941770e-05
2.438888888888889106e+00,8.412361626166799897e-06,-6.148553272542925201e-05
2.439682539682539897e+00,1.127284643029006978e-05,-7.967356276505800498e-05
2.440476190476190688e+00,1.475698247777960847e-05,-9.192892718977017008e-05
2.441269841269841478e+00,1.819802924449437319e-05,-9.440221053633147345e-05
2.442063492063492269e+00,2.083816979383111448e-05,-8.426085062059699977e-05
2.442857142857143060e+00,2.203925915102401147e-05,-6.091373530470066335e-05
2.443650793650793851e+00,2.143353078000685008e-05,-2.677404268423789688e-05
2.444444444444444642e+00,1.897634356518657030e-05,1.279983848059385784e-05
2.445238095238095433e+00,1.491133225485877470e-05,5.048322805382376809e-05
2.446031746031746223e+00,9.689178016148249613e-06,7.865232372798932616e-05
2.446825396825397014e+00,3.883392319595355466e-06,9.125602079796990866e-05
2.447619047619047805e+00,-1.874708519997644416e-06,8.534037850202111364e-05
2.448412698412698596e+00,-6.948372818451026105e-06,6.179681526597499838e-05
2.449206349206349387e+00,-1.075857622669569839e-05,2.514814604323602413e-05
2.450000000000000178e+00,-1.287467939916427449e-05,-1.753908340065703610e-05
2.450793650793650968e+00,-1.312197102787290296e-05,-5.829477931065650830e-05
2.451587301587301759e+00,-1.166477486323761019e-05,-8.998513357281745235e-05
2.452380952380952550e+00,-9.012874816281518016e-06,-1.077071280764586901e-04
2.453174603174603341e+00,-5.921596766094164336e-06,-1.095326830885545326e-04
2.453968253968254132e+00,-3.202222282595948410e-06,-9.651104804552717664e-05
2.454761904761904923e+00,-1.501724671793033518e-06,-7.204691704830843313e-05
2.455555555555555713e+00,-1.125806953481135048e-06,-4.091223058731070387e-05
2.456349206349206504e+00,-1.962864300580696959e-06,-8.188584835896047339e-06
2.457142857142857295e+00,-3.530099193938464883e-06,2.162048934659790026e-05
2.457936507936508086e+00,-5.122679075753351635e-06,4.517990977708163475e-05
2.458730158730158877e+00,-6.016844098862948928e-06,6.059710154744086901e-05
2.459523809523809668e+00,-5.666916301968550471e-06,6.742757911251840038e-05
2.460317460317460458e+00,-3.844930746030842758e-06,6.648202827715093001e-05
2.461111111111111249e+00,-6.940248502030140851e-07,5.950246530564508903e-05
2.461904761904762040e+00,3.306849086214771359e-06,4.876772387586394324e-05
2.462698412698412831e+00,7.448674579607217321e-06,3.668274253773552777e-05
2.463492063492063622e+00,1.094048842520437333e-05,2.540068056448507795e-05
2.464285714285714413e+00,1.306999717266154768e-05,1.652164607860358043e-05
2.465079365079365203e+00,1.334771161170942143e-05,1.090654437215736445e-05
2.465873015873015994e+00,1.160745018540472448e-05,8.634052509595517149e-06
2.466666666666666785e+00,8.041061451225409870e-06,9.106418107306112097e-06
2.467460317460317576e+00,3.156532741297858130e-06,1.127703369611596138e-05
2.468253968253968367e+00,-2.332520528259142147e-06,1.394114300508748353e-05
2.469047619047619158e+00,-7.656516882025734050e-06,1.601451376264200046e-05
2.469841269841269948e+00,-1.213620590493795535e-05,1.673102272201764331e-05
2.470634920634920739e+00,-1.528709642054421853e-05,1.571773258997538622e-05
2.471428571428571530e+00,-1.686250136810980830e-05,1.294788525797406792e-05
2.472222222222222321e+00,-1.683925591818619504e-05,8.615645256606922813e-06
2.473015873015873112e+00,-1.536785955935236593e-05,3.002215101871635723e-06
2.473809523809523903e+00,-1.271468182364474816e-05,-3.605893584000205070e-06
2.474603174603174693e+00,-9.217180190397316852e-06,-1.092476911588350182e-05
2.475396825396825484e+00,-5.258237216392248477e-06,-1.862734098532903954e-05
2.476190476190476275e+00,-1.251158614614248378e-06,-2.628441101187308990e-05
2.476984126984127066e+00,2.379424476966929500e-06,-3.333132722146166097e-05
2.477777777777777857e+00,5.231691646981884622e-06,-3.908758696023090126e-05
2.478571428571428648e+00,6.977724998027677186e-06,-4.283923809150252173e-05
2.479365079365079438e+00,7.424094885815160547e-06,-4.396806277804772388e-05
2.480158730158730229e+00,6.565152605920830026e-06,-4.208499818419779280e-05
2.480952380952381020e+00,4.604852778021587657e-06,-3.711955872094981751e-05
2.481746031746031811e+00,1.925894929651650592e-06,-2.934334173961426472e-05
2.482539682539682602e+00,-9.957051275943622966e-07,-1.934403088153280437e-05
2.483333333333333393e+00,-3.705516247758721817e-06,-7.982514917026727302e-06
2.484126984126984183e+00,-5.874118543258310574e-06,3.652390371829486951e-06
2.484920634920634974e+00,-7.354114838610650047e-06,1.431029490310053758e-05
2.485714285714285765e+00,-8.177290989304270187e-06,2.270450285690597822e-05
2.486507936507936556e+00,-8.501320598933867164e-06,2.772184245246542481e-05
2.487301587301587347e+00,-8.530311143933756165e-06,2.869902956693896895e-05
2.488095238095238138e+00,-8.438244393432199774e-06,2.568921529179766546e-05
2.488888888888888928e+00,-8.319018421895341042e-06,1.960137431523551599e-05
2.489682539682539719e+00,-8.172944163237006100e-06,1.210586317024426696e-05
2.490476190476190510e+00,-7.923876475000304889e-06,5.273631578096830042e-06
2.491269841269841301e+00,-7.452890716404037288e-06,1.025952563471270687e-06
2.492063492063492092e+00,-6.636178539848298689e-06,5.605626860361865585e-07
2.492857142857142883e+00,-5.380655258479428388e-06,3.944433418664940955e-06
2.493650793650793673e+00,-3.654273182524815069e-06,1.001753932630317337e-05
2.494444444444444464e+00,-1.508037666650296257e-06,1.666064898056694160e-05
2.495238095238095255e+00,9.148455978719016549e-07,2.137304565160006088e-05
2.496031746031746046e+00,3.388154657935223656e-06,2.200795513276826429e-05
2.496825396825396837e+00,5.633895961321708649e-06,1.744990322176073568e-05
2.497619047619047628e+00,7.374169637606137971e-06,8.015759460386764017e-06
2.498412698412698418e+00,8.394842583782084647e-06,-4.566698744225023130e-06
2.499206349206349209e+00,8.605456787004624029e-06,-1.761620942966823043e-05
2.500000000000000000e+00,8.076772912033019358e-06,-2.825462971990525332e-05
2.500793650793650791e+00,7.040389201578410498e-06,-3.421821728761289372e-05
2.501587301587301582e+00,5.844606602511400309e-06,-3.446477369698032397e-05
2.502380952380952372e+00,4.874843792595713970e-06,-2.940229863099290389e-05
2.503174603174603163e+00,4.459806842224780623e-06,-2.069969735987275866e-05
2.503968253968253954e+00,4.790032291620762724e-06,-1.076344208137116117e-05
2.504761904761904745e+00,5.871128345968422307e-06,-2.044306885113525228e-06
2.505555555555555536e+00,7.523040853417658052e-06,3.627586107679282631e-06
2.506349206349206327e+00,9.423879164775806697e-06,5.493772054971666519e-06
2.507142857142857117e+00,1.118600013403290722e-05,3.981285021509085524e-06
2.507936507936507908e+00,1.244515605230427807e-05,4.584351241784138998e-07
2.508730158730158699e+00,1.294127869206489233e-05,-3.276167258152878111e-06
2.509523809523809490e+00,1.257203247441560681e-05,-5.597007044606279588e-06
2.510317460317460281e+00,1.140729744715808153e-05,-5.549401464500674384e-06
2.511111111111111072e+00,9.662739059591535790e-06,-3.087043595731579503e-06
2.511904761904761862e+00,7.640929815286473558e-06,1.010994923425707159e-06
2.512698412698412653e+00,5.656368369612050436e-06,5.493577998179239192e-06
2.513492063492063444e+00,3.964054930787717420e-06,9.123204214122189156e-06
2.514285714285714235e+00,2.708850625101918767e-06,1.112124414472936522e-05
2.515079365079365026e+00,1.905406805905335936e-06,1.142671940150428506e-05
2.515873015873015817e+00,1.449084916347437822e-06,1.069601077565266046e-05
2.516666666666666607e+00,1.150889509789131916e-06,1.005951639441140132e-05
2.517460317460317398e+00,7.861575837711842840e-07,1.072346893110649742e-05
2.518253968253968189e+00,1.469296555104865860e-07,1.354203118783528190e-05
2.519047619047618980e+00,-9.106135011715610909e-07,1.868300361873057342e-05
2.519841269841269771e+00,-2.431105455160900572e-06,2.547686050794872853e-05
2.520634920634920562e+00,-4.343744195121157827e-06,3.248707303214006431e-05
2.521428571428571352e+00,-6.468932373062026134e-06,3.778729529666189502e-05
2.522222222222222143e+00,-8.547677762884489520e-06,3.939035365729463931e-05
2.523015873015872934e+00,-1.028868356572780189e-05,3.574497108380538370e-05
2.523809523809523725e+00,-1.142429889198987948e-05,2.619302298368012915e-05
2.524603174603174516e+00,-1.176463194397894173e-05,1.126678634406148853e-05
2.525396825396825307e+00,-1.123870100226797888e-05,-7.279895265033142323e-06
2.526190476190476097e+00,-9.912463525860607601e-06,-2.675387276080036319e-05
2.526984126984126888e+00,-7.977016236407934510e-06,-4.407065072991839212e-05
2.527777777777777679e+00,-5.707194574464068364e-06,-5.642753843019534063e-05
2.528571428571428470e+00,-3.400004374891056680e-06,-6.191765938013440692e-05
2.529365079365079261e+00,-1.309957839805765298e-06,-5.992535846531122631e-05
2.530158730158730052e+00,3.996334202252585167e-07,-5.121697601017993545e-05
2.530952380952380842e+00,1.675507306949852498e-06,-3.772510394511394550e-05
2.531746031746031633e+00,2.559849331968467347e-06,-2.209375913273798730e-05
2.532539682539682424e+00,3.149948748894393442e-06,-7.098938015132482158e-06
2.533333333333333215e+00,3.547840017267966860e-06,4.919172936469017739e-06
2.534126984126984006e+00,3.817733195723738114e-06,1.248468832197584079e-05
2.534920634920634797e+00,3.964856350305248006e-06,1.518741689122843296e-05
2.535714285714285587e+00,3.940781550764912910e-06,1.363043443135404795e-05
2.536507936507936378e+00,3.670763578439550686e-06,9.162015540180863294e-06
2.537301587301587169e+00,3.091621639140485929e-06,3.481439273372505484e-06
2.538095238095237960e+00,2.186369520782875616e-06,-1.767527576777428115e-06
2.538888888888888751e+00,1.004178069642995011e-06,-5.312378323807823354e-06
2.539682539682539542e+00,-3.401735215320250689e-07,-6.416987732227762609e-06
2.540476190476190332e+00,-1.686477431751758942e-06,-4.894088932569879905e-06
2.541269841269841123e+00,-2.862183739569551182e-06,-1.008627535521094250e-06
2.542063492063491914e+00,-3.718519662712843466e-06,4.668505097282689228e-06
2.542857142857142705e+00,-4.160341532111956680e-06,1.140593957849919858e-05
2.543650793650793496e+00,-4.164013755755369045e-06,1.842380516780213798e-05
2.544444444444444287e+00,-3.781677728417142375e-06,2.495737068926587177e-05
2.545238095238095077e+00,-3.132401845656311713e-06,3.027877734183285062e-05
2.546031746031745868e+00,-2.381157221536664722e-06,3.370743901046042513e-05
2.546825396825396659e+00,-1.707773049846171668e-06,3.465195172064913873e-05
2.547619047619047450e+00,-1.271059864813234305e-06,3.271047519630385260e-05
2.548412698412698241e+00,-1.176135053552827326e-06,2.781495623483514138e-05
2.549206349206349032e+00,-1.452953258257842504e-06,2.036093085491484859e-05
2.549999999999999822e+00,-2.050855421322711184e-06,1.124740535665438508e-05
2.550793650793650613e+00,-2.849724423123539524e-06,1.774671715565429349e-06
2.551587301587301404e+00,-3.685066872823537720e-06,-6.597972309340738913e-06
2.552380952380952195e+00,-4.382189021331754042e-06,-1.257714446497101546e-05
2.553174603174602986e+00,-4.792782580546918165e-06,-1.535690927369316725e-05
2.553968253968253777e+00,-4.825768196790062213e-06,-1.485379961357502119e-05
2.554761904761904567e+00,-4.464570166488031566e-06,-1.179006780657503573e-05
2.555555555555555358e+00,-3.766322379963937278e-06,-7.582001361435496654e-06
2.556349206349206149e+00,-2.844047298684828731e-06,-4.025511005615536135e-06
2.557142857142856940e+00,-1.837877666420621415e-06,-2.829792797789408043e-06
2.557936507936507731e+00,-8.834012090446152643e-07,-5.117249655636573343e-06
2.558730158730158522e+00,-8.398278498610513188e-08,-1.104652038378573737e-05
2.559523809523809312e+00,5.086946989892213304e-07,-1.969352192464218640e-05
2.560317460317460103e+00,9.036205501507477482e-07,-2.924432090486722379e-05
2.561111111111110894e+00,1.167518681018202256e-06,-3.744851254065130990e-05
2.561904761904761685e+00,1.409225126292702692e-06,-4.219736697855714405e-05
2.562698412698412920e+00,1.752738631069037017e-06,-4.205738477800642086e-05
2.563492063492063711e+00,2.303591348398675342e-06,-3.661313269494315803e-05
2.564285714285714501e+00,3.115448742586222031e-06,-2.653906208429730246e-05
2.565079365079365292e+00,4.163743762848414221e-06,-1.340250074031030177e-05
2.565873015873016083e+00,5.331993985121805494e-06,7.287531424081645042e-07
2.566666666666666874e+00,6.415874110273102220e-06,1.375984844083516466e-05
2.567460317460317665e+00,7.149398117041549031e-06,2.400227609620643574e-05
2.568253968253968456e+00,7.254587533080841199e-06,3.046820711592468175e-05
2.569047619047619246e+00,6.509655190075641724e-06,3.297042513461711030e-05
2.569841269841270037e+00,4.821768285127984332e-06,3.202827106584571921e-05
2.570634920634920828e+00,2.281924377934212897e-06,2.863106864600721096e-05
2.571428571428571619e+00,-8.226615816574205460e-07,2.393947097153370352e-05
2.572222222222222410e+00,-4.053068317811629880e-06,1.900640867561005352e-05
2.573015873015873201e+00,-6.913045458821192587e-06,1.458002737029591787e-05
2.573809523809523991e+00,-8.964418212375524947e-06,1.102110053854469499e-05
2.574603174603174782e+00,-9.925786017849358371e-06,8.333505678683991361e-06
2.575396825396825573e+00,-9.725656692312654189e-06,6.275359493593173367e-06
2.576190476190476364e+00,-8.500785635992324168e-06,4.500185448784578948e-06
2.576984126984127155e+00,-6.548460709627299630e-06,2.679643368853095076e-06
2.577777777777777946e+00,-4.250185459520258080e-06,5.805421671383009539e-07
2.578571428571428736e+00,-1.985197880653973811e-06,-1.902382160618813968e-06
2.579365079365079527e+00,-5.090487509557153617e-08,-4.736452262110829322e-06
2.580158730158730318e+00,1.394339937323730553e-06,-7.742301933862285994e-06
2.580952380952381109e+00,2.354292952265599365e-06,-1.058259449207271443e-05
2.581746031746031900e+00,2.978570890884075625e-06,-1.276598367721905989e-05
2.582539682539682691e+00,3.510578494720028850e-06,-1.369436401490515108e-05
2.583333333333333481e+00,4.211705584157954473e-06,-1.277292526213557152e-05
2.584126984126984272e+00,5.280533850584525009e-06,-9.578076717206755625e-06
2.584920634920635063e+00,6.788319629993266229e-06,-4.048430195085726948e-06
2.585714285714285854e+00,8.648717627934223532e-06,3.358768304939247877e-06
2.586507936507936645e+00,1.063072157402578394e-05,1.160950424015890137e-05
2.587301587301587436e+00,1.241145099984792943e-05,1.918214154190468914e-05
2.588095238095238226e+00,1.365350328509649629e-05,2.431903230523292325e-05
2.588888888888889017e+00,1.408435660604770968e-05,2.541038959821347815e-05
2.589682539682539808e+00,1.355580164739077402e-05,2.143442779923842185e-05
2.590476190476190599e+00,1.206952792872902167e-05,1.234402810503690574e-05
2.591269841269841390e+00,9.767244174978281335e-06,-7.199790980064367913e-07
2.592063492063492181e+00,6.894848003304119766e-06,-1.548724279506748401e-05
2.592857142857142971e+00,3.755687516924407632e-06,-2.893072796600625095e-05
2.593650793650793762e+00,6.661220163644019310e-07,-3.791306322412411152e-05
2.594444444444444553e+00,-2.080278030616525998e-06,-3.997151399002556366e-05
2.595238095238095344e+00,-4.240155233475739653e-06,-3.403247135271731674e-05
2.596031746031746135e+00,-5.641918359258628311e-06,-2.082778937867494983e-05
2.596825396825396925e+00,-6.202038970930229149e-06,-2.847203085065561302e-06
2.597619047619047716e+00,-5.934000109017924629e-06,1.620271670927478198e-05
2.598412698412698507e+00,-4.947225987470726038e-06,3.229736836628062027e-05
2.599206349206349298e+00,-3.435186143301208280e-06,4.208904367525571655e-05
2.600000000000000089e+00,-1.654036000573401179e-06,4.370516416642074184e-05
2.600793650793650880e+00,1.064189991517957864e-07,3.713149420734386573e-05
2.601587301587301670e+00,1.558393058613379540e-06,2.410400051519880310e-05
2.602380952380952461e+00,2.456919562830827254e-06,7.581520639900418229e-06
2.603174603174603252e+00,2.641341770344695110e-06,-9.023158109372086158e-06
2.603968253968254043e+00,2.068672094910136882e-06,-2.263628168015894239e-05
2.604761904761904834e+00,8.270398588847724346e-07,-3.114699441577809788e-05
2.605555555555555625e+00,-8.803045151382841980e-07,-3.373829007826770898e-05
2.606349206349206415e+00,-2.780804667565644163e-06,-3.088717699131619967e-05
2.607142857142857206e+00,-4.596308265297200311e-06,-2.407567150521249094e-05
2.607936507936507997e+00,-6.104925634833216369e-06,-1.531521653148798273e-05
2.608730158730158788e+00,-7.182895616759690784e-06,-6.620373014186132006e-06
2.609523809523809579e+00,-7.817233469017332469e-06,4.360451869313192348e-07
2.610317460317460370e+00,-8.089688233582700020e-06,4.994239226081187437e-06
2.611111111111111160e+00,-8.138826578546913467e-06,6.972058873249375729e-06
2.611904761904761951e+00,-8.110423030276764833e-06,6.943336886478047874e-06
2.612698412698412742e+00,-8.108484516024463696e-06,5.883004677898797847e-06
2.613492063492063533e+00,-8.159342161303052198e-06,4.846171283517546857e-06
2.614285714285714324e+00,-8.197525480531361522e-06,4.652596285244076046e-06
2.615079365079365115e+00,-8.075349013614902110e-06,5.645770296330898548e-06
2.615873015873015905e+00,-7.591507733684727105e-06,7.584181879009294673e-06
2.616666666666666696e+00,-6.530400172208445034e-06,9.697775440024073931e-06
2.617460317460317487e+00,-4.704308711321920747e-06,1.090454120498069847e-05
2.618253968253968278e+00,-1.993909157884752758e-06,1.013563663800298338e-05
2.619047619047619069e+00,1.613825134298558808e-06,6.676843090052210684e-06
2.619841269841269860e+00,5.990542766297275518e-06,4.206621573977751412e-07
2.620634920634920650e+00,1.083782960628376350e-05,-8.049592113139205266e-06
2.621428571428571441e+00,1.567372661603296435e-05,-1.756316344847793856e-05
2.622222222222222232e+00,1.984649689441934443e-05,-2.660902301852964035e-05
2.623015873015873023e+00,2.258677482059141876e-05,-3.364573986376314437e-05
2.623809523809523814e+00,2.310470665210985852e-05,-3.739249563397443137e-05
2.624603174603174605e+00,2.073106582632409931e-05,-3.704462702511970553e-05
2.625396825396825395e+00,1.508883040781744030e-05,-3.238742941723371884e-05
2.626190476190476186e+00,6.263255557160028518e-06,-2.380642977767556082e-05
2.626984126984126977e+00,-5.080577698453168871e-06,-1.220977514838545211e-05
2.627777777777777768e+00,-1.769073045287376003e-05,1.111675765942821523e-06
2.628571428571428559e+00,-2.987218959109194552e-05,1.466056123697987934e-05
2.629365079365079350e+00,-3.977782003095996081e-05,2.692572353951600434e-05
2.630158730158730140e+00,-4.578761365143302678e-05,3.657565208505578734e-05
2.630952380952380931e+00,-4.687580471714078391e-05,4.263364281275245943e-05
2.631746031746031722e+00,-4.285782027306895783e-05,4.461007439995990178e-05
2.632539682539682513e+00,-3.444063727732231194e-05,4.256785801720309813e-05
2.633333333333333304e+00,-2.305974394562610146e-05,3.710593306219528832e-05
2.634126984126984095e+00,-1.055053246879888979e-05,2.925813206119277498e-05
2.634920634920634885e+00,1.252869927603936366e-06,2.031742685080675426e-05
2.635714285714285676e+00,1.088600692047196946e-05,1.160850603382862107e-05
2.636507936507936467e+00,1.750332803541427358e-05,4.244633330781107077e-06
2.637301587301587258e+00,2.096124110554047190e-05,-1.084109482320495044e-06
2.638095238095238049e+00,2.173447736976689387e-05,-4.238468488853060635e-06
2.638888888888888840e+00,2.070612981690493824e-05,-5.627972487544499869e-06
2.639682539682539630e+00,1.889739517024844806e-05,-6.061750213557372937e-06
2.640476190476190421e+00,1.720909312884458223e-05,-6.483064527531544928e-06
2.641269841269841212e+00,1.623435467963742318e-05,-7.669323444684253028e-06
2.642063492063492003e+00,1.617608378802272935e-05,-1.000370325552767197e-05
2.642857142857142794e+00,1.687255103025217913e-05,-1.340043864466444362e-05
2.643650793650793585e+00,1.790809152541925439e-05,-1.739849087969612895e-05
2.644444444444444375e+00,1.876867615626438851e-05,-2.136166101336427827e-05
2.645238095238095166e+00,1.899652345865050892e-05,-2.467972955202787485e-05
2.646031746031745957e+00,1.830431937212405623e-05,-2.687987412431652739e-05
2.646825396825396748e+00,1.662575368920043696e-05,-2.762148044543175879e-05
2.647619047619047539e+00,1.409952313078276020e-05,-2.662081417307320122e-05
2.648412698412698330e+00,1.100225849315692703e-05,-2.359045616865891365e-05
2.649206349206349120e+00,7.657611809652755904e-06,-1.826212963602569513e-05
2.649999999999999911e+00,4.351947353537058629e-06,-1.050413222133885112e-05
2.650793650793650702e+00,1.281115103961224579e-06,-4.820315632964237734e-07
2.651587301587301493e+00,-1.460708041409654670e-06,1.121856649910101309e-05
2.652380952380952284e+00,-3.855471588947510996e-06,2.357039219210175168e-05
2.653174603174603075e+00,-5.917173028307183974e-06,3.520034042763494280e-05
2.653968253968253865e+00,-7.651268667993101096e-06,4.457803575746664140e-05
2.654761904761904656e+00,-9.033430764979897672e-06,5.025653150997631190e-05
2.655555555555555447e+00,-1.001209756695772755e-05,5.112606198167559519e-05
2.656349206349206238e+00,-1.052922473398992885e-05,4.664289335321146620e-05
2.657142857142857029e+00,-1.054833811072940617e-05,3.699041527287788979e-05
2.657936507936507819e+00,-1.007844755833907393e-05,2.312890829056738160e-05
2.658730158730158610e+00,-9.185474921296993845e-06,6.705717407945684498e-06
2.659523809523809401e+00,-7.987602514096596475e-06,-1.017193763671575016e-05
2.660317460317460192e+00,-6.635527171696861445e-06,-2.526664814585420572e-05
2.661111111111110983e+00,-5.282838207578092207e-06,-3.658570651083470219e-05
2.661904761904761774e+00,-4.055574087315079628e-06,-4.273356578244400623e-05
2.662698412698412564e+00,-3.031293759781519195e-06,-4.317274972338085658e-05
2.663492063492063355e+00,-2.234282631670297545e-06,-3.833400779700544842e-05
2.664285714285714146e+00,-1.645812563241362592e-06,-2.954343912886912650e-05
2.665079365079364937e+00,-1.221516968398023967e-06,-1.877374898771473600e-05
2.665873015873015728e+00,-9.067590782765824543e-07,-8.263676315870288155e-06
2.666666666666666519e+00,-6.457799494960410525e-07,-7.412354740885825785e-08
2.667460317460317309e+00,-3.867253228977029284e-07,4.335872028432113889e-06
2.668253968253968100e+00,-8.708118074008071934e-08,4.422825497327020664e-06
2.669047619047618891e+00,2.781704219666234650e-07,6.792590117263356969e-07
2.669841269841269682e+00,7.070064175470483430e-07,-5.487826685818074928e-06
2.670634920634920473e+00,1.163455185107239368e-06,-1.210743124359680443e-05
2.671428571428571264e+00,1.579187012782984506e-06,-1.713931175493979875e-05
2.672222222222222054e+00,1.869460203613227721e-06,-1.897822152007995564e-05
2.673015873015872845e+00,1.964100710333311064e-06,-1.682911962804125558e-05
2.673809523809523636e+00,1.843662955733655475e-06,-1.085789552468863282e-05
2.674603174603174427e+00,1.562487583881447715e-06,-2.091628389883017847e-06
2.675396825396825218e+00,1.242940912457170321e-06,7.885443731324230079e-06
2.676190476190476009e+00,1.038561917177727334e-06,1.733852271799017836e-05
2.676984126984126799e+00,1.078881020627994387e-06,2.476772066498577149e-05
2.677777777777777590e+00,1.416725790946108150e-06,2.917083387729077566e-05
2.678571428571428381e+00,1.997907344899501055e-06,3.014041209457625294e-05
2.679365079365079172e+00,2.665418393591904130e-06,2.781865727727203825e-05
2.680158730158729963e+00,3.198708553165512328e-06,2.277521539360701124e-05
2.680952380952380754e+00,3.376918981192586012e-06,1.587387614111573469e-05
2.681746031746031544e+00,3.046952049626092686e-06,8.164063282114654278e-06
2.682539682539682335e+00,2.175211078086516475e-06,7.953813249387719667e-07
2.683333333333333126e+00,8.662282227241945921e-07,-5.070797874473706909e-06
2.684126984126983917e+00,-6.584913626810736029e-07,-8.380800846009461545e-06
2.684920634920634708e+00,-2.114747012801134900e-06,-8.349359687987577773e-06
2.685714285714285499e+00,-3.225030594161785680e-06,-4.643083402977040853e-06
2.686507936507936289e+00,-3.781193251322197866e-06,2.458460035220893302e-06
2.687301587301587080e+00,-3.683602922983293008e-06,1.198204335997700598e-05
2.688095238095238315e+00,-2.950194608049334656e-06,2.231119213042592880e-05
2.688888888888889106e+00,-1.699345620426954660e-06,3.139187853594269583e-05
2.689682539682539897e+00,-1.181678120400660441e-07,3.707812726608757429e-05
2.690476190476190688e+00,1.570004795082598345e-06,3.755955627909729342e-05
2.691269841269841478e+00,3.129887454673996722e-06,3.177930912599855013e-05
2.692063492063492269e+00,4.330184509273643402e-06,1.973872773537832295e-05
2.692857142857143060e+00,4.958400770214077278e-06,2.602953166627936488e-06
2.693650793650793851e+00,4.843316249354400954e-06,-1.743214124566975397e-05
2.694444444444444642e+00,3.889415150129041749e-06,-3.749144439849795140e-05
2.695238095238095433e+00,2.118442620384309791e-06,-5.451959347034156602e-05
2.696031746031746223e+00,-2.971355108397072676e-07,-6.583207484124611810e-05
2.696825396825397014e+00,-3.029722661987907568e-06,-6.962299809504552827e-05
2.697619047619047805e+00,-5.637659275366277385e-06,-6.534058842312961979e-05
2.698412698412698596e+00,-7.652963374434620814e-06,-5.384471654419548711e-05
2.699206349206349387e+00,-8.696753731618253033e-06,-3.727755092076717909e-05
2.700000000000000178e+00,-8.587063782828219108e-06,-1.863438739586522548e-05
2.700793650793650968e+00,-7.399690739679668590e-06,-1.114019085682540560e-06
2.701587301587301759e+00,-5.455713601466058512e-06,1.258524606276980030e-05
2.702380952380952550e+00,-3.236374244583610999e-06,2.082695999192541404e-05
2.703174603174603341e+00,-1.254539296714101340e-06,2.330352139107611347e-05
2.703968253968254132e+00,7.357687037926926175e-08,2.095595658487076833e-05
2.704761904761904923e+00,5.189455184617443068e-07,1.560047920320499300e-05
2.705555555555555713e+00,7.466644055501304110e-08,9.390457410196314717e-06
2.706349206349206504e+00,-1.062708376165827137e-06,4.268184915980808754e-06
2.707142857142857295e+00,-2.551433952323510430e-06,1.541951600561725351e-06
2.707936507936508086e+00,-3.984083446597395382e-06,1.673917376888048301e-06
2.708730158730158877e+00,-4.970635465277585938e-06,4.299350533354890601e-06
2.709523809523809668e+00,-5.210851464322947048e-06,8.436560235467053650e-06
2.710317460317460458e+00,-4.546165085511216639e-06,1.280750151724165689e-05
2.711111111111111249e+00,-2.985912773093119978e-06,1.617970327219037010e-05
2.711904761904762040e+00,-7.067527510422780340e-07,1.765413979005053124e-05
2.712698412698412831e+00,1.973522324561292648e-06,1.684754291024050660e-05
2.713492063492063622e+00,4.646035260399019085e-06,1.394314065184615938e-05
2.714285714285714413e+00,6.881684748083328404e-06,9.609590587323315993e-06
2.715079365079365203e+00,8.314374618481477675e-06,4.813320694514911369e-06
2.715873015873015994e+00,8.719651433485231328e-06,5.709230931331636672e-07
2.716666666666666785e+00,8.066729439452063126e-06,-2.299237244590469151e-06
2.717460317460317576e+00,6.526580289313416038e-06,-3.366899564072960043e-06
2.718253968253968367e+00,4.432041177888594162e-06,-2.675229911499923083e-06
2.719047619047619158e+00,2.200130642211486651e-06,-7.005804341192342638e-07
2.719841269841269948e+00,2.358129030988282450e-07,1.801977771746821969e-06
2.720634920634920739e+00,-1.160279648961653238e-06,4.024132376556359892e-06
2.721428571428571530e+00,-1.858426681524304477e-06,5.336458107064626322e-06
2.722222222222222321e+00,-1.923497497653126365e-06,5.460562077921036778e-06
2.723015873015873112e+00,-1.587681728291895450e-06,4.531762491169539527e-06
2.723809523809523903e+00,-1.177430526221163828e-06,3.032882011105093786e-06
2.724603174603174693e+00,-1.013703903700166118e-06,1.615158134188196082e-06
2.725396825396825484e+00,-1.314408494622168323e-06,8.569051071932922835e-07
2.726190476190476275e+00,-2.129197944285314195e-06,1.035751531184458936e-06
2.726984126984127066e+00,-3.327545529252339369e-06,1.994270428487136265e-06
2.727777777777777857e+00,-4.642943050492720060e-06,3.154770268834559108e-06
2.728571428571428648e+00,-5.755689288860637047e-06,3.692270184741518946e-06
2.729365079365079438e+00,-6.383317210786089672e-06,2.821010719694426615e-06
2.730158730158730229e+00,-6.348084996435637133e-06,1.077069792026562618e-07
2.730952380952381020e+00,-5.604397849484315867e-06,-4.291876230514993389e-06
2.731746031746031811e+00,-4.227544568772091352e-06,-9.560925359455621137e-06
2.732539682539682602e+00,-2.379030853022636968e-06,-1.435541678085994185e-05
2.733333333333333393e+00,-2.675287416644036439e-07,-1.711854418166618098e-05
2.734126984126984183e+00,1.881493554314507803e-06,-1.648742192488041305e-05
2.734920634920634974e+00,3.845410229725610991e-06,-1.167134547529504303e-05
2.735714285714285765e+00,5.421079552345373460e-06,-2.694388180040719723e-06
2.736507936507936556e+00,6.448970852775009037e-06,9.552141636701095352e-06
2.737301587301587347e+00,6.848601719926792902e-06,2.343684170076372459e-05
2.738095238095238138e+00,6.656756646648585848e-06,3.684097727878697502e-05
2.738888888888888928e+00,6.050098508645900725e-06,4.747773820056928911e-05
2.739682539682539719e+00,5.333281813725012162e-06,5.323729350922543383e-05
2.740476190476190510e+00,4.883553798960178375e-06,5.252964865305469498e-05
2.741269841269841301e+00,5.058691376546054618e-06,4.459018433667924708e-05
2.742063492063492092e+00,6.090402625730819023e-06,2.969555217233025863e-05
2.742857142857142883e+00,7.994128635214915176e-06,9.229910660845872989e-06
2.743650793650793673e+00,1.052508022797395129e-05,-1.444268847654379932e-05
2.744444444444444464e+00,1.319936351473791879e-05,-3.830213766889967040e-05
2.745238095238095255e+00,1.538152138293949494e-05,-5.913770080772047576e-05
2.746031746031746046e+00,1.642095440050152965e-05,-7.405342726184149793e-05
2.746825396825396837e+00,1.580480139697259314e-05,-8.090380001965017114e-05
2.747619047619047628e+00,1.328820664499747876e-05,-7.858701732746309809e-05
2.748412698412698418e+00,8.967152170661089118e-06,-6.717844627115190882e-05
2.749206349206349209e+00,3.274425745133584345e-06,-4.792319910961866667e-05
2.750000000000000000e+00,-3.098409057876725670e-06,-2.311147214028127749e-05
2.750793650793650791e+00,-9.329960704153936592e-06,4.151396700422925314e-06
2.751587301587301582e+00,-1.461618302869638960e-05,3.027475866341866625e-05
2.752380952380952372e+00,-1.830550866100596341e-05,5.160165827547285070e-05
2.753174603174603163e+00,-2.000054703917427220e-05,6.489553446278245651e-05
2.753968253968253954e+00,-1.961392907936585690e-05,6.785818426589250191e-05
2.754761904761904745e+00,-1.737274378586569777e-05,5.961311692885548017e-05
2.755555555555555536e+00,-1.377198712133170890e-05,4.104368438482598486e-05
2.756349206349206327e+00,-9.483978276374450958e-06,1.484521918346078550e-05
2.757142857142857117e+00,-5.237800663354892015e-06,-1.481854081649997424e-05
2.757936507936507908e+00,-1.689120642586613912e-06,-4.305243366392038040e-05
2.758730158730158699e+00,6.959082848474836331e-07,-6.520490531531398799e-05
2.759523809523809490e+00,1.720069543644651583e-06,-7.781760047003777802e-05
2.760317460317460281e+00,1.480898481717220041e-06,-7.929134216397296033e-05
2.761111111111111072e+00,3.355686915056163029e-07,-7.011957191414859146e-05
2.761904761904761862e+00,-1.189600760737207730e-06,-5.267862541748886095e-05
2.762698412698412653e+00,-2.525738549129680097e-06,-3.066538124001177382e-05
2.763492063492063444e+00,-3.194910880865027079e-06,-8.322502946266918542e-06
2.764285714285714235e+00,-2.919428864371187670e-06,1.039505776822045210e-05
2.765079365079365026e+00,-1.682578869041036519e-06,2.256780558632987178e-05
2.765873015873015817e+00,2.715549806605944631e-07,2.685232311378150886e-05
2.766666666666666607e+00,2.497898659955451629e-06,2.372361675582064963e-05
2.767460317460317398e+00,4.455851978538952719e-06,1.536524370201266420e-05
2.768253968253968189e+00,5.636408181140097420e-06,5.203272659972003172e-06
2.769047619047618980e+00,5.681616748823910780e-06,-2.855285315503877234e-06
2.769841269841269771e+00,4.468232170341268164e-06,-5.345829738480931551e-06
2.770634920634920562e+00,2.135497093081901807e-06,-1.287157084853827002e-07
2.771428571428571352e+00,-9.491356439521897170e-07,1.300764341014225866e-05
2.772222222222222143e+00,-4.275947847876860824e-06,3.222002028079538059e-05
2.773015873015872934e+00,-7.305572373041566907e-06,5.401709994224025571e-05
2.773809523809523725e+00,-9.576260712776719794e-06,7.407244949228947726e-05
2.774603174603174516e+00,-1.077836565097073842e-05,8.819195601761760589e-05
2.775396825396825307e+00,-1.078359299346540550e-05,9.318263549852868176e-05
2.776190476190476097e+00,-9.634378628273249873e-06,8.745790242433991207e-05
2.776984126984126888e+00,-7.510084844505779435e-06,7.130928360014495945e-05
2.777777777777777679e+00,-4.687444867594670939e-06,4.683161716706335802e-05
2.778571428571428470e+00,-1.505503293235547166e-06,1.752446313973739375e-05
2.779365079365079261e+00,1.664282968586518585e-06,-1.236291720583220932e-05
2.780158730158730052e+00,4.449299003188372286e-06,-3.861994567494111676e-05
2.780952380952380842e+00,6.516032779575015474e-06,-5.783119870054511514e-05
2.781746031746031633e+00,7.620546129860325511e-06,-6.793563917794456016e-05
2.782539682539682424e+00,7.659384645413035270e-06,-6.847643409563325899e-05
2.783333333333333215e+00,6.702732582828488043e-06,-6.051677565732745172e-05
2.784126984126984006e+00,4.991756394179123124e-06,-4.628106885656802991e-05
2.784920634920634797e+00,2.891763851765268693e-06,-2.863192038315249830e-05
2.785714285714285587e+00,8.087516318955790256e-07,-1.050644418528771040e-05
2.786507936507936378e+00,-9.067301057028913165e-07,5.579593384126399811e-06
2.787301587301587169e+00,-2.035802224087552792e-06,1.788198342487770916e-05
2.788095238095237960e+00,-2.520989617436086877e-06,2.559038509568452508e-05
2.788888888888888751e+00,-2.442310617596139431e-06,2.879445004555779251e-05
2.789682539682539542e+00,-1.954348928673284152e-06,2.827849672952659685e-05
2.790476190476190332e+00,-1.211417419038988647e-06,2.520309036739908597e-05
2.791269841269841123e+00,-3.082141169327288920e-07,2.075887452107698746e-05
2.792063492063491914e+00,7.445372756851210477e-07,1.588350575016521076e-05
2.792857142857142705e+00,2.002452062881511268e-06,1.110748288871138711e-05
2.793650793650793496e+00,3.535696645005541172e-06,6.547515011498242484e-06
2.794444444444444287e+00,5.363959183155679227e-06,2.019196478856419142e-06
2.795238095238095077e+00,7.405054183393929585e-06,-2.786321064735242042e-06
2.796031746031745868e+00,9.460466937256381748e-06,-8.119569775309911876e-06
2.796825396825396659e+00,1.124927782117263795e-05,-1.402798886666152706e-05
2.797619047619047450e+00,1.248432736472817623e-05,-2.027569877676696410e-05
2.798412698412698241e+00,1.296520092893081716e-05,-2.634291877693681436e-05
2.799206349206349032e+00,1.264964416036680685e-05,-3.151295221725944139e-05
2.799999999999999822e+00,1.166836833654515239e-05,-3.503894827684622600e-05
2.800793650793650613e+00,1.027095847912590493e-05,-3.635145874102336979e-05
2.801587301587301404e+00,8.722818006193350555e-06,-3.523682229776363260e-05
2.802380952380952195e+00,7.197278180642823197e-06,-3.191354486615381378e-05
2.803174603174602986e+00,5.710145690547389230e-06,-2.696871150970238593e-05
2.803968253968253777e+00,4.124907472172339114e-06,-2.116861362982121905e-05
2.804761904761904567e+00,2.225442527157879010e-06,-1.519952028214612970e-05
2.805555555555555358e+00,-1.754510009130846564e-07,-9.416341730509084933e-06
2.806349206349206149e+00,-3.136331815889137096e-06,-3.683816697898048574e-06
2.807142857142856940e+00,-6.534042832786431954e-06,2.614078457259646284e-06
2.807936507936507731e+00,-1.007414153854691344e-05,1.035693361364873381e-05
2.808730158730158522e+00,-1.335681197015640863e-05,2.029047771396574028e-05
2.809523809523809312e+00,-1.597162782650812113e-05,3.255461131171867361e-05
2.810317460317460103e+00,-1.758891908457134960e-05,4.629630618681290202e-05
2.811111111111110894e+00,-1.802321640890047045e-05,5.952894196580013684e-05
2.811904761904761685e+00,-1.725855598027101434e-05,6.934514933633040528e-05
2.812698412698412920e+00,-1.543773722665760478e-05,7.249298501626197985e-05
2.813492063492063711e+00,-1.282438443944295797e-05,6.621036481095064514e-05
2.814285714285714501e+00,-9.749502927374702522e-06,4.911121947983411234e-05
2.815079365079365292e+00,-6.554837500321665408e-06,2.186223067439854655e-05
2.815873015873016083e+00,-3.543551331517469792e-06,-1.259006894295152140e-05
2.816666666666666874e+00,-9.448232667537357107e-07,-4.937608611288702668e-05
2.817460317460317665e+00,1.105270662233793285e-06,-8.261043648410196498e-05
2.818253968253968456e+00,2.566849311629071439e-06,-1.066396398414329631e-04
2.819047619047619246e+00,3.484131544823625503e-06,-1.172970785620450652e-04
2.819841269841270037e+00,3.959308840738591795e-06,-1.128144242785199584e-04
2.820634920634920828e+00,4.116124428821390252e-06,-9.414665059519402711e-05
2.821428571428571619e+00,4.061820911151517208e-06,-6.466489789292040487e-05
2.822222222222222410e+00,3.860004946451301103e-06,-2.936778315145672168e-05
2.823015873015873201e+00,3.525573032297695841e-06,6.132939570337644637e-06
2.823809523809523991e+00,3.044434285784977392e-06,3.660909234592910912e-05
2.824603174603174782e+00,2.408471396638655538e-06,5.803706246060995365e-05
2.825396825396825573e+00,1.647109911863137510e-06,6.817210112261543249e-05
2.826190476190476364e+00,8.376544875856764952e-07,6.684816596933344497e-05
2.826984126984127155e+00,8.860188982852957463e-08,5.597247415078394878e-05
2.827777777777777946e+00,-4.927322138523377290e-07,3.916972849062573054e-05
2.828571428571428736e+00,-8.264797699377760457e-07,2.105512627509905789e-05
2.829365079365079527e+00,-8.636012496707038305e-07,6.204640565896294202e-06
2.830158730158730318e+00,-5.670947237620409842e-07,-1.978354069853595885e-06
2.830952380952381109e+00,1.111629270423222005e-07,-2.196658442029331365e-06
2.831746031746031900e+00,1.234929214000089695e-06,4.318401052654249970e-06
2.832539682539682691e+00,2.855354255651948539e-06,1.409006164376140372e-05
2.833333333333333481e+00,4.953513769275536811e-06,2.236847137180302347e-05
2.834126984126984272e+00,7.375940980478433827e-06,2.454923952792172290e-05
2.834920634920635063e+00,9.797769375530332412e-06,1.763392143966231222e-05
2.835714285714285854e+00,1.174754350115193559e-05,1.286773796936604067e-06
2.836507936507936645e+00,1.271008931261148225e-05,-2.186152985206361822e-05
2.837301587301587436e+00,1.229113135861224513e-05,-4.679384667398476491e-05
2.838095238095238226e+00,1.039079340797529069e-05,-6.741720562519797543e-05
2.838888888888889017e+00,7.311260173211418619e-06,-7.820537073874189878e-05
2.839682539682539808e+00,3.734417626638066924e-06,-7.567366765324512760e-05
2.840476190476190599e+00,5.526429940531837286e-07,-5.927084686839567478e-05
2.841269841269841390e+00,-1.397835484503933522e-06,-3.148704905150765944e-05
2.842063492063492181e+00,-1.601457915118776203e-06,2.782218594425843402e-06
2.842857142857142971e+00,-2.288483920363842785e-08,3.739137889452740833e-05
2.843650793650793762e+00,2.893645651024310084e-06,6.630298854574367940e-05
2.844444444444444553e+00,6.368797093364868180e-06,8.483370880770777823e-05
2.845238095238095344e+00,9.505039915671399501e-06,9.053900770626750381e-05
2.846031746031746135e+00,1.149322051368034079e-05,8.358341696220036518e-05
2.846825396825396925e+00,1.175497766898685267e-05,6.655248373750905660e-05
2.847619047619047716e+00,1.000915003198462871e-05,4.378005356154890436e-05
2.848412698412698507e+00,6.279067423547765870e-06,2.036654907813393041e-05
2.849206349206349298e+00,8.655365716035679467e-07,1.114601102255456947e-06
2.850000000000000089e+00,-5.696238459486752195e-06,-1.040416580020409585e-05
2.850793650793650880e+00,-1.269023410134927318e-05,-1.249166790434937209e-05
2.851587301587301670e+00,-1.928935751026616374e-05,-5.581786397680482727e-06
2.852380952380952461e+00,-2.464963131669359119e-05,7.917129161942499684e-06
2.853174603174603252e+00,-2.802818075775767603e-05,2.417040252049277804e-05
2.853968253968254043e+00,-2.890892964019486358e-05,3.876969516196340142e-05
2.854761904761904834e+00,-2.710746010444930459e-05,4.773534256511921851e-05
2.855555555555555625e+00,-2.282504739630647979e-05,4.845037062645021693e-05
2.856349206349206415e+00,-1.663334640991595491e-05,4.028419893117073314e-05
2.857142857142857206e+00,-9.390212065590321336e-06,2.471449354132561688e-05
2.857936507936507997e+00,-2.104340195149812310e-06,4.887550038642758074e-06
2.858730158730158788e+00,4.224734871030888267e-06,-1.526692320242122058e-05
2.859523809523809579e+00,8.763940572764206111e-06,-3.210081217437849889e-05
2.860317460317460370e+00,1.097678587664859229e-05,-4.316703962326961955e-05
2.861111111111111160e+00,1.070555746657116714e-05,-4.772505430736734061e-05
2.861904761904761951e+00,8.190341601710103919e-06,-4.671184348461472180e-05
2.862698412698412742e+00,4.019137360494745361e-06,-4.223563577118243605e-05
2.863492063492063533e+00,-9.832006384038915154e-07,-3.679277465560858341e-05
2.864285714285714324e+00,-5.905870987385033613e-06,-3.247371124024149222e-05
2.865079365079365115e+00,-9.913019595844149470e-06,-3.039702309295387345e-05
2.865873015873015905e+00,-1.238395285939834999e-05,-3.050811308665255376e-05
2.866666666666666696e+00,-1.300815213948831402e-05,-3.174795652145506600e-05
2.867460317460317487e+00,-1.182049660364921625e-05,-3.248961559172393798e-05
2.868253968253968278e+00,-9.172070462461704560e-06,-3.108603180868815705e-05
2.869047619047619069e+00,-5.640956827874664916e-06,-2.637275762418418791e-05
2.869841269841269860e+00,-1.898490717575991307e-06,-1.801036802038273523e-05
2.870634920634920650e+00,1.439537803420733715e-06,-6.612878688229303272e-06
2.871428571428571441e+00,3.937469942343167366e-06,6.336077086917158262e-06
2.872222222222222232e+00,5.405339154255581275e-06,1.874789673678092596e-05
2.873015873015873023e+00,5.890907938506410081e-06,2.833425271773034170e-05
2.873809523809523814e+00,5.610383323033257332e-06,3.310017703304170061e-05
2.874603174603174605e+00,4.849812109572785188e-06,3.184038266731665736e-05
2.875396825396825395e+00,3.874093659185417069e-06,2.451801853564638072e-05
2.876190476190476186e+00,2.871492723835821960e-06,1.239901869135921009e-05
2.876984126984126977e+00,1.944840034020824048e-06,-2.137814051998479402e-06
2.877777777777777768e+00,1.142936628889897248e-06,-1.610304500171595449e-05
2.878571428571428559e+00,5.117304221422734102e-07,-2.659747563658938926e-05
2.879365079365079350e+00,1.378275007577286171e-07,-3.152884695470089209e-05
2.880158730158730140e+00,1.595351279901418004e-07,-3.015254044498843949e-05
2.880952380952380931e+00,7.342682335482604641e-07,-2.329370391217978789e-05
2.881746031746031722e+00,1.972474018206483918e-06,-1.319106608268407842e-05
2.882539682539682513e+00,3.867584238314771665e-06,-2.991744541210347698e-06
2.883333333333333304e+00,6.257803010902751779e-06,3.994756526133704484e-06
2.884126984126984095e+00,8.844197863284013894e-06,5.116493872824212035e-06
2.884920634920634885e+00,1.126516860036804150e-05,-9.178024594275126155e-07
2.885714285714285676e+00,1.320053707423460577e-05,-1.361832672390860650e-05
2.886507936507936467e+00,1.446203205005169420e-05,-3.067314951570507660e-05
2.887301587301587258e+00,1.503085265146050114e-05,-4.829687441681358061e-05
2.888095238095238049e+00,1.502722559832079995e-05,-6.190603457949019073e-05
2.888888888888888840e+00,1.462890401998198064e-05,-6.700933472659582814e-05
2.889682539682539630e+00,1.397823704471956928e-05,-6.016929280048444629e-05
2.890476190476190421e+00,1.312001546865345749e-05,-3.986899444128688355e-05
2.891269841269841212e+00,1.199548603605314319e-05,-7.104987182602790188e-06
2.892063492063492003e+00,1.049171565970209292e-05,3.446310048882446087e-05
2.892857142857142794e+00,8.522576104600196610e-06,7.892277296340735214e-05
2.893650793650793585e+00,6.106643528672076214e-06,1.190792978320938562e-04
2.894444444444444375e+00,3.410148202494871709e-06,1.478203763557359683e-04
2.895238095238095166e+00,7.365717117114116931e-07,1.595578686817694517e-04
2.896031746031745957e+00,-1.536944005628448386e-06,1.513840397740009460e-04
2.896825396825396748e+00,-3.058474735587417733e-06,1.236709679058371986e-04
2.897619047619047539e+00,-3.605740550694649155e-06,8.001019073271140513e-05
2.898412698412698330e+00,-3.163734598894406042e-06,2.654542108272109102e-05
2.899206349206349120e+00,-1.950812049766448778e-06,-2.914487287642452583e-05
2.899999999999999911e+00,-3.839945239668337224e-07,-7.939120686478204445e-05
2.900793650793650702e+00,1.008147749723812336e-06,-1.177383372446343216e-04
2.901587301587301493e+00,1.703358519418474777e-06,-1.399528468532659699e-04
2.902380952380952284e+00,1.306640636717910117e-06,-1.445461759055606337e-04
2.903174603174603075e+00,-3.528623713329005937e-07,-1.327491768664928995e-04
2.903968253968253865e+00,-3.171078997979909075e-06,-1.080034085410020833e-04
2.904761904761904656e+00,-6.777561953234517661e-06,-7.512915621235708764e-05
2.905555555555555447e+00,-1.060445071712453218e-05,-3.937297158543971465e-05
2.906349206349206238e+00,-1.400270792009643695e-05,-5.531360673682151267e-06
2.907142857142857029e+00,-1.637991373356963921e-05,2.269697678145742581e-05
2.907936507936507819e+00,-1.732739518509927322e-05,4.304934371310127563e-05
2.908730158730158610e+00,-1.670616096924890868e-05,5.472921603963743008e-05
2.909523809523809401e+00,-1.467037162226348309e-05,5.819936416356289425e-05
2.910317460317460192e+00,-1.162235594292861106e-05,5.484476075443768837e-05
2.911111111111110983e+00,-8.111761761535449846e-06,4.660892488045286180e-05
2.911904761904761774e+00,-4.707633889122328545e-06,3.567289201741222595e-05
2.912698412698412564e+00,-1.879097421780444087e-06,2.419839151091952390e-05
2.913492063492063355e+00,8.538279822859555719e-08,1.412157700370392519e-05
2.914285714285714146e+00,1.105405518686898130e-06,6.977951533534744805e-06
2.915079365079364937e+00,1.285591750269177285e-06,3.755759003365099303e-06
2.915873015873015728e+00,8.584923173134043020e-07,4.791887219004309843e-06
2.916666666666666519e+00,1.155949472093526534e-07,9.728846795889275700e-06
2.917460317460317309e+00,-6.537572932873148194e-07,1.754836548670788993e-05
2.918253968253968100e+00,-1.203957112129664963e-06,2.669413570911147862e-05
2.919047619047618891e+00,-1.354024496063303220e-06,3.529126658336177453e-05
2.919841269841269682e+00,-9.949083229135331939e-07,4.145410196591667377e-05
2.920634920634920473e+00,-9.314909784452389371e-08,4.364342315284404518e-05
2.921428571428571264e+00,1.302867105918369479e-06,4.099896513976204488e-05
2.922222222222222054e+00,3.055678379447951944e-06,3.355478806862606034e-05
2.923015873015872845e+00,4.939326030001478136e-06,2.226077411000982120e-05
2.923809523809523636e+00,6.658968853800867632e-06,8.783740046864506462e-06
2.924603174603174427e+00,7.896958764571195685e-06,-4.870977230903457434e-06
2.925396825396825218e+00,8.383368957087835631e-06,-1.681694977427156576e-05
2.926190476190476009e+00,7.976470295907194436e-06,-2.569263665606026921e-05
2.926984126984126799e+00,6.728126787815153890e-06,-3.089860119871591350e-05
2.927777777777777590e+00,4.906343717908599553e-06,-3.260416844566099243e-05
2.928571428571428381e+00,2.955288500309737609e-06,-3.153982610487983325e-05
2.929365079365079172e+00,1.390709489933094555e-06,-2.866005184371083275e-05
2.930158730158729963e+00,6.512944991868565986e-07,-2.479349782092362507e-05
2.930952380952380754e+00,9.470124894937297713e-07,-2.038647276938087871e-05
2.931746031746031544e+00,2.154517799604990485e-06,-1.540237874661783165e-05
2.932539682539682335e+00,3.800364759596140335e-06,-9.386018427928312998e-06
2.933333333333333126e+00,5.147488551510316098e-06,-1.661654338790337505e-06
2.934126984126983917e+00,5.370054322555875273e-06,8.380255642083678247e-06
2.934920634920634708e+00,3.776293772338730189e-06,2.095134310277466618e-05
2.935714285714285499e+00,2.237617984736093973e-08,3.554076492966408614e-05
2.936507936507936289e+00,-5.743935668339171868e-06,5.068071800130357019e-05
2.937301587301587080e+00,-1.285753729133054952e-05,6.391838610557122819e-05
2.938095238095238315e+00,-2.024375997666614453e-05,7.210480344145292085e-05
2.938888888888889106e+00,-2.663514227457172012e-05,7.203521105432875540e-05
2.939682539682539897e+00,-3.084101652511854534e-05,6.133876618498279685e-05
2.940476190476190688e+00,-3.200219584800771580e-05,3.937162258009481799e-05
2.941269841269841478e+00,-2.977180652026960303e-05,7.792512436704010736e-06
2.942063492063492269e+00,-2.438443317145956026e-05,-2.944848293364670628e-05
2.942857142857143060e+00,-1.660188299327767673e-05,-6.679982206658843520e-05
2.943650793650793851e+00,-7.551658463441868119e-06,-9.833224793447398334e-05
2.944444444444444642e+00,1.500648991634574664e-06,-1.191542415759249860e-04
2.945238095238095433e+00,9.389280245608440132e-06,-1.265978751081179633e-04
2.946031746031746223e+00,1.524272781711098099e-05,-1.208205671795448247e-04
2.946825396825397014e+00,1.859809091048825110e-05,-1.046537379461384297e-04
2.947619047619047805e+00,1.942438934214719525e-05,-8.276224695769362528e-05
2.948412698412698596e+00,1.806816610393018494e-05,-6.037267928305521723e-05
2.949206349206349387e+00,1.514879729061729880e-05,-4.192630020277192745e-05
2.950000000000000178e+00,1.143161932726075006e-05,-3.000580787556618627e-05
2.950793650793650968e+00,7.699175389403021977e-06,-2.479837317446882333e-05
2.951587301587301759e+00,4.633183980672005313e-06,-2.422112544910844515e-05
2.952380952380952550e+00,2.717709522907077274e-06,-2.467327093066828692e-05
2.953174603174603341e+00,2.176291509504135623e-06,-2.221332913786081472e-05
2.953968253968254132e+00,2.956225891428601391e-06,-1.382549428605152061e-05
2.954761904761904923e+00,4.765915271595438322e-06,1.611077479223220139e-06
2.955555555555555713e+00,7.156617058597198096e-06,2.295771993014248926e-05
2.956349206349206504e+00,9.625846508875901482e-06,4.716164907940232530e-05
2.957142857142857295e+00,1.171510948925661867e-05,7.016142256479390086e-05
2.957936507936508086e+00,1.308148268532542900e-05,8.800876047011785535e-05
2.958730158730158877e+00,1.353471729062482489e-05,9.782421929216337088e-05
2.959523809523809668e+00,1.304167798707242628e-05,9.832713073357999016e-05
2.960317460317460458e+00,1.170537110640007631e-05,8.987938263178701112e-05
2.961111111111111249e+00,9.727908883568265721e-06,7.415183716460410743e-05
2.961904761904762040e+00,7.367058623463756985e-06,5.360365127131267853e-05
2.962698412698412831e+00,4.894599656793420980e-06,3.095711761346917735e-05
2.963492063492063622e+00,2.561398987826135352e-06,8.785995013379483301e-06
2.964285714285714413e+00,5.702951417912143439e-07,-1.074239930080338645e-05
2.965079365079365203e+00,-9.439739825770938640e-07,-2.598912509247877254e-05
2.965873015873015994e+00,-1.927433580283178584e-06,-3.587619103386713098e-05
2.966666666666666785e+00,-2.409652851485139550e-06,-3.987862372794073583e-05
2.967460317460317576e+00,-2.494222070131626374e-06,-3.800641678595830707e-05
2.968253968253968367e+00,-2.337447731502811342e-06,-3.078182132705582091e-05
2.969047619047619158e+00,-2.119304448250484391e-06,-1.920414332680700419e-05
2.969841269841269948e+00,-2.012382691560111963e-06,-4.694385324090101458e-06
2.970634920634920739e+00,-2.154255888816778976e-06,1.099021371904509914e-05
2.971428571428571530e+00,-2.627376752840858060e-06,2.589273663929772605e-05
2.972222222222222321e+00,-3.449021422459598727e-06,3.806607286669578177e-05
2.973015873015873112e+00,-4.572268203845500875e-06,4.584794814664994129e-05
2.973809523809523903e+00,-5.897584383848330467e-06,4.814703023048221220e-05
2.974603174603174693e+00,-7.292918470179415516e-06,4.465829159968015766e-05
2.975396825396825484e+00,-8.618068242614549838e-06,3.594053413400076020e-05
2.976190476190476275e+00,-9.747516519801419113e-06,2.333136334074305577e-05
2.976984126984127066e+00,-1.058655756077486637e-05,8.716739751805990604e-06
2.977777777777777857e+00,-1.107858352963855779e-05,-5.799265970210226498e-06
2.978571428571428648e+00,-1.120466512506021226e-05,-1.826163621592818333e-05
2.979365079365079438e+00,-1.097758605628928967e-05,-2.719701825633247819e-05
2.980158730158730229e+00,-1.043145921815900679e-05,-3.184248641961172680e-05
2.980952380952381020e+00,-9.607606291493028426e-06,-3.221940346188346803e-05
2.981746031746031811e+00,-8.539407194046692246e-06,-2.903862375180933360e-05
2.982539682539682602e+00,-7.242017507135551903e-06,-2.347067800165565660e-05
2.983333333333333393e+00,-5.713764092886638527e-06,-1.685130250971281424e-05
2.984126984126984183e+00,-3.952241524232515945e-06,-1.040171215202467906e-05
2.984920634920634974e+00,-1.980433412093571090e-06,-5.024443643670216240e-06
2.985714285714285765e+00,1.294132908110646348e-07,-1.203598898734021418e-06
2.986507936507936556e+00,2.248504757710034627e-06,9.912155520610198460e-07
2.987301587301587347e+00,4.208608094448629054e-06,1.817402492861073466e-06
2.988095238095238138e+00,5.839093602271315671e-06,1.719725777795746626e-06
2.988888888888888928e+00,7.009128925610911656e-06,1.176421045835793959e-06
2.989682539682539719e+00,7.657892804431673962e-06,5.688308426068392081e-07
2.990476190476190510e+00,7.801423183319179265e-06,1.020364529726786380e-07
2.991269841269841301e+00,7.514644071426689783e-06,-2.132768994079687493e-07
2.992063492063492092e+00,6.896957802721437675e-06,-5.235515110087299731e-07
2.992857142857142883e+00,6.036031386199673225e-06,-1.055776479483358327e-06
2.993650793650793673e+00,4.984589239528994231e-06,-2.023405195519543618e-06
2.994444444444444464e+00,3.759190285547215215e-06,-3.539677883219228319e-06
2.995238095238095255e+00,2.361082092000823298e-06,-5.561769791042023901e-06
2.996031746031746046e+00,8.110290191854145248e-07,-7.879676831963117588e-06
2.996825396825396837e+00,-8.152755367303654201e-07,-1.014779649780203597e-05
2.997619047619047628e+00,-2.366210430747120152e-06,-1.194328512295060188e-05
2.998412698412698418e+00,-3.619883192371896034e-06,-1.283268389737553068e-05
2.999206349206349209e+00,-4.320977270180924259e-06,-1.243807205033054234e-05
3.000000000000000000e+00,-4.241980479088826884e-06,-1.050617936967289008e-05
3.000793650793650791e+00,-3.251247057707271047e-06,-6.985001588504990325e-06
3.001587301587301582e+00,-1.365488845110700191e-06,-2.098235717572821649e-06
3.002380952380952372e+00,1.231891026562918897e-06,3.611427658537548298e-06
3.003174603174603163e+00,4.214232955232495757e-06,9.306823561675301048e-06
3.003968253968253954e+00,7.171025089930753145e-06,1.397206077850296419e-05
3.004761904761904745e+00,9.686838877117008755e-06,1.661285589669366059e-05
3.005555555555555536e+00,1.141874555324590130e-05,1.650088218037359659e-05
3.006349206349206327e+00,1.215311369519643961e-05,1.339675318148543341e-05
3.007142857142857117e+00,1.182995165553062537e-05,7.679417056559996081e-06
3.007936507936507908e+00,1.053348933896235998e-05,3.260573673445468778e-07
3.008730158730158699e+00,8.458410750067640256e-06,-7.273852458670236052e-06
3.009523809523809490e+00,5.867767583646540037e-06,-1.363337571492998752e-05
3.010317460317460281e+00,3.057498323159548721e-06,-1.752705503508353600e-05
3.011111111111111072e+00,3.336223098351853953e-07,-1.828855124770288528e-05
3.011904761904761862e+00,-2.003730054863546219e-06,-1.595999035522073799e-05
3.012698412698412653e+00,-3.682824205343948474e-06,-1.125606065299473569e-05
3.013492063492063444e+00,-4.500039605363458129e-06,-5.363358856729075997e-06
3.014285714285714235e+00,-4.374637211468031440e-06,3.631896029106040377e-07
3.015079365079365026e+00,-3.400507660044571015e-06,4.727678352575220813e-06
3.015873015873015817e+00,-1.867900620318729038e-06,6.966717398012677907e-06
3.016666666666666607e+00,-2.328689220140466920e-07,6.906476454237991902e-06
3.017460317460317398e+00,9.703357785149672622e-07,4.968595884967649652e-06
3.018253968253968189e+00,1.256218032851029371e-06,2.029230025686660763e-06
3.019047619047618980e+00,3.192522515583879048e-07,-8.243370043758472258e-07
3.019841269841269771e+00,-1.870721498563816463e-06,-2.568714280717985140e-06
3.020634920634920562e+00,-5.039535249056028746e-06,-2.478416593443260186e-06
3.021428571428571352e+00,-8.656735143094690404e-06,-2.677578486583660850e-07
3.022222222222222143e+00,-1.204844650844161022e-05,3.877050838380493421e-06
3.023015873015872934e+00,-1.454517219873809290e-05,9.361783890666269863e-06
3.023809523809523725e+00,-1.562651618280015630e-05,1.531035311697610357e-05
3.024603174603174516e+00,-1.502759185801646444e-05,2.071584265236489847e-05
3.025396825396825307e+00,-1.278433813536666076e-05,2.459031987852225020e-05
3.026190476190476097e+00,-9.213172082342648009e-06,2.610354092445972527e-05
3.026984126984126888e+00,-4.837761623492074362e-06,2.470721795392171474e-05
3.027777777777777679e+00,-2.856928802558847135e-07,2.023296612311420727e-05
3.028571428571428470e+00,3.821701946803612603e-06,1.294060376312135486e-05
3.029365079365079261e+00,6.968506077837068648e-06,3.497005980639356377e-06
3.030158730158730052e+00,8.820364021691228971e-06,-7.113308946124331932e-06
3.030952380952380842e+00,9.269352989214940718e-06,-1.772258454077256073e-05
3.031746031746031633e+00,8.442010090474062943e-06,-2.713036523199461073e-05
3.032539682539682424e+00,6.668389516150066342e-06,-3.425367637983805559e-05
3.033333333333333215e+00,4.415066123324982315e-06,-3.827357988759689584e-05
3.034126984126984006e+00,2.191829219527681336e-06,-3.876936229561684782e-05
3.034920634920634797e+00,4.493231298426263353e-07,-3.580919038619385258e-05
3.035714285714285587e+00,-5.105468395698207661e-07,-2.995345523299622323e-05
3.036507936507936378e+00,-5.916664617395619135e-07,-2.214745176158118737e-05
3.037301587301587169e+00,8.376859393715020511e-08,-1.352466217230862987e-05
3.038095238095237960e+00,1.210070876036093222e-06,-5.178488076235641177e-06
3.038888888888888751e+00,2.374539908472319352e-06,2.032981947805271793e-06
3.039682539682539542e+00,3.160828653183173785e-06,7.603637457602231279e-06
3.040476190476190332e+00,3.254955502016834264e-06,1.140100375847032104e-05
3.041269841269841123e+00,2.524749206814177099e-06,1.360391801659121843e-05
3.042063492063491914e+00,1.048811304418795904e-06,1.458722543752567682e-05
3.042857142857142705e+00,-9.128903114023449716e-07,1.479396530577967686e-05
3.043650793650793496e+00,-2.994712486986581703e-06,1.463349181237236426e-05
3.044444444444444287e+00,-4.820941127068927816e-06,1.443079258988752290e-05
3.045238095238095077e+00,-6.092033685056255247e-06,1.443007089813343417e-05
3.046031746031745868e+00,-6.639748645228031747e-06,1.483108776378771179e-05
3.046825396825396659e+00,-6.442322413445193758e-06,1.582097348561347131e-05
3.047619047619047450e+00,-5.603614428242221192e-06,1.756688142428679673e-05
3.048412698412698241e+00,-4.308860760021619149e-06,2.015645154196693843e-05
3.049206349206349032e+00,-2.773059255869324182e-06,2.350297071810285011e-05
3.049999999999999822e+00,-1.196585603183905975e-06,2.725537530842308170e-05
3.050793650793650613e+00,2.625606738730324608e-07,3.075986860206238849e-05
3.051587301587301404e+00,1.497652053642664123e-06,3.310857838703342619e-05
3.052380952380952195e+00,2.447320796761641335e-06,3.328573556848530321e-05
3.053174603174602986e+00,3.082063731993352740e-06,3.038998370162449754e-05
3.053968253968253777e+00,3.390375360667936465e-06,2.388119967341365460e-05
3.054761904761904567e+00,3.369813388834711773e-06,1.378246904311178739e-05
3.055555555555555358e+00,3.025706716467601473e-06,7.724890214085978937e-07
3.056349206349206149e+00,2.377424893258928103e-06,-1.386776809835626854e-05
3.057142857142856940e+00,1.469283027281257297e-06,-2.844875376081110120e-05
3.057936507936507731e+00,3.809201315345850430e-07,-4.116351637642703585e-05
3.058730158730158522e+00,-7.685200154688913970e-07,-5.041102247237892021e-05
3.059523809523809312e+00,-1.826580983558428660e-06,-5.508023867748468533e-05
3.060317460317460103e+00,-2.625599677960725837e-06,-5.473274613907314474e-05
3.061111111111110894e+00,-3.011160474015466449e-06,-4.964708331610232948e-05
3.061904761904761685e+00,-2.875836710216361469e-06,-4.072644572514931750e-05
3.062698412698412920e+00,-2.189976487686954032e-06,-2.930881939119520913e-05
3.063492063492063711e+00,-1.019960531145955903e-06,-1.693727151502523960e-05
3.064285714285714501e+00,4.739068269515335862e-07,-5.140411848692212838e-06
3.065079365079365292e+00,2.062723735007197219e-06,4.752219261880540186e-06
3.065873015873016083e+00,3.493254677213406452e-06,1.175885401163147949e-05
3.066666666666666874e+00,4.540343795678423534e-06,1.536319911378781030e-05
3.067460317460317665e+00,5.054033778327898041e-06,1.559193077015637348e-05
3.068253968253968456e+00,4.990210148805849420e-06,1.302306659382740564e-05
3.069047619047619246e+00,4.418693657779338823e-06,8.692100585764609094e-06
3.069841269841270037e+00,3.507641279520070622e-06,3.886491133111492296e-06
3.070634920634920828e+00,2.486841719313301276e-06,-1.365031010740529512e-07
3.071428571428571619e+00,1.596183683462153097e-06,-2.433275327247673735e-06
3.072222222222222410e+00,1.030095840478480908e-06,-2.572691937690459995e-06
3.073015873015873201e+00,8.922730006971457146e-07,-6.913495829550510612e-07
3.073809523809523991e+00,1.173966878538184009e-06,2.603740278465555086e-06
3.074603174603174782e+00,1.762124514593801881e-06,6.445187958191059586e-06
3.075396825396825573e+00,2.473649936104215338e-06,9.958451954618654673e-06
3.076190476190476364e+00,3.104025108289874022e-06,1.248458617750852472e-05
3.076984126984127155e+00,3.475535426726320994e-06,1.371682144816636022e-05
3.077777777777777946e+00,3.472415415985788066e-06,1.372611073638749274e-05
3.078571428571428736e+00,3.055799263857309581e-06,1.288332465979978688e-05
3.079365079365079527e+00,2.258475227722855464e-06,1.171114236322604940e-05
3.080158730158730318e+00,1.165800868311481009e-06,1.071211224433749377e-05
3.080952380952381109e+00,-1.075248499384968220e-07,1.021996227337327157e-05
3.081746031746031900e+00,-1.435952435428164179e-06,1.031087460312697799e-05
3.082539682539682691e+00,-2.692333022539170536e-06,1.079369974674417035e-05
3.083333333333333481e+00,-3.749270213105613243e-06,1.127733544857868132e-05
3.084126984126984272e+00,-4.478394560409421779e-06,1.129424774992037382e-05
3.084920634920635063e+00,-4.754361986081769724e-06,1.044529920999933430e-05
3.085714285714285854e+00,-4.467724352354212076e-06,8.525271632199728613e-06
3.086507936507936645e+00,-3.546261485202408031e-06,5.592575066265540181e-06
3.087301587301587436e+00,-1.980052817323757327e-06,1.961882635183068826e-06
3.088095238095238226e+00,1.570149082254469946e-07,-1.877787174031260916e-06
3.088888888888889017e+00,2.696814596180081496e-06,-5.393630401447806807e-06
3.089682539682539808e+00,5.383116120758596988e-06,-8.149383017198223470e-06
3.090476190476190599e+00,7.896289974035901015e-06,-9.916890856944441469e-06
3.091269841269841390e+00,9.894218021443889423e-06,-1.072952046534282086e-05
3.092063492063492181e+00,1.106241693853471622e-05,-1.086102335246746464e-05
3.092857142857142971e+00,1.116305640992157741e-05,-1.072972722873750231e-05
3.093650793650793762e+00,1.007277826863495187e-05,-1.074823932883881186e-05
3.094444444444444553e+00,7.803500322615532933e-06,-1.115991819193814923e-05
3.095238095238095344e+00,4.506078634831275741e-06,-1.191625849213460575e-05
3.096031746031746135e+00,4.595474670410250669e-07,-1.264478534071918456e-05
3.096825396825396925e+00,-3.953462940543519188e-06,-1.273296374826822833e-05
3.097619047619047716e+00,-8.288503242365074627e-06,-1.151688133282538898e-05
3.098412698412698507e+00,-1.210085417779309702e-05,-8.525880217850629128e-06
3.099206349206349298e+00,-1.502053184298338377e-05,-3.708244238575519592e-06
3.100000000000000089e+00,-1.682234115255428825e-05,2.441923942376589258e-06
3.100793650793650880e+00,-1.746685205146623597e-05,8.916388777810372655e-06
3.101587301587301670e+00,-1.709447293948211142e-05,1.439979275044391041e-05
3.102380952380952461e+00,-1.597083012725453188e-05,1.761101925666328524e-05
3.103174603174603252e+00,-1.440018779017044904e-05,1.768158108156187816e-05
3.103968253968254043e+00,-1.263659884465418038e-05,1.444280773598233441e-05
3.104761904761904834e+00,-1.082374674504127663e-05,8.510466862495860233e-06
3.105555555555555625e+00,-8.982868939616224182e-06,1.123334286006739812e-06
3.106349206349206415e+00,-7.049016271576921788e-06,-6.214605924857541732e-06
3.107142857142857206e+00,-4.937946521632360350e-06,-1.216321095116989987e-05
3.107936507936507997e+00,-2.616380140124837421e-06,-1.589773743646168814e-05
3.108730158730158788e+00,-1.497466037275939563e-07,-1.726945507495652877e-05
3.109523809523809579e+00,2.288396831496309237e-06,-1.673673252057727032e-05
3.110317460317460370e+00,4.447611583171445158e-06,-1.510983898050282851e-05
3.111111111111111160e+00,6.062781618523293378e-06,-1.321126066823568870e-05
3.111904761904761951e+00,6.929539919760640630e-06,-1.157128424434316067e-05
3.112698412698412742e+00,6.972175167701685639e-06,-1.025526015246702873e-05
3.113492063492063533e+00,6.285602615224945977e-06,-8.868742777723604106e-06
3.114285714285714324e+00,5.139659937653467221e-06,-6.730587164208469216e-06
3.115079365079365115e+00,3.942474037615059102e-06,-3.157759758972715693e-06
3.115873015873015905e+00,3.167309763026319105e-06,2.224349098171701671e-06
3.116666666666666696e+00,3.253171178217537005e-06,9.242863973133047404e-06
3.117460317460317487e+00,4.494394393758500217e-06,1.709359798381210565e-05
3.118253968253968278e+00,6.939839395626956740e-06,2.445826590202116764e-05
3.119047619047619069e+00,1.032741720945866290e-05,2.980957927332070244e-05
3.119841269841269860e+00,1.408080170664359763e-05,3.182573837072208217e-05
3.120634920634920650e+00,1.738686271629474734e-05,2.978772499207166775e-05
3.121428571428571441e+00,1.935196854748356677e-05,2.382671616772130612e-05
3.122222222222222232e+00,1.920774171249960336e-05,1.493499645045380445e-05
3.123015873015873023e+00,1.651443627529457201e-05,4.734967641920516675e-06
3.123809523809523814e+00,1.130476382668680695e-05,-4.919561024923710125e-06
3.124603174603174605e+00,4.125180978345763235e-06,-1.238977526375185619e-05
3.125396825396825395e+00,-4.041789589883206576e-06,-1.662296590263589739e-05
3.126190476190476186e+00,-1.196072188030593248e-05,-1.735525633762617333e-05
3.126984126984126977e+00,-1.839169698074258116e-05,-1.510220222442116557e-05
3.127777777777777768e+00,-2.234584010541457657e-05,-1.095301769240714694e-05
3.128571428571428559e+00,-2.328610439959044728e-05,-6.241499134305672075e-06
3.129365079365079350e+00,-2.122406412072438096e-05,-2.200811570989300180e-06
3.130158730158730140e+00,-1.669044533574237792e-05,2.973029304455422250e-07
3.130952380952380931e+00,-1.059154419118906881e-05,8.621781964428636350e-07
3.131746031746031722e+00,-3.994567005582847080e-06,-4.357620301283527927e-07
3.132539682539682513e+00,2.098503472178301917e-06,-3.177101076861472450e-06
3.133333333333333304e+00,6.931821976127468668e-06,-6.734798490094426925e-06
3.134126984126984095e+00,1.009486598459407076e-05,-1.039994970749925408e-05
3.134920634920634885e+00,1.153243526725111312e-05,-1.348052233924930866e-05
3.135714285714285676e+00,1.148404163105980604e-05,-1.538390747443166748e-05
3.136507936507936467e+00,1.038442970809737473e-05,-1.569201958176781890e-05
3.137301587301587258e+00,8.755288859524638001e-06,-1.422135990099462307e-05
3.138095238095238049e+00,7.107721583198191932e-06,-1.105013032339313030e-05
3.138888888888888840e+00,5.863945611586745072e-06,-6.500172344880056734e-06
3.139682539682539630e+00,5.300066697456549151e-06,-1.076832512807832469e-06
3.140476190476190421e+00,5.510373790556921416e-06,4.617203112675977064e-06
3.141269841269841212e+00,6.395351890302286971e-06,9.973316271277231473e-06
3.142063492063492003e+00,7.676995533475039089e-06,1.445518576883520174e-05
3.142857142857142794e+00,8.943278204805759274e-06,1.765243817515670772e-05
3.143650793650793585e+00,9.718635989234115254e-06,1.930782704473811413e-05
3.144444444444444375e+00,9.551268247930567385e-06,1.932394750244371007e-05
3.145238095238095166e+00,8.103426395871981801e-06,1.775671892928894170e-05
3.146031746031745957e+00,5.228830356566126565e-06,1.479731798617326863e-05
3.146825396825396748e+00,1.021967679853552437e-06,1.073949667724512028e-05
3.147619047619047539e+00,-4.172638754923261095e-06,5.933744353274917138e-06
3.148412698412698330e+00,-9.796544574625781426e-06,7.429011539854001884e-07
3.149206349206349120e+00,-1.515492861415977941e-05,-4.476381454632796179e-06
3.149999999999999911e+00,-1.952251204412030401e-05,-9.350014122747730651e-06
3.150793650793650702e+00,-2.225919966331916752e-05,-1.343336299484398131e-05
3.151587301587301493e+00,-2.291501243627601478e-05,-1.617501848024986566e-05
3.152380952380952284e+00,-2.130455686469291226e-05,-1.695457067993976389e-05
3.153174603174603075e+00,-1.753562941563215674e-05,-1.522192161566542152e-05
3.153968253968253865e+00,-1.198707392818715727e-05,-1.070595513053210455e-05
3.154761904761904656e+00,-5.245331520176274737e-06,-3.606424824022750616e-06
3.155555555555555447e+00,1.980526215572173133e-06,5.326770873906439692e-06
3.156349206349206238e+00,8.945005899592275319e-06,1.487651462565401256e-05
3.157142857142857029e+00,1.494119150737613937e-05,2.357910082459260768e-05
3.157936507936507819e+00,1.936161785389829592e-05,3.000411386807970868e-05
3.158730158730158610e+00,2.174796148893284420e-05,3.301037578544130889e-05
3.159523809523809401e+00,2.183337487874145852e-05,3.192846029117270686e-05
3.160317460317460192e+00,1.957810078546233387e-05,2.665747878086504070e-05
3.161111111111110983e+00,1.519313228432616620e-05,1.768016201136945892e-05
3.161904761904761774e+00,9.141326743710126340e-06,5.998919361404787408e-06
3.162698412698412564e+00,2.105513090385307080e-06,-7.005763070174188077e-06
3.163492063492063355e+00,-5.079334953437914196e-06,-1.978314761343050553e-05
3.164285714285714146e+00,-1.152272528535985427e-05,-3.085390223613149971e-05
3.165079365079364937e+00,-1.639146838722922605e-05,-3.903144725081681890e-05
3.165873015873015728e+00,-1.902643843286546283e-05,-4.356461321111506285e-05
3.166666666666666519e+00,-1.905192716345021329e-05,-4.417043856676677757e-05
3.167460317460317309e+00,-1.646332079763024878e-05,-4.097320670938805950e-05
3.168253968253968100e+00,-1.167367147012476349e-05,-3.439979918354626575e-05
3.169047619047618891e+00,-5.497751927831775245e-06,-2.508048380876688369e-05
3.169841269841269682e+00,9.420200723920619155e-07,-1.377992353009554066e-05
3.170634920634920473e+00,6.388556503915307608e-06,-1.360811638647755350e-06
3.171428571428571264e+00,9.681510661220292939e-06,1.122974816027979238e-05
3.172222222222222054e+00,1.000497059391803324e-05,2.297177882477625770e-05
3.173015873015872845e+00,7.094433907505541945e-06,3.281225219423616050e-05
3.173809523809523636e+00,1.344610312485875186e-06,3.975822713722617686e-05
3.174603174603174427e+00,-6.224563975025605760e-06,4.302149325171053345e-05
3.175396825396825218e+00,-1.415380185375088683e-05,4.217905341641065546e-05
3.176190476190476009e+00,-2.084976975650305184e-05,3.729362805957884885e-05
3.176984126984126799e+00,-2.493770912903523200e-05,2.894120206626234947e-05
3.177777777777777590e+00,-2.556868571111340927e-05,1.811735887772247778e-05
3.178571428571428381e+00,-2.259818471944857854e-05,6.036015590598108080e-06
3.179365079365079172e+00,-1.658972211702028669e-05,-6.118251469683026582e-06
3.180158730158729963e+00,-8.647238838556586666e-06,-1.739228244216325369e-05
3.180952380952380754e+00,-1.264389551380872620e-07,-2.713944986111294259e-05
3.181746031746031544e+00,7.693996880209103695e-06,-3.494529409539744744e-05
3.182539682539682335e+00,1.389160259995512358e-05,-4.046215262264394046e-05
3.183333333333333126e+00,1.805569956719198552e-05,-4.326543984741857172e-05
3.184126984126983917e+00,2.028318931757938000e-05,-4.283484299820385262e-05
3.184920634920634708e+00,2.102864479603106833e-05,-3.869630808971623158e-05
3.185714285714285499e+00,2.086906874313345219e-05,-3.067589364507533194e-05
3.186507936507936289e+00,2.026917320188304406e-05,-1.915595181469687515e-05
3.187301587301587080e+00,1.942757670200736888e-05,-5.209121976454727853e-06
3.188095238095238315e+00,1.824960573517018405e-05,9.480056209833268610e-06
3.188888888888889106e+00,1.644286713869268126e-05,2.292243220679174737e-05
3.189682539682539897e+00,1.368842070846588955e-05,3.328848613925344970e-05
3.190476190476190688e+00,9.819346646956109788e-06,3.938788827065250873e-05
3.191269841269841478e+00,4.943587591823771697e-06,4.100124007589368364e-05
3.192063492063492269e+00,-5.273184782652424622e-07,3.894124678674246170e-05
3.192857142857143060e+00,-5.948234477218489278e-06,3.481350192735941003e-05
3.193650793650793851e+00,-1.058232233138268620e-05,3.055643632926226190e-05
3.194444444444444642e+00,-1.376910398616265560e-05,2.791342914489779829e-05
3.195238095238095433e+00,-1.507172945101837410e-05,2.799154638314665678e-05
3.196031746031746223e+00,-1.436973447049075451e-05,3.100150304996881080e-05
3.196825396825397014e+00,-1.188210385723249703e-05,3.620029745807070646e-05
3.197619047619047805e+00,-8.121232616917038529e-06,4.201422293300698980e-05
3.198412698412698596e+00,-3.789527538558530179e-06,4.631234425596698098e-05
3.199206349206349387e+00,3.602806405870079537e-07,4.680559484594124528e-05
3.200000000000000178e+00,3.671505609425476758e-06,4.153710094546176625e-05
3.200793650793650968e+00,5.703437665883898405e-06,2.939628716624183671e-05
3.201587301587301759e+00,6.298222660637129435e-06,1.054718950105553606e-05
3.202380952380952550e+00,5.583731665539561248e-06,-1.336373994268204607e-05
3.203174603174603341e+00,3.919551648003015084e-06,-3.933905823482840151e-05
3.203968253968254132e+00,1.806261558822705383e-06,-6.354703571450990164e-05
3.204761904761904923e+00,-2.177721699942882789e-07,-8.214552709672007865e-05
3.205555555555555713e+00,-1.671760729128293920e-06,-9.220326344152357154e-05
3.206349206349206504e+00,-2.207288085145152121e-06,-9.244165362168132007e-05
3.207142857142857295e+00,-1.656815126552446095e-06,-8.356391171463638983e-05
3.207936507936508086e+00,-5.454681402291374233e-08,-6.807215484942631277e-05
3.208730158730158877e+00,2.369938952333902732e-06,-4.963018584895776211e-05
3.209523809523809668e+00,5.224278587119262704e-06,-3.215095839516095755e-05
3.210317460317460458e+00,8.009455675519997308e-06,-1.884913934039013624e-05
3.211111111111111249e+00,1.019335952538950146e-05,-1.150213732377616628e-05
3.211904761904762040e+00,1.129200608521715002e-05,-1.011339913669556552e-05
3.212698412698412831e+00,1.094703737733139394e-05,-1.307058042405275743e-05
3.213492063492063622e+00,8.988894624257218928e-06,-1.774770524307898412e-05
3.214285714285714413e+00,5.476600522051651426e-06,-2.135376026574165842e-05
3.215079365079365203e+00,7.062824892849826715e-07,-2.174501393894952194e-05
3.215873015873015994e+00,-4.816998822841060481e-06,-1.794573241337654482e-05
3.216666666666666785e+00,-1.044370476610021690e-05,-1.025393740162843050e-05
3.217460317460317576e+00,-1.547204583233745758e-05,2.690100892850962850e-08
3.218253968253968367e+00,-1.925302233885510736e-05,1.107673990878776658e-05
3.219047619047619158e+00,-2.129086423688621247e-05,2.108758998722545615e-05
3.219841269841269948e+00,-2.132229081574014184e-05,2.868681027155597297e-05
3.220634920634920739e+00,-1.936075451984323916e-05,3.317172009884165114e-05
3.221428571428571530e+00,-1.569617011086593190e-05,3.453692635978854284e-05
3.222222222222222321e+00,-1.084690457588367436e-05,3.333260831774123047e-05
3.223015873015873112e+00,-5.469155289230303172e-06,3.043127743908707194e-05
3.223809523809523903e+00,-2.386947123235986889e-07,2.679123062054194178e-05
3.224603174603174693e+00,4.270765359267176280e-06,2.328207908544938282e-05
3.225396825396825484e+00,7.683745837414134689e-06,2.059176381399117155e-05
3.226190476190476275e+00,9.869171765233673792e-06,1.918990182521998210e-05
3.226984126984127066e+00,1.092559234006453862e-05,1.930316757375995384e-05
3.227777777777777857e+00,1.111257920800549310e-05,2.087234301808368010e-05
3.228571428571428648e+00,1.075104996874966233e-05,2.349558638622166804e-05
3.229365079365079438e+00,1.012299896722624045e-05,2.639646473371161641e-05
3.230158730158730229e+00,9.399021923536437969e-06,2.846966464253159851e-05
3.230952380952381020e+00,8.611933878653254621e-06,2.844379135357951683e-05
3.231746031746031811e+00,7.680836637346493258e-06,2.516232847892029009e-05
3.232539682539682602e+00,6.475909498118039603e-06,1.793409057989735748e-05
3.233333333333333393e+00,4.902173418253810220e-06,6.864101611329254494e-06
3.234126984126984183e+00,2.973069873131460197e-06,-6.938287624845077277e-06
3.234920634920634974e+00,8.459961753664195974e-07,-2.136408326297118150e-05
3.235714285714285765e+00,-1.195723551865019513e-06,-3.358093033657026042e-05
3.236507936507936556e+00,-2.810293694261758387e-06,-4.058881211901907231e-05
