Timestamp,Flexor carpi radialis,Extensor digitorum
2.000000000000000000e+00,-3.374498940395777853e-06,2.962618468755946296e-05
2.000793650793650791e+00,-3.487675076390076763e-06,3.313182538100637202e-05
2.001587301587301582e+00,-3.859675196092561107e-06,3.188147487634344343e-05
2.002380952380952372e+00,-4.455504055898743401e-06,2.578697602183650255e-05
2.003174603174603163e+00,-5.225336482716648068e-06,1.560836055894716389e-05
2.003968253968253954e+00,-6.101910616728430913e-06,2.860927607306114197e-06
2.004761904761904745e+00,-6.995958141773642736e-06,-1.045216372368136037e-05
2.005555555555555536e+00,-7.795671230346171135e-06,-2.223372159343069775e-05
2.006349206349206327e+00,-8.373630321877947055e-06,-3.071994264399943302e-05
2.007142857142857117e+00,-8.601960144737426275e-06,-3.483051511647703780e-05
2.007936507936507908e+00,-8.374526373528924522e-06,-3.435041531955193090e-05
2.008730158730158699e+00,-7.632551365661670016e-06,-2.990355191252419854e-05
2.009523809523809490e+00,-6.386419411121903039e-06,-2.273910967437413599e-05
2.010317460317460281e+00,-4.724193469725013130e-06,-1.439906316537094624e-05
2.011111111111111072e+00,-2.800404024116859307e-06,-6.357919616049534217e-06
2.011904761904761862e+00,-8.069468486657753716e-07,2.774089888767396390e-07
2.012698412698412653e+00,1.063975383379926103e-06,4.943604210894764321e-06
2.013492063492063444e+00,2.652583060661219100e-06,7.645427580925817374e-06
2.014285714285714235e+00,3.851632064166396184e-06,8.840367574503212530e-06
2.015079365079365026e+00,4.612152598352577323e-06,9.226972019284444842e-06
2.015873015873015817e+00,4.937952707462950577e-06,9.498688589961905233e-06
2.016666666666666607e+00,4.873618334607083793e-06,1.012729645534279589e-05
2.017460317460317398e+00,4.490095988910816921e-06,1.122830254859646626e-05
2.018253968253968189e+00,3.871156263735956163e-06,1.254028900173501225e-05
2.019047619047618980e+00,3.103989955654833904e-06,1.352451072781270727e-05
2.019841269841269771e+00,2.276583471330755155e-06,1.356014547672332992e-05
2.020634920634920562e+00,1.481526891430348592e-06,1.217847309788657465e-05
2.021428571428571352e+00,8.210685393296231630e-07,9.258900830695698049e-06
2.022222222222222143e+00,4.051624154738791818e-07,5.115762259899719879e-06
2.023015873015872934e+00,3.366690447617822933e-07,4.406268752794757569e-07
2.023809523809523725e+00,6.855158161416239384e-07,-3.882058308065319394e-06
2.024603174603174516e+00,1.461537237123316542e-06,-7.020512131916236404e-06
2.025396825396825307e+00,2.598261859951152772e-06,-8.416075214165374569e-06
2.026190476190476097e+00,3.955790647130771668e-06,-7.906995248785482852e-06
2.026984126984126888e+00,5.343682976388910359e-06,-5.725228103564227098e-06
2.027777777777777679e+00,6.558500995755430021e-06,-2.383840224368519215e-06
2.028571428571428470e+00,7.426395432108182314e-06,1.491936853555673966e-06
2.029365079365079261e+00,7.838520412981397288e-06,5.324640903210643177e-06
2.030158730158730052e+00,7.767767295536712297e-06,8.682765677295808485e-06
2.030952380952380842e+00,7.261537989626448107e-06,1.129593656081790368e-05
2.031746031746031633e+00,6.415454483896685999e-06,1.300338644144526588e-05
2.032539682539682424e+00,5.341132426613762703e-06,1.368050008275995607e-05
2.033333333333333215e+00,4.141920854423744903e-06,1.319592425527195829e-05
2.034126984126984006e+00,2.903500074252126851e-06,1.143477146962864237e-05
2.034920634920634797e+00,1.696772887206083126e-06,8.387373371213457823e-06
2.035714285714285587e+00,5.850628055642572281e-07,4.263207895233979780e-06
2.036507936507936378e+00,-3.717012633176092464e-07,-4.338359838679749492e-07
2.037301587301587169e+00,-1.119394923929623462e-06,-4.925513454278564143e-06
2.038095238095237960e+00,-1.618872667226164285e-06,-8.294471335969893220e-06
2.038888888888888751e+00,-1.859433170717051909e-06,-9.705415587747999730e-06
2.039682539682539542e+00,-1.871597611887086085e-06,-8.645711719279402209e-06
2.040476190476190332e+00,-1.732873481821013160e-06,-5.110138485945218625e-06
2.041269841269841123e+00,-1.561497942456808414e-06,3.267296084769153585e-07
2.042063492063491914e+00,-1.496791016834209534e-06,6.574559772020856378e-06
2.042857142857142705e+00,-1.668971853394779922e-06,1.221989315618423628e-05
2.043650793650793496e+00,-2.164793152229076828e-06,1.581477789664158007e-05
2.044444444444444287e+00,-2.997435505608026751e-06,1.620963390886039443e-05
2.045238095238095077e+00,-4.089276717287801569e-06,1.286181861550986610e-05
2.046031746031745868e+00,-5.274327153932580922e-06,6.040348968001295294e-06
2.046825396825396659e+00,-6.323571374748623421e-06,-3.146841734490253429e-06
2.047619047619047450e+00,-6.991384483644774427e-06,-1.294316707229853930e-05
2.048412698412698241e+00,-7.075016515649372625e-06,-2.133103847943442787e-05
2.049206349206349032e+00,-6.473238250392780790e-06,-2.652859910293607805e-05
2.049999999999999822e+00,-5.226932292279089438e-06,-2.746073987182780343e-05
2.050793650793650613e+00,-3.526010552911149050e-06,-2.406701065295066089e-05
2.051587301587301404e+00,-1.674831110115315938e-06,-1.735132564802455471e-05
2.052380952380952195e+00,-2.126228116336057314e-08,-9.149354174497655587e-06
2.053174603174602986e+00,1.131778615889350018e-06,-1.667964632846783902e-06
2.053968253968253777e+00,1.605661161918541132e-06,3.083462080546322995e-06
2.054761904761904567e+00,1.392031481427744363e-06,3.815800343602536923e-06
2.055555555555555358e+00,6.529071818295692779e-07,2.920488353373582216e-07
2.056349206349206149e+00,-3.224471596966840133e-07,-6.623213479428850075e-06
2.057142857142856940e+00,-1.189023436940625071e-06,-1.520377444920629231e-05
2.057936507936507731e+00,-1.625788347259588428e-06,-2.331028996802731709e-05
2.058730158730158522e+00,-1.404858776765374579e-06,-2.890919589706410765e-05
2.059523809523809312e+00,-4.370081177101439714e-07,-3.051902114161829919e-05
2.060317460317460103e+00,1.212683878240157997e-06,-2.748355577443347127e-05
2.061111111111110894e+00,3.339010238279783244e-06,-2.003445834425279855e-05
2.061904761904761685e+00,5.635861486604025925e-06,-9.162745725193896130e-06
2.062698412698412920e+00,7.752324801576650662e-06,3.643580473414686938e-06
2.063492063492063711e+00,9.355156813621611812e-06,1.672009055320003207e-05
2.064285714285714501e+00,1.018575422144536888e-05,2.852632995144039769e-05
2.065079365079365292e+00,1.010002614486085466e-05,3.785976220584983879e-05
2.065873015873016083e+00,9.082925171705649421e-06,4.394563786705922803e-05
2.066666666666666874e+00,7.236239048513030537e-06,4.640865025053759210e-05
2.067460317460317665e+00,4.746384249199085700e-06,4.517726226353754518e-05
2.068253968253968456e+00,1.844530989958866656e-06,4.039609020301943552e-05
2.069047619047619246e+00,-1.228320282205067571e-06,3.240809063423209921e-05
2.069841269841270037e+00,-4.243617838836091853e-06,2.181818672411503838e-05
2.070634920634920828e+00,-6.994588370880970034e-06,9.588651224688072262e-06
2.071428571428571619e+00,-9.298133956981146113e-06,-2.920830745976413086e-06
2.072222222222222410e+00,-1.099615151775024678e-05,-1.404688645965146769e-05
2.073015873015873201e+00,-1.196043291735854963e-05,-2.207701160784936821e-05
2.073809523809523991e+00,-1.210197924584499702e-05,-2.562101823833447836e-05
2.074603174603174782e+00,-1.138430269654642184e-05,-2.399554701007395541e-05
2.075396825396825573e+00,-9.839968477298574582e-06,-1.749456332594870572e-05
2.076190476190476364e+00,-7.587180954718685554e-06,-7.442270045485393456e-06
2.076984126984127155e+00,-4.838606885833854832e-06,4.013694595387040041e-06
2.077777777777777946e+00,-1.892086709200885322e-06,1.433396600731979341e-05
2.078571428571428736e+00,9.036869069466485356e-07,2.114302367320687896e-05
2.079365079365079527e+00,3.206822535851468914e-06,2.277253973377083482e-05
2.080158730158730318e+00,4.751892747685669182e-06,1.866026106202114647e-05
2.080952380952381109e+00,5.413284538876579086e-06,9.508177606633535066e-06
2.081746031746031900e+00,5.241525430407715760e-06,-2.842536115849438657e-06
2.082539682539682691e+00,4.455962695241331626e-06,-1.580257125589155440e-05
2.083333333333333481e+00,3.389118029818485343e-06,-2.661453035012125793e-05
2.084126984126984272e+00,2.395656052462618927e-06,-3.299284872276512127e-05
2.084920634920635063e+00,1.754818827690893984e-06,-3.366526772031529447e-05
2.085714285714285854e+00,1.600023953542240102e-06,-2.866907436650393130e-05
2.086507936507936645e+00,1.898612385286277074e-06,-1.931541451009389623e-05
2.087301587301587436e+00,2.483768413857856254e-06,-7.830053111540643827e-06
2.088095238095238226e+00,3.121460546284287043e-06,3.226026557374008027e-06
2.088888888888889017e+00,3.587100305882349219e-06,1.159573283637837629e-05
2.089682539682539808e+00,3.729633720458701978e-06,1.586095782875510972e-05
2.090476190476190599e+00,3.509106163471770682e-06,1.574853232404613959e-05
2.091269841269841390e+00,3.002362078471456970e-06,1.214082110576378960e-05
2.092063492063492181e+00,2.378665607589392263e-06,6.790131885928088862e-06
2.092857142857142971e+00,1.852219340817174069e-06,1.801763735284386764e-06
2.093650793650793762e+00,1.621865328323021623e-06,-9.909078566670232277e-07
2.094444444444444553e+00,1.810659168962212899e-06,-5.962411229815043951e-07
2.095238095238095344e+00,2.419984145695399328e-06,2.789910641850982789e-06
2.096031746031746135e+00,3.312534569785185123e-06,7.789309073770225156e-06
2.096825396825396925e+00,4.233294298717926542e-06,1.223113882912199965e-05
2.097619047619047716e+00,4.867667069081435309e-06,1.383774124457637775e-05
2.098412698412698507e+00,4.924207870128092738e-06,1.100825781099755681e-05
2.099206349206349298e+00,4.219843419848704018e-06,3.449664975533553553e-06
2.100000000000000089e+00,2.741735077148893590e-06,-7.568231814526851334e-06
2.100793650793650880e+00,6.647792789385466805e-07,-1.945403898843269829e-05
2.101587301587301670e+00,-1.683153461516699722e-06,-2.899826464377658480e-05
2.102380952380952461e+00,-3.899368926060771680e-06,-3.334342268246605687e-05
2.103174603174603252e+00,-5.605267668774231699e-06,-3.091399985026367972e-05
2.103968253968254043e+00,-6.537770345024125832e-06,-2.199242831297650862e-05
2.104761904761904834e+00,-6.608827502027372046e-06,-8.737875789284558145e-06
2.105555555555555625e+00,-5.919408624447670858e-06,5.370926113140227013e-06
2.106349206349206415e+00,-4.727274384937406147e-06,1.650490082886407883e-05
2.107142857142857206e+00,-3.378613088261911245e-06,2.158189749002651636e-05
2.107936507936507997e+00,-2.220925216597498503e-06,1.917610162869580587e-05
2.108730158730158788e+00,-1.518562042193147768e-06,9.978999970357857211e-06
2.109523809523809579e+00,-1.392160652515893863e-06,-3.323204242160947418e-06
2.110317460317460370e+00,-1.797386106687318889e-06,-1.672842286257040546e-05
2.111111111111111160e+00,-2.547618145320920070e-06,-2.597268750327066052e-05
2.111904761904761951e+00,-3.373120521700338861e-06,-2.767626486289670153e-05
2.112698412698412742e+00,-4.000078363257665312e-06,-2.027596359126774297e-05
2.113492063492063533e+00,-4.229051793524476686e-06,-4.499987739721795527e-06
2.114285714285714324e+00,-3.993430975239075032e-06,1.673015492894548053e-05
2.115079365079365115e+00,-3.382569354968244235e-06,3.893441103090948709e-05
2.115873015873015905e+00,-2.620884073547266192e-06,5.708071551519891144e-05
2.116666666666666696e+00,-2.004480797397360671e-06,6.672197116235595142e-05
2.117460317460317487e+00,-1.810154750215942386e-06,6.500499490334344223e-05
2.118253968253968278e+00,-2.202858685281587700e-06,5.133090372723186147e-05
2.119047619047619069e+00,-3.170424151203122954e-06,2.752957377055739613e-05
2.119841269841269860e+00,-4.506566816267310136e-06,-2.479917228447041957e-06
2.120634920634920650e+00,-5.849213054916686126e-06,-3.346390949485741147e-05
2.121428571428571441e+00,-6.766616392622504735e-06,-5.992469201702061598e-05
2.122222222222222232e+00,-6.871203385961614756e-06,-7.721972430999261958e-05
2.123015873015873023e+00,-5.931552260900761231e-06,-8.251970462709293426e-05
2.123809523809523814e+00,-3.949477681578746992e-06,-7.538661993044692858e-05
2.124603174603174605e+00,-1.176180460108311918e-06,-5.782167222064548854e-05
2.125396825396825395e+00,1.940854351043518884e-06,-3.376265198429040842e-05
2.126190476190476186e+00,4.866295930604791430e-06,-8.159549349358375986e-06
2.126984126984126977e+00,7.109619400733057616e-06,1.413452562948000727e-05
2.127777777777777768e+00,8.345159592264715702e-06,2.938878419249155608e-05
2.128571428571428559e+00,8.488318775259297676e-06,3.570990091329327362e-05
2.129365079365079350e+00,7.709024385405429837e-06,3.330868066130249509e-05
2.130158730158730140e+00,6.379179886164635188e-06,2.428955155321732773e-05
2.130952380952380931e+00,4.968138126373876473e-06,1.204289504096167223e-05
2.131746031746031722e+00,3.915661210364967174e-06,4.056507397367674324e-07
2.132539682539682513e+00,3.518869358542316137e-06,-7.202753702134568834e-06
2.133333333333333304e+00,3.863677143069533515e-06,-8.475286076233930891e-06
2.134126984126984095e+00,4.814970057362754324e-06,-2.612863972898487837e-06
2.134920634920634885e+00,6.061740850885138923e-06,9.618015066664131730e-06
2.135714285714285676e+00,7.200433897862391512e-06,2.612048301729933864e-05
2.136507936507936467e+00,7.833533349596269902e-06,4.390409452121971383e-05
2.137301587301587258e+00,7.660015420386816191e-06,5.962754313509479811e-05
2.138095238095238049e+00,6.538804664654833500e-06,7.016855848551504626e-05
2.138888888888888840e+00,4.514792299391591456e-06,7.315584052683484666e-05
2.139682539682539630e+00,1.806762907449619723e-06,6.739852212873931325e-05
2.140476190476190421e+00,-1.235993014135860028e-06,5.314401859238218238e-05
2.141269841269841212e+00,-4.198774448418719718e-06,3.210047593467424724e-05
2.142063492063492003e+00,-6.678690807284159549e-06,7.187946705124522894e-06
2.142857142857142794e+00,-8.363296577709933687e-06,-1.796429801994849798e-05
2.143650793650793585e+00,-9.096309727475074389e-06,-3.968973431931063171e-05
2.144444444444444375e+00,-8.913176678297813347e-06,-5.498469459545788626e-05
2.145238095238095166e+00,-8.031581268635553091e-06,-6.207626813572027181e-05
2.146031746031745957e+00,-6.791749505995163793e-06,-6.072728982567243689e-05
2.146825396825396748e+00,-5.557019387043665004e-06,-5.221386305654623607e-05
2.147619047619047539e+00,-4.601206091341243588e-06,-3.898883981669305565e-05
2.148412698412698330e+00,-4.018318441914738417e-06,-2.411553788099827147e-05
2.149206349206349120e+00,-3.686923333734187462e-06,-1.060816410963503803e-05
2.149999999999999911e+00,-3.305986230486673376e-06,-8.353968347337276059e-07
2.150793650793650702e+00,-2.496167708338540105e-06,3.881013358933757422e-06
2.151587301587301493e+00,-9.378825837866009358e-07,3.404473083746697294e-06
2.152380952380952284e+00,1.497030379877796341e-06,-1.334666365468806447e-06
2.153174603174603075e+00,4.663972721397105335e-06,-8.651294436765136095e-06
2.153968253968253865e+00,8.144900811538802971e-06,-1.652341727722198949e-05
2.154761904761904656e+00,1.133420843806043173e-05,-2.302465609361351511e-05
2.155555555555555447e+00,1.358922827144873011e-05,-2.669158973078224613e-05
2.156349206349206238e+00,1.440173398582106931e-05,-2.676666362851850580e-05
2.157142857142857029e+00,1.353940258973517493e-05,-2.328353688614232875e-05
2.157936507936507819e+00,1.111550814709590842e-05,-1.699078514586874222e-05
2.158730158730158610e+00,7.567997195084494389e-06,-9.139243117771503141e-06
2.159523809523809401e+00,3.558013371436617507e-06,-1.182194252337297829e-06
2.160317460317460192e+00,-1.782400160776503608e-07,5.550419414059061654e-06
2.161111111111110983e+00,-2.982045777883614108e-06,1.014191662290876364e-05
2.161904761904761774e+00,-4.395664601353997862e-06,1.228491932483984260e-05
2.162698412698412564e+00,-4.240088081353407271e-06,1.233307430746494125e-05
2.163492063492063355e+00,-2.643276282583157093e-06,1.117916458468220786e-05
2.164285714285714146e+00,-1.964546527664472016e-08,9.973103961256430473e-06
2.165079365079364937e+00,2.997920453245797628e-06,9.748745444292089608e-06
2.165873015873015728e+00,5.669170763179369182e-06,1.107149814932723653e-05
2.166666666666666519e+00,7.288087328360102853e-06,1.382504183110633355e-05
2.167460317460317309e+00,7.331614087104491036e-06,1.721707034265887058e-05
2.168253968253968100e+00,5.584234833816562927e-06,2.001296427629034434e-05
2.169047619047618891e+00,2.206742457263631955e-06,2.092829916233502116e-05
2.169841269841269682e+00,-2.273574632188585126e-06,1.905574480194539860e-05
2.170634920634920473e+00,-7.057327200020265005e-06,1.419001584205460838e-05
2.171428571428571264e+00,-1.123657928788689946e-05,6.948483651738976672e-06
2.172222222222222054e+00,-1.399126765640618424e-05,-1.349299740872052873e-06
2.173015873015872845e+00,-1.476944455065607999e-05,-9.004483638761082902e-06
2.173809523809523636e+00,-1.340476521937280049e-05,-1.436426022198571370e-05
2.174603174603174427e+00,-1.014336789338710978e-05,-1.622391678273406575e-05
2.175396825396825218e+00,-5.579859573261300695e-06,-1.409853940523697133e-05
2.176190476190476009e+00,-5.266778769323708547e-07,-8.309262705620088182e-06
2.176984126984126799e+00,4.146368855721410351e-06,1.123366721067344860e-07
2.177777777777777590e+00,7.666662845099433634e-06,9.657271222482767127e-06
2.178571428571428381e+00,9.481434028470435912e-06,1.864956383903368728e-05
2.179365079365079172e+00,9.333999336694144390e-06,2.557379924218616032e-05
2.180158730158729963e+00,7.288204779497418006e-06,2.936219131493108181e-05
2.180952380952380754e+00,3.702462469397500953e-06,2.958722795306944177e-05
2.181746031746031544e+00,-8.389048131837734496e-07,2.651808735580837037e-05
2.182539682539682335e+00,-5.623237895064796896e-06,2.102476528706408379e-05
2.183333333333333126e+00,-9.919084581214220885e-06,1.434888925414333930e-05
2.184126984126983917e+00,-1.308256807412320256e-05,7.793235876364328668e-06
2.184920634920634708e+00,-1.465016132798525426e-05,2.402420549957472459e-06
2.185714285714285499e+00,-1.441040235592664165e-05,-1.288446572510675084e-06
2.186507936507936289e+00,-1.244607031538724498e-05,-3.370786980075855374e-06
2.187301587301587080e+00,-9.135912064668137673e-06,-4.505780570579476998e-06
2.188095238095238315e+00,-5.105822457021762746e-06,-5.699581047806945412e-06
2.188888888888889106e+00,-1.126587175481173902e-06,-7.969437964465671137e-06
2.189682539682539897e+00,2.031113560196447247e-06,-1.199808982029386990e-05
2.190476190476190688e+00,3.757644025439860993e-06,-1.787997320739514407e-05
2.191269841269841478e+00,3.743319648718622255e-06,-2.503480014458414621e-05
2.192063492063492269e+00,2.058042993822375000e-06,-3.231242543255567133e-05
2.192857142857143060e+00,-8.521833631598377326e-07,-3.825461527671983526e-05
2.193650793650793851e+00,-4.255642969487638435e-06,-4.143388111036417601e-05
2.194444444444444642e+00,-7.295525346885080085e-06,-4.077382737821827615e-05
2.195238095238095433e+00,-9.185876416943039479e-06,-3.577478939561737505e-05
2.196031746031746223e+00,-9.394552969629831448e-06,-2.660985364169353855e-05
2.196825396825397014e+00,-7.763088677573559630e-06,-1.409496043286849187e-05
2.197619047619047805e+00,-4.529661144139312029e-06,4.442229677103381940e-07
2.198412698412698596e+00,-2.524085268735108481e-07,1.538265003369788529e-05
2.199206349206349387e+00,4.337805119241087426e-06,2.905225880066975670e-05
2.200000000000000178e+00,8.508063831373365870e-06,3.999590314367097997e-05
2.200793650793650968e+00,1.167122443774941555e-05,4.715356390497670334e-05
2.201587301587301759e+00,1.347922461912182461e-05,4.992594780208425392e-05
2.202380952380952550e+00,1.385044873886393969e-05,4.811087725139123793e-05
2.203174603174603341e+00,1.293907364099316435e-05,4.177620291413398972e-05
2.203968253968254132e+00,1.106751771677937684e-05,3.117349488305664782e-05
2.204761904761904923e+00,8.646161518563772285e-06,1.677337336732944145e-05
2.205555555555555713e+00,6.098075160918339358e-06,-5.801602768287137127e-07
2.206349206349206504e+00,3.797100958649348919e-06,-1.949533841488182667e-05
2.207142857142857295e+00,2.022282090842749222e-06,-3.798374208625369209e-05
2.207936507936508086e+00,9.313602309152176540e-07,-5.364454736246024460e-05
2.208730158730158877e+00,5.561584088692618121e-07,-6.408615057051952240e-05
2.209523809523809668e+00,8.190059199405955638e-07,-6.747870423356555321e-05
2.210317460317460458e+00,1.563581733887239764e-06,-6.306604685774565224e-05
2.211111111111111249e+00,2.590659938935951685e-06,-5.146524332654531692e-05
2.211904761904762040e+00,3.691294761371070391e-06,-3.463921678931235708e-05
2.212698412698412831e+00,4.674317185550115132e-06,-1.552413638815763327e-05
2.213492063492063622e+00,5.387903717236873129e-06,2.601551184653389945e-06
2.214285714285714413e+00,5.734922315692054384e-06,1.684281035559153424e-05
2.215079365079365203e+00,5.679932905459383941e-06,2.532165618777153240e-05
2.215873015873015994e+00,5.244874354038239619e-06,2.756134535734844476e-05
2.216666666666666785e+00,4.492918406062618461e-06,2.452810447126930530e-05
2.217460317460317576e+00,3.505414181474633238e-06,1.832063721074022512e-05
2.218253968253968367e+00,2.361884112869714965e-06,1.158821624911578711e-05
2.219047619047619158e+00,1.133254312236248591e-06,6.837971601921496682e-06
2.219841269841269948e+00,-1.079622339242484267e-07,5.830347995569637742e-06
2.220634920634920739e+00,-1.267392980964736307e-06,9.230240108179783127e-06
2.221428571428571530e+00,-2.214427855649073153e-06,1.658220462376833995e-05
2.222222222222222321e+00,-2.791453726084964116e-06,2.655676749349592268e-05
2.223015873015873112e+00,-2.855363225017606551e-06,3.733454555468808004e-05
2.223809523809523903e+00,-2.342730618182643524e-06,4.698979294918699778e-05
2.224603174603174693e+00,-1.333349565818124899e-06,5.378783283351237809e-05
2.225396825396825484e+00,-8.033017032429021661e-08,5.637717084322788974e-05
2.226190476190476275e+00,1.016829565866227287e-06,5.390269345805175072e-05
2.226984126984127066e+00,1.499580301545346511e-06,4.608062552976910202e-05
2.227777777777777857e+00,9.776423684762338175e-07,3.326203391469780625e-05
2.228571428571428648e+00,-7.419084460684110181e-07,1.647705666347182890e-05
2.229365079365079438e+00,-3.567174288280562964e-06,-2.587987291209828056e-06
2.230158730158730229e+00,-7.108982436097244739e-06,-2.174658199785025432e-05
2.230952380952381020e+00,-1.075381690677777994e-05,-3.863856073922007661e-05
2.231746031746031811e+00,-1.380457281317250535e-05,-5.119180252335417240e-05
2.232539682539682602e+00,-1.565013173769086265e-05,-5.810098467096787360e-05
2.233333333333333393e+00,-1.591724483486006841e-05,-5.915965961519801359e-05
2.234126984126984183e+00,-1.456443836869560305e-05,-5.530589634752140017e-05
2.234920634920634974e+00,-1.189296576318301661e-05,-4.833460830904932703e-05
2.235714285714285765e+00,-8.469689745004992362e-06,-4.035337832000089435e-05
2.236507936507936556e+00,-4.978674639323594841e-06,-3.315590640935856377e-05
2.237301587301587347e+00,-2.039868715445297779e-06,-2.771517394128811531e-05
2.238095238095238138e+00,-4.816336004155273796e-08,-2.395160501775746623e-05
2.238888888888888928e+00,9.158222241207972995e-07,-2.083841252015664766e-05
2.239682539682539719e+00,1.075600772333213832e-06,-1.680559946791078949e-05
2.240476190476190510e+00,8.585118438990735840e-07,-1.032287174000081174e-05
2.241269841269841301e+00,7.459307931460029908e-07,-4.929985756222399319e-07
2.242063492063492092e+00,1.126090538294701913e-06,1.252003306796687474e-05
2.242857142857142883e+00,2.191558383057919506e-06,2.736259403392908866e-05
2.243650793650793673e+00,3.901819018500088906e-06,4.171472256787243205e-05
2.244444444444444464e+00,6.010294102209631197e-06,5.281868507846214790e-05
2.245238095238095255e+00,8.140785227172394006e-06,5.818153993702165834e-05
2.246031746031746046e+00,9.890273893497443015e-06,5.626756975063869202e-05
2.246825396825396837e+00,1.093082006337326715e-05,4.698417964486310215e-05
2.247619047619047628e+00,1.108364237014551711e-05,3.180261739513049466e-05
2.248412698412698418e+00,1.034638023097692314e-05,1.344878729514357215e-05
2.249206349206349209e+00,8.870018585121893721e-06,-4.765760199373234382e-06
2.250000000000000000e+00,6.899165902720421984e-06,-1.977332967368216097e-05
2.250793650793650791e+00,4.700252787161527982e-06,-2.947728983177271331e-05
2.251587301587301582e+00,2.502162265005451680e-06,-3.315300656255494203e-05
2.252380952380952372e+00,4.642448846443430601e-07,-3.142429930923415878e-05
2.253174603174603163e+00,-1.326307462807283466e-06,-2.587064609103297046e-05
2.253968253968253954e+00,-2.835494105253892094e-06,-1.843573059158620700e-05
2.254761904761904745e+00,-4.053450568127681395e-06,-1.084807195942732895e-05
2.255555555555555536e+00,-4.966585818510141716e-06,-4.229529524511151207e-06
2.256349206349206327e+00,-5.540869613978859606e-06,1.017195012458741491e-06
2.257142857142857117e+00,-5.723703607267802167e-06,5.052091543054147226e-06
2.257936507936507908e+00,-5.466109982221907448e-06,8.270397365559497573e-06
2.258730158730158699e+00,-4.758208855887699070e-06,1.095226323178915547e-05
2.259523809523809490e+00,-3.662882643756888676e-06,1.303183354596300735e-05
2.260317460317460281e+00,-2.330245485661996355e-06,1.406663163091700707e-05
2.261111111111111072e+00,-9.818102941399198202e-07,1.339915542936915175e-05
2.261904761904761862e+00,1.340028764454095877e-07,1.042943968456534875e-05
2.262698412698412653e+00,8.006782691264561571e-07,4.890292603340129425e-06
2.263492063492063444e+00,8.869191252806952368e-07,-2.964149463099306236e-06
2.264285714285714235e+00,3.790648826438928822e-07,-1.230328937265841438e-05
2.265079365079365026e+00,-6.125251069826557083e-07,-2.180284227929178296e-05
2.265873015873015817e+00,-1.869822915937377571e-06,-2.984134206497569066e-05
2.266666666666666607e+00,-3.101125933770254275e-06,-3.477305751222871079e-05
2.267460317460317398e+00,-3.990094861166031184e-06,-3.523621830572991760e-05
2.268253968253968189e+00,-4.257259314042079213e-06,-3.045169570244230710e-05
2.269047619047618980e+00,-3.725436321428647251e-06,-2.045946386286421156e-05
2.269841269841269771e+00,-2.372417625693588083e-06,-6.234523003199897121e-06
2.270634920634920562e+00,-3.514983129977953974e-07,1.036921803320156192e-05
2.271428571428571352e+00,2.033109452491332945e-06,2.687413514793834609e-05
2.272222222222222143e+00,4.395263320523695918e-06,4.061837599968288266e-05
2.273015873015872934e+00,6.364063921333128391e-06,4.930993481492598719e-05
2.273809523809523725e+00,7.681252758263341262e-06,5.157190451920742310e-05
2.274603174603174516e+00,8.267574563530600494e-06,4.732890699710734110e-05
2.275396825396825307e+00,8.234747810039980497e-06,3.790637086494056350e-05
2.276190476190476097e+00,7.837463166469122773e-06,2.578282992011111715e-05
2.276984126984126888e+00,7.381107798576778678e-06,1.402901725005853798e-05
2.277777777777777679e+00,7.116804714142713340e-06,5.558532517147108787e-06
2.278571428571428470e+00,7.159169888055748354e-06,2.377866826470621112e-06
2.279365079365079261e+00,7.452682481842036408e-06,5.038252379642728443e-06
2.280158730158730052e+00,7.794129005132707745e-06,1.244858528210061851e-05
2.280952380952380842e+00,7.899378065786422307e-06,2.211574148103023896e-05
2.281746031746031633e+00,7.490766602096836303e-06,3.076255566596423143e-05
2.282539682539682424e+00,6.379496604218932221e-06,3.516983590235846853e-05
2.283333333333333215e+00,4.522411761975473520e-06,3.302593202066731175e-05
2.284126984126984006e+00,2.039938663824710990e-06,2.355924452638770693e-05
2.284920634920634797e+00,-8.091907104753086107e-07,7.777261065369951552e-06
2.285714285714285587e+00,-3.689694690963535149e-06,-1.176503883737374839e-05
2.286507936507936378e+00,-6.269707085674875676e-06,-3.161216645437744379e-05
2.287301587301587169e+00,-8.294499807899136267e-06,-4.828867304862471591e-05
2.288095238095237960e+00,-9.633462766546949503e-06,-5.915905023661440919e-05
2.288888888888888751e+00,-1.029198445521818799e-05,-6.302295245303445872e-05
2.289682539682539542e+00,-1.039197807326677913e-05,-6.028785526901961507e-05
2.290476190476190332e+00,-1.012981962599999897e-05,-5.269270473270648661e-05
2.291269841269841123e+00,-9.719507704044995093e-06,-4.269248759994867558e-05
2.292063492063491914e+00,-9.329314299275973574e-06,-3.271139273635386731e-05
2.292857142857142705e+00,-9.026303693176354837e-06,-2.449729245952528232e-05
2.293650793650793496e+00,-8.749583358598237381e-06,-1.875655335785809542e-05
2.294444444444444287e+00,-8.329963938474751933e-06,-1.514138858442642231e-05
2.295238095238095077e+00,-7.557094992130109844e-06,-1.254557466054987831e-05
2.296031746031745868e+00,-6.273054800383525151e-06,-9.581312807388405730e-06
2.296825396825396659e+00,-4.457214964786533554e-06,-5.084642536239244160e-06
2.297619047619047450e+00,-2.268826935961239849e-06,1.477636473003905781e-06
2.298412698412698241e+00,-2.893976042646171902e-08,9.780089568613654224e-06
2.299206349206349032e+00,1.856081678808738938e-06,1.863015754880526290e-05
2.299999999999999822e+00,3.008412341986745578e-06,2.619000731865004828e-05
2.300793650793650613e+00,3.196214261778299985e-06,3.040616631962111385e-05
2.301587301587301404e+00,2.416432515422763631e-06,2.957352405885492526e-05
2.302380952380952195e+00,9.112484588326166337e-07,2.290117868458592951e-05
2.303174603174602986e+00,-8.940453560679771772e-07,1.091224673964621640e-05
2.303968253968253777e+00,-2.515192119250562479e-06,-4.469401417985249551e-06
2.304761904761904567e+00,-3.551969369396887660e-06,-2.020995708258634289e-05
2.305555555555555358e+00,-3.797076833174118380e-06,-3.278459868009716546e-05
2.306349206349206149e+00,-3.272404200308266407e-06,-3.897706638868501879e-05
2.307142857142856940e+00,-2.186006738169527289e-06,-3.666339532892515175e-05
2.307936507936507731e+00,-8.351230691484283282e-07,-2.538822785953226939e-05
2.308730158730158522e+00,5.026153255435913006e-07,-6.589276825598949554e-06
2.309523809523809312e+00,1.650258947250108448e-06,1.659775464241205711e-05
2.310317460317460103e+00,2.561536668443636030e-06,3.992665923561380806e-05
2.311111111111110894e+00,3.297234477235862657e-06,5.889744208869504707e-05
2.311904761904761685e+00,3.963936901448004400e-06,6.968716709601470373e-05
2.312698412698412920e+00,4.642556531785657997e-06,6.993789480640967766e-05
2.313492063492063711e+00,5.335599714327454276e-06,5.922332103438273098e-05
2.314285714285714501e+00,5.953655029415624334e-06,3.910125834937482894e-05
2.315079365079365292e+00,6.345989524876801500e-06,1.276129559967028589e-05
2.315873015873016083e+00,6.362607157611130347e-06,-1.563409140235505831e-05
2.316666666666666874e+00,5.922613199234769551e-06,-4.175891359305906251e-05
2.317460317460317665e+00,5.062052014393816099e-06,-6.190676367301296953e-05
2.318253968253968456e+00,3.943864359538660057e-06,-7.358794503427496837e-05
2.319047619047619246e+00,2.827545040489961065e-06,-7.583374460190674777e-05
2.319841269841270037e+00,2.009099585267892421e-06,-6.917992322072246889e-05
2.320634920634920828e+00,1.748391634758590213e-06,-5.538446748778766106e-05
2.321428571428571619e+00,2.200790860956307449e-06,-3.699116201932390664e-05
2.322222222222222410e+00,3.366391214835471550e-06,-1.685899907137731123e-05
2.323015873015873201e+00,5.066231842650965971e-06,2.257771667425857711e-06
2.323809523809523991e+00,6.951803059532107221e-06,1.804472567685850746e-05
2.324603174603174782e+00,8.550903231550272538e-06,2.887759937047092016e-05
2.325396825396825573e+00,9.348382986482121885e-06,3.399178499330446308e-05
2.326190476190476364e+00,8.893076997043026648e-06,3.355771534330239926e-05
2.326984126984127155e+00,6.912625828525507486e-06,2.863470997562328233e-05
2.327777777777777946e+00,3.409562866518711661e-06,2.098361954332616570e-05
2.328571428571428736e+00,-1.290200171489436638e-06,1.274846579724642509e-05
2.329365079365079527e+00,-6.558557274926178857e-06,6.054650877478165585e-06
2.330158730158730318e+00,-1.156244587087416277e-05,2.600395222558079037e-06
2.330952380952381109e+00,-1.542286593836382952e-05,3.328720652283479852e-06
2.331746031746031900e+00,-1.740255229959459840e-05,8.254286381814165044e-06
2.332539682539682691e+00,-1.707822471168539766e-05,1.648346958975330402e-05
2.333333333333333481e+00,-1.445330545670064920e-05,2.641754957378803970e-05
2.334126984126984272e+00,-9.978273430855843151e-06,3.608534985001172389e-05
2.334920634920635063e+00,-4.466633859714970178e-06,4.352846621085206273e-05
2.335714285714285854e+00,1.079360051675768204e-06,4.716317160747839933e-05
2.336507936507936645e+00,5.693374667221723680e-06,4.606005002618348881e-05
2.337301587301587436e+00,8.662006541887060486e-06,4.010245119781123316e-05
2.338095238095238226e+00,9.673840717615015192e-06,3.000117198963462412e-05
2.338888888888889017e+00,8.859335046520322495e-06,1.715970911129624207e-05
2.339682539682539808e+00,6.716004669255601981e-06,3.409665800070444100e-06
2.340476190476190599e+00,3.950346722469825433e-06,-9.331969337761916109e-06
2.341269841269841390e+00,1.289428168762219112e-06,-1.940602859653448644e-05
2.342063492063492181e+00,-6.858756701690892838e-07,-2.567439326205624606e-05
2.342857142857142971e+00,-1.651063317440765642e-06,-2.765188906438218003e-05
2.343650793650793762e+00,-1.577203092437966334e-06,-2.550565712979954684e-05
2.344444444444444553e+00,-7.001131692085127190e-07,-1.996205689665928235e-05
2.345238095238095344e+00,5.692960334133862822e-07,-1.216767194591515787e-05
2.346031746031746135e+00,1.772777089131571744e-06,-3.526898759182469857e-06
2.346825396825396925e+00,2.539014392664357447e-06,4.485725443563872546e-06
2.347619047619047716e+00,2.685288869494220967e-06,1.053880209817723444e-05
2.348412698412698507e+00,2.252019945751540177e-06,1.365832187920359582e-05
2.349206349206349298e+00,1.457317896761871534e-06,1.339498580714699616e-05
2.350000000000000089e+00,5.906735267233262339e-07,9.896926080239123975e-06
2.350793650793650880e+00,-1.092455224808613163e-07,3.864532555249948041e-06
2.351587301587301670e+00,-5.427424210801164481e-07,-3.601558641898926168e-06
2.352380952380952461e+00,-7.714564246863670486e-07,-1.121836439848843970e-05
2.353174603174603252e+00,-9.737164904022478861e-07,-1.774844787328499831e-05
2.353968253968254043e+00,-1.358309173225787970e-06,-2.218900492126095310e-05
2.354761904761904834e+00,-2.073868992762577751e-06,-2.389953782913939150e-05
2.355555555555555625e+00,-3.146858070423636371e-06,-2.267296434982117787e-05
2.356349206349206415e+00,-4.466467903899474942e-06,-1.876332455697442853e-05
2.357142857142857206e+00,-5.816695970433254102e-06,-1.286986835483946004e-05
2.357936507936507997e+00,-6.940423876031476033e-06,-6.061011212365892489e-06
2.358730158730158788e+00,-7.612332446797354582e-06,3.757521608966659148e-07
2.359523809523809579e+00,-7.698494298403315086e-06,5.146053455919213693e-06
2.360317460317460370e+00,-7.187857804444574631e-06,7.179055064445985775e-06
2.361111111111111160e+00,-6.190174354431452722e-06,5.817832835996127062e-06
2.361904761904761951e+00,-4.903066793066935763e-06,9.264083549213105965e-07
2.362698412698412742e+00,-3.556792266154514145e-06,-7.094451784666321872e-06
2.363492063492063533e+00,-2.349201652653803506e-06,-1.735687138886222170e-05
2.364285714285714324e+00,-1.386273031744422603e-06,-2.856561675409412414e-05
2.365079365079365115e+00,-6.451477385535424137e-07,-3.911454191731766612e-05
2.365873015873015905e+00,2.530346504060817330e-08,-4.722223994862316852e-05
2.366666666666666696e+00,8.591845839149826150e-07,-5.114626094303558607e-05
2.367460317460317487e+00,2.090014270074195206e-06,-4.949116353276681386e-05
2.368253968253968278e+00,3.850946792648288696e-06,-4.156995956366394768e-05
2.369047619047619069e+00,6.092008464320267890e-06,-2.772290766310306411e-05
2.369841269841269860e+00,8.548213472685582023e-06,-9.471924103805460336e-06
2.370634920634920650e+00,1.077936900402911790e-05,1.059195204157009846e-05
2.371428571428571441e+00,1.227840370289551301e-05,2.922584945078012433e-05
2.372222222222222232e+00,1.261878786086290105e-05,4.319882950713979777e-05
2.373015873015873023e+00,1.159371692765379821e-05,5.004787365677478358e-05
2.373809523809523814e+00,9.298337675817359646e-06,4.871548686540320782e-05
2.374603174603174605e+00,6.123679006468444577e-06,3.987004631740594779e-05
2.375396825396825395e+00,2.661441330102801260e-06,2.579332523180616929e-05
2.376190476190476186e+00,-4.499980394977637949e-07,9.850330851667487954e-06
2.376984126984126977e+00,-2.689339012766893342e-06,-4.311313320322965778e-06
2.377777777777777768e+00,-3.777306315433349639e-06,-1.360422189309290154e-05
2.378571428571428559e+00,-3.730426362579940184e-06,-1.616098518220356211e-05
2.379365079365079350e+00,-2.834165035313042429e-06,-1.166368899072259693e-05
2.380158730158730140e+00,-1.548206331053403994e-06,-1.306784732428736968e-06
2.380952380952380931e+00,-3.744188175950104008e-07,1.254651600094183254e-05
2.381746031746031722e+00,2.725183809265774482e-07,2.689796570869087429e-05
2.382539682539682513e+00,1.550632040673109182e-07,3.871030941887674458e-05
2.383333333333333304e+00,-7.573058513107418526e-07,4.545964820305897693e-05
2.384126984126984095e+00,-2.316201139340300520e-06,4.557243544905535725e-05
2.384920634920634885e+00,-4.259354359580023986e-06,3.870185334268629566e-05
2.385714285714285676e+00,-6.284372941822487963e-06,2.580943130357034912e-05
2.386507936507936467e+00,-8.108870986395434771e-06,9.023437573773977736e-06
2.387301587301587258e+00,-9.507322419673359557e-06,-8.734716377481896525e-06
2.388095238095238049e+00,-1.032641536506701690e-05,-2.431822836076983512e-05
2.388888888888888840e+00,-1.048601582193582377e-05,-3.501440029354505620e-05
2.389682539682539630e+00,-9.972358427195355954e-06,-3.914253891968834078e-05
2.390476190476190421e+00,-8.827346322218409418e-06,-3.643256760478218555e-05
2.391269841269841212e+00,-7.136216450046117264e-06,-2.807596695300670689e-05
2.392063492063492003e+00,-5.015912557410707891e-06,-1.642395385221179349e-05
2.392857142857142794e+00,-2.606270096290871413e-06,-4.399805321060608519e-06
2.393650793650793585e+00,-6.346364225369971186e-08,5.228023921787192208e-06
2.394444444444444375e+00,2.448767974504930990e-06,1.051950913125085645e-05
2.395238095238095166e+00,4.775383847949232139e-06,1.079836069111492082e-05
2.396031746031745957e+00,6.793922738550808986e-06,6.729557551017380037e-06
2.396825396825396748e+00,8.438153977877074001e-06,2.684300343619209191e-08
2.397619047619047539e+00,9.709081685248862814e-06,-7.107990350798421200e-06
2.398412698412698330e+00,1.066378207341754654e-05,-1.263273830534490220e-05
2.399206349206349120e+00,1.138227055336380284e-05,-1.520265934285520199e-05
2.399999999999999911e+00,1.192399398293042088e-05,-1.445186394829909385e-05
2.400793650793650702e+00,1.229162144974454065e-05,-1.096120357539619725e-05
2.401587301587301493e+00,1.241686599614145828e-05,-5.950985771891842279e-06
2.402380952380952284e+00,1.217348827112653562e-05,-8.127545560595602649e-07
2.403174603174603075e+00,1.141216423147272753e-05,3.363316625556697697e-06
2.403968253968253865e+00,1.000544069330678948e-05,6.110936621033436603e-06
2.404761904761904656e+00,7.890298545265358258e-06,7.658441666055475967e-06
2.405555555555555447e+00,5.099084553499568381e-06,8.738465593897696825e-06
2.406349206349206238e+00,1.773344209613828674e-06,1.022387339408357283e-05
2.407142857142857029e+00,-1.842323058583986149e-06,1.273468951464392895e-05
2.407936507936507819e+00,-5.426909506165594143e-06,1.635461915374684377e-05
2.408730158730158610e+00,-8.627028961726158879e-06,2.053777674373404990e-05
2.409523809523809401e+00,-1.111043596896685210e-05,2.421590428377483871e-05
2.410317460317460192e+00,-1.261771923722008259e-05,2.606938038695865031e-05
2.411111111111110983e+00,-1.300201086593330930e-05,2.490346050234408740e-05
2.411904761904761774e+00,-1.225235958455823593e-05,2.004951608602968275e-05
2.412698412698412564e+00,-1.050203721541024304e-05,1.168019240145077935e-05
2.413492063492063355e+00,-8.023261958291905529e-06,9.166610703328258943e-07
2.414285714285714146e+00,-5.205512202612935458e-06,-1.034926787313771060e-05
2.415079365079364937e+00,-2.512313886247226725e-06,-1.990096343641636884e-05
2.415873015873015728e+00,-4.156159176307883185e-07,-2.579318888809153731e-05
2.416666666666666519e+00,6.848782894878045964e-07,-2.691793323163010969e-05
2.417460317460317309e+00,5.434401173479456784e-07,-2.335451069330609855e-05
2.418253968253968100e+00,-8.653155713244269031e-07,-1.637722816822515765e-05
2.419047619047618891e+00,-3.311312306697374425e-06,-8.101298038091426750e-06
2.419841269841269682e+00,-6.318834002643843145e-06,-8.679250403476448448e-07
2.420634920634920473e+00,-9.230298131582446593e-06,3.439661138095517923e-06
2.421428571428571264e+00,-1.132360533771050783e-05,3.928136342105557709e-06
2.422222222222222054e+00,-1.196734939568019488e-05,9.004285745705484617e-07
2.423015873015872845e+00,-1.077991552394357733e-05,-4.323119005976037302e-06
2.423809523809523636e+00,-7.746090940137619139e-06,-9.890519230982276248e-06
2.424603174603174427e+00,-3.248530045733620679e-06,-1.402863361482415882e-05
2.425396825396825218e+00,2.005489926838978713e-06,-1.556718726770619623e-05
2.426190476190476009e+00,7.147672316107626689e-06,-1.421520190347666492e-05
2.426984126984126799e+00,1.135837145847887513e-05,-1.052824747570676324e-05
2.427777777777777590e+00,1.406254974365285251e-05,-5.611242481208929992e-06
2.428571428571428381e+00,1.505423846268768295e-05,-6.812440438932610732e-07
2.429365079365079172e+00,1.451123392897674706e-05,3.349724807274143247e-06
2.430158730158729963e+00,1.289626982716699976e-05,6.126539936577597424e-06
2.430952380952380754e+00,1.078081048879637033e-05,7.854001488461322938e-06
2.431746031746031544e+00,8.656921178138796965e-06,9.060873786715290023e-06
2.432539682539682335e+00,6.806809555436039674e-06,1.023229927422554705e-05
2.433333333333333126e+00,5.273885481604490757e-06,1.148111539742011386e-05
2.434126984126983917e+00,3.933752911221602773e-06,1.241945578110003190e-05
2.434920634920634708e+00,2.620926718167453659e-06,1.230214748659369981e-05
2.435714285714285499e+00,1.248878078203768294e-06,1.038459452177282142e-05
2.436507936507936289e+00,-1.267575634800132856e-07,6.338837787554371359e-06
2.437301587301587080e+00,-1.320825636873222519e-06,5.474004206545312432e-07
2.438095238095238315e+00,-2.093687451423077996e-06,-5.857275632668601573e-06
2.438888888888889106e+00,-2.253900426910774919e-06,-1.124992649881275421e-05
2.439682539682539897e+00,-1.748356780500404393e-06,-1.400634585413413079e-05
2.440476190476190688e+00,-7.085560678644161415e-07,-1.308472594197992673e-05
2.441269841269841478e+00,5.609312753113945639e-07,-8.492925896766440679e-06
2.442063492063492269e+00,1.647097359480001634e-06,-1.450212577611719457e-06
2.442857142857143060e+00,2.126928441749164706e-06,5.862456017579869648e-06
2.443650793650793851e+00,1.672119913184675386e-06,1.092376760678789135e-05
2.444444444444444642e+00,1.316717724193640629e-07,1.167224862768032937e-05
2.445238095238095433e+00,-2.428709383861844145e-06,7.205482290456299832e-06
2.446031746031746223e+00,-5.737063854486894920e-06,-1.873889109601027637e-06
2.446825396825397014e+00,-9.366278431314672539e-06,-1.358482373458809567e-05
2.447619047619047805e+00,-1.280704255651276849e-05,-2.511082746127085041e-05
2.448412698412698596e+00,-1.554430501821761184e-05,-3.356244975334996125e-05
2.449206349206349387e+00,-1.712619383924688111e-05,-3.671177267829938291e-05
2.450000000000000178e+00,-1.722194934001945133e-05,-3.349589998056269342e-05
2.450793650793650968e+00,-1.566820550641182788e-05,-2.418922388868457101e-05
2.451587301587301759e+00,-1.250013707897870253e-05,-1.025438331330213533e-05
2.452380952380952550e+00,-7.959464288190201071e-06,6.037758898193384194e-06
2.453174603174603341e+00,-2.471092022072812656e-06,2.209427574444799874e-05
2.453968253968254132e+00,3.413169085609698312e-06,3.547774648479715251e-05
2.454761904761904923e+00,9.095318512273632512e-06,4.429821987655556994e-05
2.455555555555555713e+00,1.401979437452748567e-05,4.748130547260007720e-05
2.456349206349206504e+00,1.775010010988666982e-05,4.489478902951289023e-05
2.457142857142857295e+00,2.001597332733671486e-05,3.732167226046551343e-05
2.457936507936508086e+00,2.072294704503708365e-05,2.627759781764784532e-05
2.458730158730158877e+00,1.992970507530997408e-05,1.369895638526814026e-05
2.459523809523809668e+00,1.780900777659171977e-05,1.566157096859847011e-06
2.460317460317460458e+00,1.460889479001053535e-05,-8.448698524623493583e-06
2.461111111111111249e+00,1.062333291232694917e-05,-1.522692962174373436e-05
2.461904761904762040e+00,6.172284431134092228e-06,-1.829529863335059583e-05
2.462698412698412831e+00,1.586453927160624366e-06,-1.776987491266802561e-05
2.463492063492063622e+00,-2.807411762687399109e-06,-1.420068630188084101e-05
2.464285714285714413e+00,-6.702333749553382404e-06,-8.388342971258718519e-06
2.465079365079365203e+00,-9.828725405050643419e-06,-1.238001909635477242e-06
2.465873015873015994e+00,-1.197507507297495114e-05,6.314293828769582689e-06
2.466666666666666785e+00,-1.301238839146882601e-05,1.330974021200319034e-05
2.467460317460317576e+00,-1.291954343967964935e-05,1.875256522543899959e-05
2.468253968253968367e+00,-1.180149729185433016e-05,2.163284191418739927e-05
2.469047619047619158e+00,-9.889468319705633386e-06,2.103326718258589060e-05
2.469841269841269948e+00,-7.515014348897340776e-06,1.632810309131481238e-05
2.470634920634920739e+00,-5.057872596430418529e-06,7.431524035818188897e-06
2.471428571428571530e+00,-2.877167688927124418e-06,-4.990001730032890929e-06
2.472222222222222321e+00,-1.243042524830107842e-06,-1.944171331731868731e-05
2.473015873015873112e+00,-2.874704844905287190e-07,-3.373700624687822397e-05
2.473809523809523903e+00,1.231770127553325704e-08,-4.536041463229370865e-05
2.474603174603174693e+00,-1.854547100352103876e-07,-5.199093749486185389e-05
2.475396825396825484e+00,-6.350078985412718590e-07,-5.205265207184397856e-05
2.476190476190476275e+00,-1.065570253097245943e-06,-4.513522955662855555e-05
2.476984126984127066e+00,-1.243404851516307819e-06,-3.215710753270783980e-05
2.477777777777777857e+00,-1.021057732309913517e-06,-1.521823554616339205e-05
2.478571428571428648e+00,-3.661382381352730501e-07,2.820941229462881818e-06
2.479365079365079438e+00,6.340365539108902530e-07,1.892590630009231888e-05
2.480158730158730229e+00,1.792587547541322698e-06,3.049906413878424670e-05
2.480952380952381020e+00,2.865757846924395353e-06,3.588153253337916034e-05
2.481746031746031811e+00,3.611888907246221239e-06,3.464681322054059012e-05
2.482539682539682602e+00,3.855284062109253864e-06,2.763749114480061738e-05
2.483333333333333393e+00,3.539058181623237049e-06,1.675028245934934726e-05
2.484126984126984183e+00,2.750019297556348123e-06,4.522681463997981110e-06
2.484920634920634974e+00,1.703002183227471989e-06,-6.391376015885321634e-06
2.485714285714285765e+00,6.822673874766965687e-07,-1.375265918077098400e-05
2.486507936507936556e+00,-4.789642673159351787e-08,-1.617145306855612000e-05
2.487301587301587347e+00,-3.366721530799042025e-07,-1.336010616874663977e-05
2.488095238095238138e+00,-2.099480617032598822e-07,-6.150039619201797367e-06
2.488888888888888928e+00,1.258015630207251295e-07,3.732785897780338051e-06
2.489682539682539719e+00,3.491193531058267357e-07,1.408571523696709678e-05
2.490476190476190510e+00,1.421324417820884199e-07,2.274625650416973354e-05
2.491269841269841301e+00,-6.783152067316250546e-07,2.808852253667211058e-05
2.492063492063492092e+00,-2.067380846949286420e-06,2.938081088012774322e-05
2.492857142857142883e+00,-3.736580040816934854e-06,2.691499479639243120e-05
2.493650793650793673e+00,-5.226567640699830053e-06,2.187476264171266439e-05
2.494444444444444464e+00,-6.043664643789733719e-06,1.598194785134762346e-05
2.495238095238095255e+00,-5.810074137341269744e-06,1.102426049197034019e-05
2.496031746031746046e+00,-4.375166937820009077e-06,8.397362876529791863e-06
2.496825396825396837e+00,-1.856012224424678367e-06,8.776343915192326770e-06
2.497619047619047628e+00,1.394192480428376499e-06,1.197727597904053125e-05
2.498412698412698418e+00,4.869074958515310813e-06,1.700985769898612682e-05
2.499206349206349209e+00,8.016943549155559887e-06,2.228606632589041087e-05
2.500000000000000000e+00,1.035115881827436625e-05,2.594081452369307385e-05
2.500793650793650791e+00,1.154406778230439861e-05,2.621863526932698938e-05
2.501587301587301582e+00,1.148558983560770830e-05,2.186696937085015816e-05
2.502380952380952372e+00,1.029042331564061076e-05,1.245638090899568264e-05
2.503174603174603163e+00,8.249898830139932153e-06,-1.456032066504395599e-06
2.503968253968253954e+00,5.743658027850700658e-06,-1.837500005524603271e-05
2.504761904761904745e+00,3.142116583845172513e-06,-3.612846449839797372e-05
2.505555555555555536e+00,7.324670543788326278e-07,-5.228904753043606243e-05
2.506349206349206327e+00,-1.312923398975625173e-06,-6.466546447340592240e-05
2.507142857142857117e+00,-2.927521625016075326e-06,-7.175451488143717296e-05
2.507936507936507908e+00,-4.117717591028857088e-06,-7.304225309237752340e-05
2.508730158730158699e+00,-4.925135058809310740e-06,-6.906691736709098849e-05
2.509523809523809490e+00,-5.396678204364580409e-06,-6.121333390927598684e-05
2.510317460317460281e+00,-5.567541716958567468e-06,-5.128847752853750604e-05
2.511111111111111072e+00,-5.458860427540450292e-06,-4.100316781484318509e-05
2.511904761904761862e+00,-5.088948701672443413e-06,-3.152293734958263081e-05
2.512698412698412653e+00,-4.491532447649065858e-06,-2.323000513841558839e-05
2.513492063492063444e+00,-3.728695655132428087e-06,-1.576207555472672323e-05
2.514285714285714235e+00,-2.887180383408106148e-06,-8.295125924445668095e-06
2.515079365079365026e+00,-2.056444894288348572e-06,4.098243800142358772e-08
2.515873015873015817e+00,-1.299250993294721931e-06,9.757397882680290808e-06
2.516666666666666607e+00,-6.311062062804522312e-07,2.074042751717557241e-05
2.517460317460317398e+00,-1.997296153611942267e-08,3.220494046172658051e-05
2.518253968253968189e+00,5.928605048331132890e-07,4.287786909825663513e-05
2.519047619047618980e+00,1.258574457966146420e-06,5.134874747799834471e-05
2.519841269841269771e+00,1.985007651081349852e-06,5.646684046300242109e-05
2.520634920634920562e+00,2.711499560076570818e-06,5.764644224969594035e-05
2.521428571428571352e+00,3.305206031062995630e-06,5.497668294712586409e-05
2.522222222222222143e+00,3.585593402113801014e-06,4.911167348353142665e-05
2.523015873015872934e+00,3.376008481484224287e-06,4.100808313937674877e-05
2.523809523809523725e+00,2.570872124967782490e-06,3.163522260254547099e-05
2.524603174603174516e+00,1.197861323551116894e-06,2.177750306455482476e-05
2.525396825396825307e+00,-5.490959474968633613e-07,1.198742546884613281e-05
2.526190476190476097e+00,-2.325156850552024241e-06,2.666649424536600184e-06
2.526984126984126888e+00,-3.703756828987954773e-06,-5.804914951738538851e-06
2.527777777777777679e+00,-4.286451808828239032e-06,-1.298278536688233568e-05
2.528571428571428470e+00,-3.822989426590267660e-06,-1.836970808046549389e-05
2.529365079365079261e+00,-2.303093775095411479e-06,-2.152171942707966300e-05
2.530158730158730052e+00,1.289746615641992920e-08,-2.219479782178402483e-05
2.530952380952380842e+00,2.639551665073636809e-06,-2.046213913676646806e-05
2.531746031746031633e+00,4.980007767832160401e-06,-1.674977382504573337e-05
2.532539682539682424e+00,6.479358332155290153e-06,-1.177266301708609492e-05
2.533333333333333215e+00,6.776256036291301411e-06,-6.387582415741563686e-06
2.534126984126984006e+00,5.808348707276959990e-06,-1.405224148819562443e-06
2.534920634920634797e+00,3.836828918527703563e-06,2.581517161389632266e-06
2.535714285714285587e+00,1.377480718179999459e-06,5.297971074685723812e-06
2.536507936507936378e+00,-9.456271529450230357e-07,6.783549742948456416e-06
2.537301587301587169e+00,-2.581963298457921330e-06,7.287765785447056154e-06
2.538095238095237960e+00,-3.216435380338036282e-06,7.111671147540699749e-06
2.538888888888888751e+00,-2.859643033244398486e-06,6.463534702463123654e-06
2.539682539682539542e+00,-1.836061285722831388e-06,5.389717141842320548e-06
2.540476190476190332e+00,-6.727524195482205014e-07,3.804681232681903737e-06
2.541269841269841123e+00,7.548555985560367012e-08,1.597496588901678076e-06
2.542063492063491914e+00,7.149647549706434078e-09,-1.240199454008466444e-06
2.542857142857142705e+00,-9.983167031962424591e-07,-4.525047701653450353e-06
2.543650793650793496e+00,-2.747834004367997145e-06,-7.872027215509802361e-06
2.544444444444444287e+00,-4.805983869625968417e-06,-1.077077100347244980e-05
2.545238095238095077e+00,-6.643294219315639929e-06,-1.272200421254046033e-05
2.546031746031745868e+00,-7.808504807942482590e-06,-1.338699463321748017e-05
2.546825396825396659e+00,-8.065755318537810699e-06,-1.270148934595149674e-05
2.547619047619047450e+00,-7.452852573418499549e-06,-1.092087575331358552e-05
2.548412698412698241e+00,-6.245831049499634942e-06,-8.582212131969725491e-06
2.549206349206349032e+00,-4.846784698329231637e-06,-6.382453515114195631e-06
2.549999999999999822e+00,-3.636670272340346732e-06,-4.987536515356526864e-06
2.550793650793650613e+00,-2.845466205883522941e-06,-4.813288934520461116e-06
2.551587301587301404e+00,-2.484667549343670519e-06,-5.846508673828747482e-06
2.552380952380952195e+00,-2.363012863474162523e-06,-7.578478707609537083e-06
2.553174603174602986e+00,-2.174422845523647688e-06,-9.090985558181509201e-06
2.553968253968253777e+00,-1.620624585147988433e-06,-9.279966697967038759e-06
2.554761904761904567e+00,-5.208848690275202294e-07,-7.152468451936471720e-06
2.555555555555555358e+00,1.128962699486747075e-06,-2.111411576990961928e-06
2.556349206349206149e+00,3.162446579054685377e-06,5.845500538568599902e-06
2.557142857142856940e+00,5.301982895027518102e-06,1.605421205361066582e-05
2.557936507936507731e+00,7.243402861489807044e-06,2.724766357436921173e-05
2.558730158730158522e+00,8.732616656296986169e-06,3.773694163295752643e-05
2.559523809523809312e+00,9.609660042267873512e-06,4.567727984985515917e-05
2.560317460317460103e+00,9.811935386945532143e-06,4.937598484347118638e-05
2.561111111111110894e+00,9.346811236254746555e-06,4.759609631154446997e-05
2.561904761904761685e+00,8.256013789861476728e-06,3.981277955243316222e-05
2.562698412698412920e+00,6.594950589913313887e-06,2.638348982887131638e-05
2.563492063492063711e+00,4.439329990807499959e-06,8.595093730794611776e-06
2.564285714285714501e+00,1.914803137536570508e-06,-1.144117112733257459e-05
2.565079365079365292e+00,-7.689943876017462195e-07,-3.105348774702105109e-05
2.565873015873016083e+00,-3.303982841301768145e-06,-4.740336605081607591e-05
2.566666666666666874e+00,-5.307018046112327365e-06,-5.794714946273355724e-05
2.567460317460317665e+00,-6.385668648451152933e-06,-6.088437770866326430e-05
2.568253968253968456e+00,-6.234675557973868459e-06,-5.551304121657631006e-05
2.569047619047619246e+00,-4.737124224276883768e-06,-4.242417026000935083e-05
2.569841269841270037e+00,-2.036469006794565521e-06,-2.348605267632638993e-05
2.570634920634920828e+00,1.451019823422076702e-06,-1.595141385187860549e-06
2.571428571428571619e+00,5.097382089534372157e-06,1.978811712707170418e-05
2.572222222222222410e+00,8.188025113466074095e-06,3.724960323990087071e-05
2.573015873015873201e+00,1.008036581462486886e-05,4.806358061756229981e-05
2.573809523809523991e+00,1.035493580363945664e-05,5.072689230449447547e-05
2.574603174603174782e+00,8.918309205532680444e-06,4.525172267727306980e-05
2.575396825396825573e+00,6.028017826928333503e-06,3.312781542599144212e-05
2.576190476190476364e+00,2.229557012066218629e-06,1.694679080240709545e-05
2.576984126984127155e+00,-1.779332283438530724e-06,-2.191476088776399059e-07
2.577777777777777946e+00,-5.319936844151695888e-06,-1.551190861875417803e-05
2.578571428571428736e+00,-7.891551931001271585e-06,-2.686022955157135175e-05
2.579365079365079527e+00,-9.273791689232479065e-06,-3.328154674423670581e-05
2.580158730158730318e+00,-9.543447801961069886e-06,-3.486122356137757793e-05
2.580952380952381109e+00,-9.001844903521189414e-06,-3.246405149659709977e-05
2.581746031746031900e+00,-8.038440951103381201e-06,-2.730750436020455888e-05
2.582539682539682691e+00,-6.982070381693781451e-06,-2.054738143512021227e-05
2.583333333333333481e+00,-5.998731173608215557e-06,-1.299977956495298959e-05
2.584126984126984272e+00,-5.075109537952957053e-06,-5.067024584453480441e-06
2.584920634920635063e+00,-4.086813142387747981e-06,3.134851786185227534e-06
2.585714285714285854e+00,-2.910752439382759890e-06,1.151815203240765807e-05
2.586507936507936645e+00,-1.523805562043111203e-06,1.975233757319096823e-05
2.587301587301587436e+00,-4.225195199999778118e-08,2.710091914130403727e-05
2.588095238095238226e+00,1.311567765424747772e-06,3.244633991271375363e-05
2.588888888888889017e+00,2.296032120826981309e-06,3.451308269725912874e-05
2.589682539682539808e+00,2.751679194413216945e-06,3.222700594184803519e-05
2.590476190476190599e+00,2.675948622309117535e-06,2.509667470120238689e-05
2.591269841269841390e+00,2.240664321719338130e-06,1.348608420622961287e-05
2.592063492063492181e+00,1.741966774790704381e-06,-1.324227356414269717e-06
2.592857142857142971e+00,1.498084441917981163e-06,-1.732484597241975652e-05
2.593650793650793762e+00,1.733411621353957611e-06,-3.216983511231363531e-05
2.594444444444444553e+00,2.496273504541656980e-06,-4.366373013789004741e-05
2.595238095238095344e+00,3.644634730820869156e-06,-5.020617473825634197e-05
2.596031746031746135e+00,4.902966839615832754e-06,-5.107752239605275199e-05
2.596825396825396925e+00,5.960989695227229898e-06,-4.650758151910919995e-05
2.597619047619047716e+00,6.569355669834039637e-06,-3.754171267344954302e-05
2.598412698412698507e+00,6.596070891025948655e-06,-2.577079796254217546e-05
2.599206349206349298e+00,6.032935751543187050e-06,-1.300541144630332784e-05
2.600000000000000089e+00,4.966376345930661843e-06,-9.593609772183080047e-07
2.600793650793650880e+00,3.536678168965457001e-06,9.011919409424264040e-06
2.601587301587301670e+00,1.902086119985817083e-06,1.608396075942660405e-05
2.602380952380952461e+00,2.113683226133042844e-07,2.002240686481513649e-05
2.603174603174603252e+00,-1.417116988164113434e-06,2.112393388886762982e-05
2.603968253968254043e+00,-2.908564880327018311e-06,2.006339180822757994e-05
2.604761904761904834e+00,-4.231770985851623834e-06,1.769667846067639785e-05
2.605555555555555625e+00,-5.383082565752368054e-06,1.487375783993712746e-05
2.606349206349206415e+00,-6.359073591002541358e-06,1.229724202043126613e-05
2.607142857142857206e+00,-7.129683097489694833e-06,1.043339558446549034e-05
2.607936507936507997e+00,-7.624722596758471675e-06,9.465447300592986688e-06
2.608730158730158788e+00,-7.742026018671564874e-06,9.282448592548138243e-06
2.609523809523809579e+00,-7.377266578604313292e-06,9.510338297505296375e-06
2.610317460317460370e+00,-6.466072374840502078e-06,9.597662554263836293e-06
2.611111111111111160e+00,-5.022414726125567370e-06,8.956742106657988959e-06
2.611904761904761951e+00,-3.157521659126462181e-06,7.136391552411475727e-06
2.612698412698412742e+00,-1.071057875562814408e-06,3.979534488923575432e-06
2.613492063492063533e+00,9.835262699029710941e-07,-2.861044640882211759e-07
2.614285714285714324e+00,2.749602568740496428e-06,-5.057819293667936816e-06
2.615079365079365115e+00,4.019999174822176149e-06,-9.468812837545738839e-06
2.615873015873015905e+00,4.677535456670671770e-06,-1.256980377969063061e-05
2.616666666666666696e+00,4.713115909477919530e-06,-1.353495359156871646e-05
2.617460317460317487e+00,4.218027242447235546e-06,-1.184589428340805057e-05
2.618253968253968278e+00,3.354498489173767697e-06,-7.417713116552728677e-06
2.619047619047619069e+00,2.313607889041427423e-06,-6.444849018455654645e-07
2.619841269841269860e+00,1.271545942789346639e-06,7.643381960424004522e-06
2.620634920634920650e+00,3.546595419570595658e-07,1.630248896144628415e-05
2.621428571428571441e+00,-3.791852275616317535e-07,2.405787612716194253e-05
2.622222222222222232e+00,-9.402256899937990092e-07,2.970814860001875533e-05
2.623015873015873023e+00,-1.389728547752091897e-06,3.231666467750747161e-05
2.623809523809523814e+00,-1.811427341749683349e-06,3.135909040158845959e-05
2.624603174603174605e+00,-2.277135971342241879e-06,2.681247952996452076e-05
2.625396825396825395e+00,-2.812434923331576668e-06,1.918323694402164652e-05
2.626190476190476186e+00,-3.370286831209198005e-06,9.473722748979153532e-06
2.626984126984126977e+00,-3.822918086715581085e-06,-9.178706080092374582e-07
2.627777777777777768e+00,-3.981488630413514245e-06,-1.037226871565818939e-05
2.628571428571428559e+00,-3.645966400994488248e-06,-1.729754097927150506e-05
2.629365079365079350e+00,-2.675152698112410976e-06,-2.042857926600931686e-05
2.630158730158730140e+00,-1.054336607004006602e-06,-1.912530444264732830e-05
2.630952380952380931e+00,1.067150956122067503e-06,-1.359016954111389403e-05
2.631746031746031722e+00,3.389243085331247905e-06,-4.918729290880235969e-06
2.632539682539682513e+00,5.527821533630564266e-06,5.072606848174879057e-06
2.633333333333333304e+00,7.115318525867178408e-06,1.423079905519327496e-05
2.634126984126984095e+00,7.901038270485009741e-06,2.057412275276817210e-05
2.634920634920634885e+00,7.817351013474135976e-06,2.278398802896245312e-05
2.635714285714285676e+00,6.992365373466050897e-06,2.053815293832812478e-05
2.636507936507936467e+00,5.709130867749489009e-06,1.458667823741794148e-05
2.637301587301587258e+00,4.326168127267310338e-06,6.542901062267688992e-06
2.638095238095238049e+00,3.181179890141126945e-06,-1.560489220027103779e-06
2.638888888888888840e+00,2.501986631273646098e-06,-7.832238105939664261e-06
2.639682539682539630e+00,2.347905753501645534e-06,-1.104262941900574293e-05
2.640476190476190421e+00,2.599076525391134931e-06,-1.095197237167880391e-05
2.641269841269841212e+00,2.998845462975872104e-06,-8.352371842385076416e-06
2.642063492063492003e+00,3.237461065490385098e-06,-4.814564812561323942e-06
2.642857142857142794e+00,3.050329664531155167e-06,-2.219517258161911424e-06
2.643650793650793585e+00,2.298558443627243171e-06,-2.214942862750228952e-06
2.644444444444444375e+00,1.007022460099528281e-06,-5.751175346771197477e-06
2.645238095238095166e+00,-6.484298871550240798e-07,-1.281658571274677736e-05
2.646031746031745957e+00,-2.396369140884681776e-06,-2.242715602504745270e-05
2.646825396825396748e+00,-3.948370638017901799e-06,-3.285521687666960065e-05
2.647619047619047539e+00,-5.076496628925369584e-06,-4.202949744264449671e-05
2.648412698412698330e+00,-5.666223763953077207e-06,-4.800802031806517445e-05
2.649206349206349120e+00,-5.728679503865213418e-06,-4.941303517182906824e-05
2.649999999999999911e+00,-5.369764679570372626e-06,-4.572312483577730411e-05
2.650793650793650702e+00,-4.730239533954086249e-06,-3.735023871641381002e-05
2.651587301587301493e+00,-3.923159682541822462e-06,-2.549100065627272875e-05
2.652380952380952284e+00,-2.996302778919113891e-06,-1.181224719328968500e-05
2.653174603174603075e+00,-1.935265148850451697e-06,1.923333678415092578e-06
2.653968253968253865e+00,-7.027585311270349236e-07,1.418459992163482211e-05
2.654761904761904656e+00,7.080503790790972493e-07,2.388176096094487842e-05
2.655555555555555447e+00,2.233331242240311618e-06,3.043739016170522390e-05
2.656349206349206238e+00,3.728955349839973692e-06,3.373951663259368332e-05
2.657142857142857029e+00,4.992358604736729798e-06,3.402315887623654422e-05
2.657936507936507819e+00,5.804341858633797131e-06,3.173353670330185985e-05
2.658730158730158610e+00,5.975822560184819326e-06,2.741382706927312138e-05
2.659523809523809401e+00,5.387803866273826851e-06,2.163838626575615462e-05
2.660317460317460192e+00,4.017706899873262404e-06,1.498841491030304935e-05
2.661111111111110983e+00,1.948850684607411909e-06,8.050044294500404153e-06
2.661904761904761774e+00,-6.375201223988260717e-07,1.408977424878587288e-06
2.662698412698412564e+00,-3.485637360036836750e-06,-4.379232402601874452e-06
2.663492063492063355e+00,-6.299363289166698110e-06,-8.850169829123279841e-06
2.664285714285714146e+00,-8.780524661149792303e-06,-1.170927312575166941e-05
2.665079365079364937e+00,-1.066474161238669627e-05,-1.289609024289688003e-05
2.665873015873015728e+00,-1.175031950716800782e-05,-1.259905653139718409e-05
2.666666666666666519e+00,-1.191916894425048813e-05,-1.120567098307402434e-05
2.667460317460317309e+00,-1.115034443021172289e-05,-9.203420302560275877e-06
2.668253968253968100e+00,-9.525340177407594413e-06,-7.065851944637846867e-06
2.669047619047618891e+00,-7.222267076237852648e-06,-5.155396260341157977e-06
2.669841269841269682e+00,-4.496697155220712674e-06,-3.658179529683727262e-06
2.670634920634920473e+00,-1.650073536129456089e-06,-2.551848545668402685e-06
2.671428571428571264e+00,1.010430894476392442e-06,-1.604852897232841312e-06
2.672222222222222054e+00,3.214899376855516176e-06,-4.118647738771849242e-07
2.673015873015872845e+00,4.769613230137769024e-06,1.527215712129766926e-06
2.673809523809523636e+00,5.584838085291672687e-06,4.687441130101665256e-06
2.674603174603174427e+00,5.685636020900065724e-06,9.379121387602012879e-06
2.675396825396825218e+00,5.202015888449353893e-06,1.561984642909855451e-05
2.676190476190476009e+00,4.337439141630262573e-06,2.304504289455724388e-05
2.676984126984126799e+00,3.319353578955143034e-06,3.087246853221991709e-05
2.677777777777777590e+00,2.342344144241282887e-06,3.793151552986741173e-05
2.678571428571428381e+00,1.520556817029223748e-06,4.277159824266679104e-05
2.679365079365079172e+00,8.667859961725329108e-07,4.386330011983396315e-05
2.680158730158729963e+00,3.088443726475806520e-07,3.989034570049021955e-05
2.680952380952380754e+00,-2.590010536344280857e-07,3.009913144865559089e-05
2.681746031746031544e+00,-9.064380593379917777e-07,1.463364643673134884e-05
2.682539682539682335e+00,-1.606998003714922157e-06,-5.248077382312186804e-06
2.683333333333333126e+00,-2.215844008200008621e-06,-2.718368426517111280e-05
2.684126984126983917e+00,-2.501553850845925868e-06,-4.800795979954888972e-05
2.684920634920634708e+00,-2.225709674523190518e-06,-6.432391716669785505e-05
2.685714285714285499e+00,-1.241841183085587714e-06,-7.321721418239431425e-05
2.686507936507936289e+00,4.254378153540777101e-07,-7.291721212997150006e-05
2.687301587301587080e+00,2.553984729525490776e-06,-6.321411343191766217e-05
2.688095238095238315e+00,4.763663350256478245e-06,-4.552487336254677910e-05
2.688888888888889106e+00,6.611379953425920718e-06,-2.261350397468620067e-05
2.689682539682539897e+00,7.712376651270971934e-06,1.943300782320990939e-06
2.690476190476190688e+00,7.850334917954566706e-06,2.441939596126915530e-05
2.691269841269841478e+00,7.042106454287309976e-06,4.160582241117970388e-05
2.692063492063492269e+00,5.535415421380077564e-06,5.136829307898404861e-05
2.692857142857143060e+00,3.736651778911349783e-06,5.300071368777759147e-05
2.693650793650793851e+00,2.087359825301177360e-06,4.730719957776751311e-05
2.694444444444444642e+00,9.267102639026081743e-07,3.638623637821597169e-05
2.695238095238095433e+00,3.858356682631253603e-07,2.314437731136756850e-05
2.696031746031746223e+00,3.528387649001155935e-07,1.062753530462341927e-05
2.696825396825397014e+00,5.247451441218721569e-07,1.313967198659489536e-06
2.697619047619047805e+00,5.315240464883378903e-07,-3.456746163126346966e-06
2.698412698412698596e+00,8.883355871709282364e-08,-3.763085480513885860e-06
2.699206349206349387e+00,-8.777109338387150164e-07,-1.006290950737824564e-06
2.700000000000000178e+00,-2.185854809920527008e-06,2.538741045398202960e-06
2.700793650793650968e+00,-3.448586993852573856e-06,4.407294845398329916e-06
2.701587301587301759e+00,-4.208307817170577074e-06,2.682710215713830721e-06
2.702380952380952550e+00,-4.105199696822296888e-06,-3.404212686212747165e-06
2.703174603174603341e+00,-3.017646288346412660e-06,-1.317197812400472401e-05
2.703968253968254132e+00,-1.122135000874519096e-06,-2.456961792574907010e-05
2.704761904761904923e+00,1.149554231613208724e-06,-3.464089086810391669e-05
2.705555555555555713e+00,3.238747310486569073e-06,-4.027497872760482835e-05
2.706349206349206504e+00,4.625016144011289136e-06,-3.906538358023144722e-05
2.707142857142857295e+00,4.968700674363932867e-06,-3.005311147679197835e-05
2.707936507936508086e+00,4.185933743756229455e-06,-1.414181799006181996e-05
2.708730158730158877e+00,2.442551672491460528e-06,5.953499265986630781e-06
2.709523809523809668e+00,8.500836064239902337e-08,2.624407905913557224e-05
2.710317460317460458e+00,-2.456488659173655044e-06,4.237982016544025781e-05
2.711111111111111249e+00,-4.759674166600145741e-06,5.071536173442550629e-05
2.711904761904762040e+00,-6.478535818813274461e-06,4.925033850733031839e-05
2.712698412698412831e+00,-7.385525570475686990e-06,3.817921634361533300e-05
2.713492063492063622e+00,-7.392574287032124322e-06,1.988039798736620354e-05
2.714285714285714413e+00,-6.554108146697248903e-06,-1.670029742102286637e-06
2.715079365079365203e+00,-5.050157899031248959e-06,-2.190289570949964480e-05
2.715873015873015994e+00,-3.147187411496256154e-06,-3.679470899806737563e-05
2.716666666666666785e+00,-1.140938412558122881e-06,-4.382125766956589986e-05
2.717460317460317576e+00,7.056261201490114722e-07,-4.247373452364871670e-05
2.718253968253968367e+00,2.212133246899985707e-06,-3.422418604137278061e-05
2.719047619047619158e+00,3.304674945610312599e-06,-2.198637061120897775e-05
2.719841269841269948e+00,4.009030982147251611e-06,-9.249190530076374899e-06
2.720634920634920739e+00,4.418567305940259740e-06,8.668595559337494756e-07
2.721428571428571530e+00,4.649102645701371496e-06,6.375882081098246425e-06
2.722222222222222321e+00,4.795193402387855380e-06,6.824644080712597464e-06
2.723015873015873112e+00,4.900174652721045331e-06,3.244781977807446856e-06
2.723809523809523903e+00,4.946889944237563906e-06,-2.290555894649651850e-06
2.724603174603174693e+00,4.868629488989542525e-06,-7.350879874033421217e-06
2.725396825396825484e+00,4.573273858907893688e-06,-9.865545948274797870e-06
2.726190476190476275e+00,3.971325261001962193e-06,-8.674149220160006982e-06
2.726984126984127066e+00,3.000910718600506609e-06,-3.771035581375039278e-06
2.727777777777777857e+00,1.647050968443982787e-06,3.801569998367986224e-06
2.728571428571428648e+00,-4.501409306576227663e-08,1.235470646013049452e-05
2.729365079365079438e+00,-1.963155358762251891e-06,2.010538612437784095e-05
2.730158730158730229e+00,-3.930983574375979350e-06,2.569691453498123174e-05
2.730952380952381020e+00,-5.723131060438107367e-06,2.852393485375713468e-05
2.731746031746031811e+00,-7.094832356055943436e-06,2.877695650544168874e-05
2.732539682539682602e+00,-7.823862142531070026e-06,2.722460498374294462e-05
2.733333333333333393e+00,-7.758139120559640514e-06,2.484015986014117273e-05
2.734126984126984183e+00,-6.857541411463869511e-06,2.241980161401432013e-05
2.734920634920634974e+00,-5.216506541300443284e-06,2.032354874064037521e-05
2.735714285714285765e+00,-3.057571552830392026e-06,1.841152849168619827e-05
2.736507936507936556e+00,-6.946339971720535283e-07,1.617581400137849208e-05
2.737301587301587347e+00,1.525524817000208338e-06,1.300474107236685769e-05
2.738095238095238138e+00,3.288221580724710438e-06,8.476551842465229335e-06
2.738888888888888928e+00,4.365621543894249188e-06,2.572528454564463204e-06
2.739682539682539719e+00,4.648377549986380899e-06,-4.268623223374250657e-06
2.740476190476190510e+00,4.149371571553376715e-06,-1.127211109472580035e-05
2.741269841269841301e+00,2.984219870382962682e-06,-1.757441772884079769e-05
2.742063492063492092e+00,1.339574719787616910e-06,-2.250232780540306705e-05
2.742857142857142883e+00,-5.595925359077245859e-07,-2.578000927186996122e-05
2.743650793650793673e+00,-2.477584157891168260e-06,-2.758471912004863011e-05
2.744444444444444464e+00,-4.190289468707850027e-06,-2.842406760042646467e-05
2.745238095238095255e+00,-5.505285014758441451e-06,-2.887835181271336483e-05
2.746031746031746046e+00,-6.282321778580488606e-06,-2.931266737009327332e-05
2.746825396825396837e+00,-6.453926722684254711e-06,-2.968070406675716317e-05
2.747619047619047628e+00,-6.042387451118174075e-06,-2.950475635327949752e-05
2.748412698412698418e+00,-5.166688167891740166e-06,-2.804547838133961073e-05
2.749206349206349209e+00,-4.032168217590255251e-06,-2.460046418463848907e-05
2.750000000000000000e+00,-2.898278480504420112e-06,-1.881694788559866696e-05
2.750793650793650791e+00,-2.026540783738752300e-06,-1.089112237922608980e-05
2.751587301587301582e+00,-1.619545938239826899e-06,-1.567719784516429869e-06
2.752380952380952372e+00,-1.767754689962138054e-06,8.061561519252727410e-06
2.753174603174603163e+00,-2.419972244173983344e-06,1.687242560680730154e-05
2.753968253968253954e+00,-3.385939474654870283e-06,2.400062421154560872e-05
2.754761904761904745e+00,-4.369826534440103895e-06,2.900135116752594166e-05
2.755555555555555536e+00,-5.026285524491231736e-06,3.183933587302840973e-05
2.756349206349206327e+00,-5.028248389154977035e-06,3.275363175018887425e-05
2.757142857142857117e+00,-4.136315823555729858e-06,3.208125731648060942e-05
2.757936507936507908e+00,-2.259509907283159059e-06,3.011397245217685331e-05
2.758730158730158699e+00,5.054787698621467996e-07,2.702646161695054802e-05
2.759523809523809490e+00,3.870921504266987901e-06,2.288082888043607385e-05
2.760317460317460281e+00,7.399432949888946495e-06,1.769158134851402009e-05
2.761111111111111072e+00,1.058588432711837047e-05,1.152332986466027508e-05
2.761904761904761862e+00,1.296146273360502603e-05,4.587670056679502473e-06
2.762698412698412653e+00,1.419389587016324634e-05,-2.693176326687566071e-06
2.763492063492063444e+00,1.415932862553261694e-05,-9.680935222472473287e-06
2.764285714285714235e+00,1.296914357238887212e-05,-1.558650239905803414e-05
2.765079365079365026e+00,1.094548779209969603e-05,-1.960127503347075404e-05
2.765873015873015817e+00,8.550387213224594602e-06,-2.107084473566153706e-05
2.766666666666666607e+00,6.283810410756137997e-06,-1.967061488212792374e-05
2.767460317460317398e+00,4.573656705381609418e-06,-1.553478888509442991e-05
2.768253968253968189e+00,3.682563697945585263e-06,-9.296180929022810379e-06
2.769047619047618980e+00,3.651737399418452007e-06,-2.016208691414699856e-06
2.769841269841269771e+00,4.293113488576353656e-06,4.983284744420454379e-06
2.770634920634920562e+00,5.231423998367213796e-06,1.034458487516573757e-05
2.771428571428571352e+00,5.988591041052631811e-06,1.289962427895722463e-05
2.772222222222222143e+00,6.094581157869373652e-06,1.185180523221330926e-05
2.773015873015872934e+00,5.202459787242358660e-06,6.897588177056193466e-06
2.773809523809523725e+00,3.182161435294123058e-06,-1.704647503189146907e-06
2.774603174603174516e+00,1.685956042431292427e-07,-1.311115265233135475e-05
2.775396825396825307e+00,-3.452816830364949293e-06,-2.592936162755329305e-05
2.776190476190476097e+00,-7.124872808471463411e-06,-3.834568199773593370e-05
2.776984126984126888e+00,-1.024358725105158608e-05,-4.836271118718253170e-05
2.777777777777777679e+00,-1.229541389697249680e-05,-5.412550286377322621e-05
2.778571428571428470e+00,-1.296803652760676381e-05,-5.427745584615342912e-05
2.779365079365079261e+00,-1.220524595603293931e-05,-4.826573468746375852e-05
2.780158730158730052e+00,-1.019540461171915780e-05,-3.651651555792243128e-05
2.780952380952380842e+00,-7.304355118778806912e-06,-2.041910182396514516e-05
2.781746031746031633e+00,-3.979642859222646548e-06,-2.095719614667047662e-06
2.782539682539682424e+00,-6.583287146216718773e-07,1.601075545987419685e-05
2.783333333333333215e+00,2.295721683834740259e-06,3.163930873676295473e-05
2.784126984126984006e+00,4.614580935564770887e-06,4.317250523021197521e-05
2.784920634920634797e+00,6.117037176022394083e-06,4.992757691281402791e-05
2.785714285714285587e+00,6.689011758334238689e-06,5.219169120640302257e-05
2.786507936507936378e+00,6.276713769562915069e-06,5.099259158358812881e-05
2.787301587301587169e+00,4.903282895206390189e-06,4.768237688115467722e-05
2.788095238095237960e+00,2.700101408550741898e-06,4.347779910074625761e-05
2.788888888888888751e+00,-7.073213754569635234e-08,3.911346481129612476e-05
2.789682539682539542e+00,-3.026285484934824106e-06,3.471586302022415462e-05
2.790476190476190332e+00,-5.713862690587346639e-06,2.992146237486558873e-05
2.791269841269841123e+00,-7.692841849836769383e-06,2.417981492123741100e-05
2.792063492063491914e+00,-8.624907259650142224e-06,1.712661607110947649e-05
2.792857142857142705e+00,-8.349609000940298156e-06,8.890231595901195168e-06
2.793650793650793496e+00,-6.927859374291525444e-06,2.148666913922758124e-07
2.794444444444444287e+00,-4.642166840623540963e-06,-7.654509849569174573e-06
2.795238095238095077e+00,-1.949041116410330672e-06,-1.329581416417126240e-05
2.796031746031745868e+00,6.106191438253657511e-07,-1.554102063889685760e-05
2.796825396825396659e+00,2.524212733774713099e-06,-1.388208515160626432e-05
2.797619047619047450e+00,3.415547133044494149e-06,-8.728652725692354034e-06
2.798412698412698241e+00,3.122596639274880991e-06,-1.432969639284339604e-06
2.799206349206349032e+00,1.729712389460093559e-06,5.946576738788922312e-06
2.799999999999999822e+00,-4.491425777507471533e-07,1.110395072449671991e-05
2.800793650793650613e+00,-2.931662486320206300e-06,1.205718371546246967e-05
2.801587301587301404e+00,-5.163414788879494898e-06,7.675678837718586585e-06
2.802380952380952195e+00,-6.633770264933113982e-06,-1.996587014139527272e-06
2.803174603174602986e+00,-6.989526756908423168e-06,-1.572496309647019325e-05
2.803968253968253777e+00,-6.119721797069379003e-06,-3.137735348595140116e-05
2.804761904761904567e+00,-4.187387030800700764e-06,-4.642416622233524104e-05
2.805555555555555358e+00,-1.594965522375983793e-06,-5.848211320967261392e-05
2.806349206349206149e+00,1.112255971088249376e-06,-6.575076708176832941e-05
2.807142857142856940e+00,3.381413049244648253e-06,-6.725905546832059790e-05
2.807936507936507731e+00,4.789332748667655756e-06,-6.291764611535248530e-05
2.808730158730158522e+00,5.143172128207078227e-06,-5.342294029981629953e-05
2.809523809523809312e+00,4.517114471229372287e-06,-4.006927590671244011e-05
2.810317460317460103e+00,3.217820498541925702e-06,-2.451231884410868289e-05
2.811111111111110894e+00,1.691754549972100779e-06,-8.509998513826627767e-06
2.811904761904761685e+00,4.020369131798945423e-07,6.337497434755764830e-06
2.812698412698412920e+00,-2.911500603710694268e-07,1.881916372501750878e-05
2.813492063492063711e+00,-2.149232343275781339e-07,2.827636161556736999e-05
2.814285714285714501e+00,5.877625262061764168e-07,3.465868739415704975e-05
2.815079365079365292e+00,1.888806287830897672e-06,3.845136874446188719e-05
2.815873015873016083e+00,3.351199339211606647e-06,4.048456263278681679e-05
2.816666666666666874e+00,4.626431536137986242e-06,4.166854175034447657e-05
2.817460317460317665e+00,5.446712232797671457e-06,4.272121850854269400e-05
2.818253968253968456e+00,5.690403843479934206e-06,4.395725053126617619e-05
2.819047619047619246e+00,5.407017636847509073e-06,4.519075561245766010e-05
2.819841269841270037e+00,4.796862909688270807e-06,4.577440610004622907e-05
2.820634920634920828e+00,4.149421803644932610e-06,4.476805319964932548e-05
2.821428571428571619e+00,3.753748796431212330e-06,4.120628630466126503e-05
2.822222222222222410e+00,3.802395243757763732e-06,3.441287357675035463e-05
2.823015873015873201e+00,4.314798016371430903e-06,2.428692988168870958e-05
2.823809523809523991e+00,5.104230611490656070e-06,1.147058540896298618e-05
2.824603174603174782e+00,5.803580166583807353e-06,-2.678609803156323056e-06
2.825396825396825573e+00,5.950722109545047165e-06,-1.633518811687990077e-05
2.826190476190476364e+00,5.117270357312881319e-06,-2.762172320957691327e-05
2.826984126984127155e+00,3.049544062689091524e-06,-3.507287603145161601e-05
2.827777777777777946e+00,-2.175093833702490121e-07,-3.799603370789160094e-05
2.828571428571428736e+00,-4.310443139381021838e-06,-3.660247436677097467e-05
2.829365079365079527e+00,-8.555056978973007975e-06,-3.186222893090273910e-05
2.830158730158730318e+00,-1.210355585156589390e-05,-2.513870007440911737e-05
2.830952380952381109e+00,-1.412843165778811426e-05,-1.773976910434511565e-05
2.831746031746031900e+00,-1.403915895713082960e-05,-1.054623857779277583e-05
2.832539682539682691e+00,-1.166524661636793951e-05,-3.842462214202594606e-06
2.833333333333333481e+00,-7.350446491328859002e-06,2.599745783954335953e-06
2.834126984126984272e+00,-1.921167383867844838e-06,9.216372137867577318e-06
2.834920634920635063e+00,3.475087237324449784e-06,1.623190241670353185e-05
2.835714285714285854e+00,7.627555451106604926e-06,2.328119517832430440e-05
2.836507936507936645e+00,9.552327673695369914e-06,2.923513056779006688e-05
2.837301587301587436e+00,8.738218176497622021e-06,3.234122761112112057e-05
2.838095238095238226e+00,5.281108022164752796e-06,3.068457703773856839e-05
2.838888888888889017e+00,-1.320540184943619503e-07,2.284525939997864518e-05
2.839682539682539808e+00,-6.387882089406626640e-06,8.527322450552088864e-06
2.840476190476190599e+00,-1.221625206280409536e-05,-1.108686354356514641e-05
2.841269841269841390e+00,-1.649115008165857261e-05,-3.342178557027379311e-05
2.842063492063492181e+00,-1.848049449340887271e-05,-5.503981956206416179e-05
2.842857142857142971e+00,-1.797983930490160183e-05,-7.245265920766075175e-05
2.843650793650793762e+00,-1.530191102613855591e-05,-8.293933676149062816e-05
2.844444444444444553e+00,-1.113860695436148485e-05,-8.510645916666700395e-05
2.845238095238095344e+00,-6.348097066859176426e-06,-7.904764598254026338e-05
2.846031746031746135e+00,-1.733948800896899921e-06,-6.612074906137619648e-05
2.846825396825396925e+00,2.125742788716159611e-06,-4.847804724210925107e-05
2.847619047619047716e+00,4.964060347706270349e-06,-2.851954167695025858e-05
2.848412698412698507e+00,6.816941198795095911e-06,-8.411743905438952583e-06
2.849206349206349298e+00,7.936400953904255434e-06,1.023939546792599625e-05
2.850000000000000089e+00,8.660580820852283726e-06,2.652784534193839178e-05
2.850793650793650880e+00,9.286080846728385753e-06,4.021061193881144140e-05
2.851587301587301670e+00,9.983127298497644454e-06,5.153541869380608690e-05
2.852380952380952461e+00,1.077377324435731917e-05,6.098680556650647438e-05
2.853174603174603252e+00,1.156644020977631796e-05,6.900728608493258401e-05
2.853968253968254043e+00,1.222016011454613832e-05,7.574947685032164897e-05
2.854761904761904834e+00,1.260700385337642405e-05,8.091046409244113599e-05
2.855555555555555625e+00,1.264964743248217190e-05,8.368585360869221711e-05
2.856349206349206415e+00,1.232565288371628226e-05,8.285911472466606065e-05
2.857142857142857206e+00,1.164440902703155672e-05,7.702203330203995408e-05
2.857936507936507997e+00,1.061293741000389003e-05,6.490911381458595484e-05
2.858730158730158788e+00,9.210489059403952942e-06,4.581099287436114098e-05
2.859523809523809579e+00,7.387622330738069473e-06,1.999542050468023423e-05
2.860317460317460370e+00,5.093943164835604707e-06,-1.098177334409485447e-05
2.861111111111111160e+00,2.324009033897164754e-06,-4.421507107285478465e-05
2.861904761904761951e+00,-8.394349051662508078e-07,-7.574066941099570030e-05
2.862698412698412742e+00,-4.204654084205972623e-06,-1.011853319164227196e-04
2.863492063492063533e+00,-7.480275551751944306e-06,-1.166445259805527762e-04
2.864285714285714324e+00,-1.030923072926085088e-05,-1.195543157014740648e-04
2.865079365079365115e+00,-1.231740163495685904e-05,-1.092985508930211788e-04
2.865873015873015905e+00,-1.317148743594117670e-05,-8.737313816839539066e-05
2.866666666666666696e+00,-1.264424617755893343e-05,-5.707313510324009902e-05
2.867460317460317487e+00,-1.068112718286042097e-05,-2.280809300835498753e-05
2.868253968253968278e+00,-7.453009875270195015e-06,1.076283309983864351e-05
2.869047619047619069e+00,-3.373265107157090428e-06,3.956423885927884176e-05
2.869841269841269860e+00,9.400418054219311739e-07,6.072886057493094943e-05
2.870634920634920650e+00,4.762552550951258630e-06,7.290646532441796401e-05
2.871428571428571441e+00,7.407894943161661128e-06,7.623808801536119146e-05
2.872222222222222232e+00,8.384040639150659461e-06,7.205782341244795807e-05
2.873015873015873023e+00,7.518807157031425276e-06,6.243830802627962754e-05
2.873809523809523814e+00,5.016496093762353657e-06,4.970994013766430686e-05
2.874603174603174605e+00,1.425446551417607497e-06,3.605944799968616448e-05
2.875396825396825395e+00,-2.478706541647776484e-06,2.326510104063983915e-05
2.876190476190476186e+00,-5.865434147272786201e-06,1.257452547859325419e-05
2.876984126984126977e+00,-8.033988970404900469e-06,4.695347072006925593e-06
2.877777777777777768e+00,-8.565640098060156460e-06,-1.436015262662322149e-07
2.878571428571428559e+00,-7.410021065181193755e-06,-2.097813640487922303e-06
2.879365079365079350e+00,-4.890264087930333833e-06,-1.605347459359094753e-06
2.880158730158730140e+00,-1.629147665973661408e-06,7.080272700876039238e-07
2.880952380952380931e+00,1.588253663071148489e-06,4.113519285181102478e-06
2.881746031746031722e+00,3.989491543658222537e-06,7.856662869022007162e-06
2.882539682539682513e+00,4.991998747315576975e-06,1.122571402911230546e-05
2.883333333333333304e+00,4.342212414151528309e-06,1.359853117712811821e-05
2.884126984126984095e+00,2.180557213584271932e-06,1.445392720870435557e-05
2.884920634920634885e+00,-9.875057713749195911e-07,1.335315731576819765e-05
2.885714285714285676e+00,-4.410164716299145832e-06,9.927282395060457398e-06
2.886507936507936467e+00,-7.269027391207035321e-06,3.918278745171224863e-06
2.887301587301587258e+00,-8.873808152532849358e-06,-4.704139444386820389e-06
2.888095238095238049e+00,-8.821261604318505339e-06,-1.558255288777405723e-05
2.888888888888888840e+00,-7.079060573098188624e-06,-2.784976790776029200e-05
2.889682539682539630e+00,-3.978882240913742811e-06,-4.013422638301382856e-05
2.890476190476190421e+00,-1.287208223542624721e-07,-5.074268314804140109e-05
2.891269841269841212e+00,3.727445444330144411e-06,-5.800107834571590368e-05
2.892063492063492003e+00,6.867322695380178181e-06,-6.066649979162654679e-05
2.892857142857142794e+00,8.731379171475208242e-06,-5.828149370352933865e-05
2.893650793650793585e+00,9.020357175904463731e-06,-5.134407061746799742e-05
2.894444444444444375e+00,7.733172316658853439e-06,-4.121817856659548777e-05
2.895238095238095166e+00,5.142622613829275196e-06,-2.979639855494862726e-05
2.896031746031745957e+00,1.720056471376695055e-06,-1.901565654504151491e-05
2.896825396825396748e+00,-1.968794537089311666e-06,-1.037883940145725183e-05
2.897619047619047539e+00,-5.369491789008350658e-06,-4.626884884519400099e-06
2.898412698412698330e+00,-8.022243225264887135e-06,-1.644083917797909334e-06
2.899206349206349120e+00,-9.610552325970327597e-06,-5.977899608733852227e-07
2.899999999999999911e+00,-9.976574227130413546e-06,-2.493390313441121245e-07
2.900793650793650702e+00,-9.113692208777506140e-06,6.585333485107932429e-07
2.901587301587301493e+00,-7.148126542612287236e-06,3.037111199640020396e-06
2.902380952380952284e+00,-4.316668652273042660e-06,7.197074096876485276e-06
2.903174603174603075e+00,-9.410510901436511855e-07,1.276544558383249497e-05
2.903968253968253865e+00,2.604449827231763474e-06,1.879733956728294592e-05
2.904761904761904656e+00,5.933931013977441934e-06,2.405727197147226334e-05
2.905555555555555447e+00,8.695270222163966280e-06,2.739444324374129707e-05
2.906349206349206238e+00,1.061135575559807331e-05,2.809989643466118510e-05
2.907142857142857029e+00,1.150893729912898102e-05,2.613000504836195857e-05
2.907936507936507819e+00,1.133125188359431165e-05,2.211960843067980347e-05
2.908730158730158610e+00,1.013489288766357607e-05,1.717861556593028080e-05
2.909523809523809401e+00,8.073942414202012080e-06,1.254187157368143911e-05
2.910317460317460192e+00,5.376091084150599416e-06,9.194629338596332728e-06
2.911111111111110983e+00,2.316404989488044881e-06,7.603989271086068818e-06
2.911904761904761774e+00,-8.070495196990330171e-07,7.644493500591588100e-06
2.912698412698412564e+00,-3.695471440422496830e-06,8.729147813683997426e-06
2.913492063492063355e+00,-6.072785078668102304e-06,1.007863827696137550e-05
2.914285714285714146e+00,-7.713706188680761590e-06,1.101535405400170847e-05
2.915079365079364937e+00,-8.476169658886482759e-06,1.117122405050937732e-05
2.915873015873015728e+00,-8.332151316427875766e-06,1.054337495070659881e-05
2.916666666666666519e+00,-7.385384440919491468e-06,9.399024710828434841e-06
2.917460317460317309e+00,-5.862512616555634354e-06,8.093434078978863926e-06
2.918253968253968100e+00,-4.069782240830267979e-06,6.894117112917474762e-06
2.919047619047618891e+00,-2.320564443175079744e-06,5.887109138339478777e-06
2.919841269841269682e+00,-8.532045332749596755e-07,4.990226121941011553e-06
2.920634920634920473e+00,2.347204953939992505e-07,4.045522349031345436e-06
2.921428571428571264e+00,1.013907085596367223e-06,2.934786224156058460e-06
2.922222222222222054e+00,1.702196127612719085e-06,1.664762601843964251e-06
2.923015873015872845e+00,2.597393178086296491e-06,3.934644466089044161e-07
2.923809523809523636e+00,3.978147523222035068e-06,-6.007139062574105248e-07
2.924603174603174427e+00,5.996700205104412387e-06,-9.848094302697681210e-07
2.925396825396825218e+00,8.593891055820827710e-06,-4.477228497612152747e-07
2.926190476190476009e+00,1.146608416035463611e-05,1.224586805477307287e-06
2.926984126984126799e+00,1.410191588216950934e-05,4.075730889411206892e-06
2.927777777777777590e+00,1.588598472831140627e-05,7.910825322462001292e-06
2.928571428571428381e+00,1.624474594862102751e-05,1.225072114029221568e-05
2.929365079365079172e+00,1.479572169357054221e-05,1.633423210351648715e-05
2.930158730158729963e+00,1.145955011684326983e-05,1.918847383985083680e-05
2.930952380952380754e+00,6.504987346712123494e-06,1.977268556354724581e-05
2.931746031746031544e+00,5.149135163873319066e-07,1.718650088098889098e-05
2.932539682539682335e+00,-5.719724502062967370e-06,1.091865388266074622e-05
2.933333333333333126e+00,-1.135522911465059550e-05,1.088288336268608612e-06
2.934126984126983917e+00,-1.566513981871516895e-05,-1.139791439011393235e-05
2.934920634920634708e+00,-1.818442375123018818e-05,-2.486031806375555572e-05
2.935714285714285499e+00,-1.879101860948603620e-05,-3.708847161235301945e-05
2.936507936507936289e+00,-1.770290517632538483e-05,-4.579246607450309975e-05
2.937301587301587080e+00,-1.539263710416747846e-05,-4.915785725772406681e-05
2.938095238095238315e+00,-1.244652596001840635e-05,-4.634084400761242291e-05
2.938888888888889106e+00,-9.412943184984071089e-06,-3.774486600226424653e-05
2.939682539682539897e+00,-6.685972681917569958e-06,-2.498852201903738724e-05
2.940476190476190688e+00,-4.455823745149360521e-06,-1.057473041964751441e-05
2.941269841269841478e+00,-2.731851980317049015e-06,2.644783988404073266e-06
2.942063492063492269e+00,-1.417673635945062154e-06,1.207524439601672692e-05
2.942857142857143060e+00,-4.008110289327575227e-07,1.592081155123368556e-05
2.943650793650793851e+00,3.819881586815325923e-07,1.355427572931429192e-05
2.944444444444444642e+00,9.279850524462335113e-07,5.646205403745177712e-06
2.945238095238095433e+00,1.200328206405454349e-06,-5.965747780819975758e-06
2.946031746031746223e+00,1.186114706523236970e-06,-1.863692966140824208e-05
2.946825396825397014e+00,9.479465648010387321e-07,-2.943182283800504836e-05
2.947619047619047805e+00,6.420168881501094997e-07,-3.569375350772576361e-05
2.948412698412698596e+00,4.919237218833788914e-07,-3.555772913549738664e-05
2.949206349206349387e+00,7.252023404881732251e-07,-2.831192219831132038e-05
2.950000000000000178e+00,1.493338159663961171e-06,-1.454499818948690309e-05
2.950793650793650968e+00,2.803253853371327504e-06,3.946996904169831230e-06
2.951587301587301759e+00,4.486609635403371348e-06,2.448071457453994689e-05
2.952380952380952550e+00,6.221741820257742547e-06,4.397413151768973338e-05
2.953174603174603341e+00,7.605567161108838084e-06,5.950495047651013135e-05
2.953968253968254132e+00,8.256813741229957648e-06,6.882326303260116751e-05
2.954761904761904923e+00,7.923163175591862306e-06,7.071876353692961473e-05
2.955555555555555713e+00,6.563999512310395320e-06,6.518040853434851770e-05
2.956349206349206504e+00,4.385416472709013174e-06,5.332805684097206893e-05
2.957142857142857295e+00,1.814003788596607756e-06,3.713401525350634432e-05
2.957936507936508086e+00,-5.892070678107188661e-07,1.899122932741400063e-05
2.958730158730158877e+00,-2.256082120472841985e-06,1.223412048036929246e-06
2.959523809523809668e+00,-2.748186858469718499e-06,-1.434394282175924075e-05
2.960317460317460458e+00,-1.867378533533703240e-06,-2.664319720057470946e-05
2.961111111111111249e+00,2.886698591308409360e-07,-3.539651533135694441e-05
2.961904761904762040e+00,3.340092770152586033e-06,-4.093483867250187328e-05
2.962698412698412831e+00,6.703801933138672217e-06,-4.388449816261680476e-05
2.963492063492063622e+00,9.718118426973781156e-06,-4.483551071845746780e-05
2.964285714285714413e+00,1.178312172506654527e-05,-4.409947729135819592e-05
2.965079365079365203e+00,1.248401658129059343e-05,-4.162926693069712061e-05
2.965873015873015994e+00,1.166989751367436067e-05,-3.712179048661525812e-05
2.966666666666666785e+00,9.471630614961103260e-06,-3.026844039111568378e-05
2.967460317460317576e+00,6.257305390013850331e-06,-2.106327494069225095e-05
2.968253968253968367e+00,2.538785943584024650e-06,-1.004425332929845218e-05
2.969047619047619158e+00,-1.145214269538408919e-06,1.646871977320521662e-06
2.969841269841269948e+00,-4.339278167509891180e-06,1.243417145876725336e-05
2.970634920634920739e+00,-6.748491209782119345e-06,2.065836568972130341e-05
2.971428571428571530e+00,-8.268001368316827763e-06,2.498575694392497513e-05
2.972222222222222321e+00,-8.965448568653482274e-06,2.473810995799921085e-05
2.973015873015873112e+00,-9.031040139789960327e-06,2.005212890764333569e-05
2.973809523809523903e+00,-8.717301539988702732e-06,1.184950089651307547e-05
2.974603174603174693e+00,-8.286412999659944773e-06,1.658306412761588537e-06
2.975396825396825484e+00,-7.970137582967208600e-06,-8.648650766688489777e-06
2.976190476190476275e+00,-7.935411418140211898e-06,-1.714191639513037321e-05
2.976984126984127066e+00,-8.247216116396082785e-06,-2.211599472395799269e-05
2.977777777777777857e+00,-8.830560967709990815e-06,-2.234229079658314366e-05
2.978571428571428648e+00,-9.447405048130626940e-06,-1.726979050127669472e-05
2.979365079365079438e+00,-9.711619247679522388e-06,-7.138864336520750530e-06
2.980158730158730229e+00,-9.159059887949664515e-06,7.021582740928846483e-06
2.980952380952381020e+00,-7.370785674884186491e-06,2.351715262555039386e-05
2.981746031746031811e+00,-4.122481559582176376e-06,4.020243317238762716e-05
2.982539682539682602e+00,4.865076164100120301e-07,5.474346573265768810e-05
2.983333333333333393e+00,5.975141713613692087e-06,6.489594899067678004e-05
2.984126984126984183e+00,1.152801316867704774e-05,6.878620813612200023e-05
2.984920634920634974e+00,1.614968494360346338e-05,6.518385029256784408e-05
2.985714285714285765e+00,1.889036577421433338e-05,5.373585982765827760e-05
2.986507936507936556e+00,1.908050314611886146e-05,3.511282671535154995e-05
2.987301587301587347e+00,1.650639995711640753e-05,1.101968311861524205e-05
2.988095238095238138e+00,1.147616296022871226e-05,-1.595341873066927332e-05
2.988888888888888928e+00,4.758242136929555121e-06,-4.263402945607984017e-05
2.989682539682539719e+00,-2.587854048305293963e-06,-6.569403856275411659e-05
2.990476190476190510e+00,-9.439346777847689555e-06,-8.215257694461076108e-05
2.991269841269841301e+00,-1.483420353118000677e-05,-8.988562084135022371e-05
2.992063492063492092e+00,-1.813639551297548331e-05,-8.804191016747214458e-05
2.992857142857142883e+00,-1.911091348602440075e-05,-7.724678864304674014e-05
2.993650793650793673e+00,-1.790642407441944486e-05,-5.950485815469517067e-05
2.994444444444444464e+00,-1.496693922544086381e-05,-3.779738459694668767e-05
2.995238095238095255e+00,-1.090477840527885562e-05,-1.547306071933272179e-05
2.996031746031746046e+00,-6.366537407075895643e-06,4.405789115755014497e-06
2.996825396825396837e+00,-1.917505276208610595e-06,1.960291319503065463e-05
2.997619047619047628e+00,2.037227187024542567e-06,2.902845383786047126e-05
2.998412698412698418e+00,5.284077028363437318e-06,3.280175425994854573e-05
2.999206349206349209e+00,7.783173934047098389e-06,3.207487529682546273e-05
3.000000000000000000e+00,9.611688131235266848e-06,2.867455674119797739e-05
3.000793650793650791e+00,1.088892833860896770e-05,2.464500660390560259e-05
3.001587301587301582e+00,1.170770380719721774e-05,2.178482845507298944e-05
3.002380952380952372e+00,1.209200967443637079e-05,2.126822566345482827e-05
3.003174603174603163e+00,1.199124164897156707e-05,2.342320867094774850e-05
3.003968253968253954e+00,1.130970098482883410e-05,2.770865440461326511e-05
3.004761904761904745e+00,9.959540080091406518e-06,3.289092060582727987e-05
3.005555555555555536e+00,7.917819170065207670e-06,3.737661177393403168e-05
3.006349206349206327e+00,5.266880079687018867e-06,3.962129739697639510e-05
3.007142857142857117e+00,2.203199654865467929e-06,3.851473530321047472e-05
3.007936507936507908e+00,-9.885750310302438437e-07,3.364898938072926747e-05
3.008730158730158699e+00,-3.987088667277605716e-06,2.540760041824516107e-05
3.009523809523809490e+00,-6.493551054577578718e-06,1.486240869108768874e-05
3.010317460317460281e+00,-8.280756923099695882e-06,3.514147983078481461e-06
3.011111111111111072e+00,-9.221006113862487000e-06,-7.050044864281665937e-06
3.011904761904761862e+00,-9.291978274042361706e-06,-1.549275944704658775e-05
3.012698412698412653e+00,-8.566164486051390718e-06,-2.097448427288312609e-05
3.013492063492063444e+00,-7.190433440012012599e-06,-2.326128649870342306e-05
3.014285714285714235e+00,-5.360401780804647903e-06,-2.268009800063460160e-05
3.015079365079365026e+00,-3.293020819426493678e-06,-1.995000830954210783e-05
3.015873015873015817e+00,-1.200802873383927370e-06,-1.594782905382947845e-05
3.016666666666666607e+00,7.291761260356393856e-07,-1.147793402253107335e-05
3.017460317460317398e+00,2.349874030122820378e-06,-7.106243602021725781e-06
3.018253968253968189e+00,3.562753248270891122e-06,-3.090683840988989891e-06
3.019047619047618980e+00,4.321208774193732614e-06,5.913979973430166876e-07
3.019841269841269771e+00,4.629359003516245121e-06,4.141486187682163961e-06
3.020634920634920562e+00,4.535565822092935754e-06,7.797416930335713341e-06
3.021428571428571352e+00,4.120273373600313467e-06,1.168717579601207738e-05
3.022222222222222143e+00,3.479719917393629813e-06,1.571490590347690667e-05
3.023015873015872934e+00,2.709263429060133251e-06,1.950825973827554185e-05
3.023809523809523725e+00,1.890391951885589105e-06,2.244330337472731212e-05
3.024603174603174516e+00,1.083877989191259404e-06,2.374658880414014185e-05
3.025396825396825307e+00,3.297223602316794475e-07,2.265581010688288787e-05
3.026190476190476097e+00,-3.467171659917745825e-07,1.860259271293256318e-05
3.026984126984126888e+00,-9.246401124844951523e-07,1.137007394006520090e-05
3.027777777777777679e+00,-1.378115195553120292e-06,1.183720751598361000e-06
3.028571428571428470e+00,-1.671896603383693956e-06,-1.128285899728601108e-05
3.029365079365079261e+00,-1.765779056140932455e-06,-2.497922183903282991e-05
3.030158730158730052e+00,-1.626755162599226910e-06,-3.860679387748733782e-05
3.030952380952380842e+00,-1.244990604776280868e-06,-5.078765796652904592e-05
3.031746031746031633e+00,-6.479746190609073051e-07,-6.025660149567073581e-05
3.032539682539682424e+00,9.272549750731322580e-08,-6.604832091523128040e-05
3.033333333333333215e+00,8.656826502106618431e-07,-6.763859260645805119e-05
3.034126984126984006e+00,1.534784593552767793e-06,-6.500111536443017705e-05
3.034920634920634797e+00,1.961858671361283179e-06,-5.856588315348134813e-05
3.035714285714285587e+00,2.031812102835016761e-06,-4.909798105573759148e-05
3.036507936507936378e+00,1.675953018197911748e-06,-3.753933863217087560e-05
3.037301587301587169e+00,8.898514409309843677e-07,-2.486031817063359025e-05
3.038095238095237960e+00,-2.581108004268978457e-07,-1.195564664875126757e-05
3.038888888888888751e+00,-1.631169648858760497e-06,4.016932993494522785e-07
3.039682539682539542e+00,-3.043160583265809730e-06,1.155786225014912860e-05
3.040476190476190332e+00,-4.289856418510268195e-06,2.095509111925039817e-05
3.041269841269841123e+00,-5.186313070899311804e-06,2.812355579941925996e-05
3.042063492063491914e+00,-5.600674842733641088e-06,3.271321636401097342e-05
3.042857142857142705e+00,-5.474625249120856003e-06,3.456548658787841406e-05
3.043650793650793496e+00,-4.825386333452931252e-06,3.379657142000212203e-05
3.044444444444444287e+00,-3.732721401078071750e-06,3.084910201533305947e-05
3.045238095238095077e+00,-2.321136273104559730e-06,2.647645440130100901e-05
3.046031746031745868e+00,-7.466800698949530938e-07,2.164952937851134240e-05
3.046825396825396659e+00,8.103715002849094429e-07,1.740048776493636080e-05
3.047619047619047450e+00,2.154396642217961870e-06,1.462945809180554187e-05
3.048412698412698241e+00,3.094174351300922622e-06,1.390465455279530584e-05
3.049206349206349032e+00,3.475806898559089249e-06,1.529582001409290524e-05
3.049999999999999822e+00,3.220222000405422865e-06,1.829315568121885817e-05
3.050793650793650613e+00,2.349896684000709794e-06,2.186272344998892595e-05
3.051587301587301404e+00,9.922465310090422062e-07,2.466263517007083513e-05
3.052380952380952195e+00,-6.418462862154759909e-07,2.539564714998588562e-05
3.053174603174602986e+00,-2.294314144215737445e-06,2.321952268938144416e-05
3.053968253968253777e+00,-3.697084960431265351e-06,1.809739595565644586e-05
3.054761904761904567e+00,-4.602003228489145015e-06,1.096245758473793081e-05
3.055555555555555358e+00,-4.804774526453487315e-06,3.602297428476619719e-06
3.056349206349206149e+00,-4.169269634326877432e-06,-1.761214940470686209e-06
3.057142857142856940e+00,-2.655593714873276037e-06,-3.120640580728946876e-06
3.057936507936507731e+00,-3.471983778784402152e-07,6.152334775012652546e-07
3.058730158730158522e+00,2.534730937733596969e-06,9.096285837380183777e-06
3.059523809523809312e+00,5.642167351135250618e-06,2.038687393812303207e-05
3.060317460317460103e+00,8.542829089571955329e-06,3.130155524440193337e-05
3.061111111111110894e+00,1.079137189594006420e-05,3.816945157039698113e-05
3.061904761904761685e+00,1.201723216554649423e-05,3.783216183690080696e-05
3.062698412698412920e+00,1.201042557545754808e-05,2.859095938431934199e-05
3.063492063492063711e+00,1.078245149331096169e-05,1.081512312648401521e-05
3.064285714285714501e+00,8.580293265154076415e-06,-1.298955041346848770e-05
3.065079365079365292e+00,5.840750981385540603e-06,-3.869585140189638040e-05
3.065873015873016083e+00,3.089820798025985170e-06,-6.151794672323492323e-05
3.066666666666666874e+00,8.114978376365452294e-07,-7.714700398353391947e-05
3.067460317460317665e+00,-6.764269423255035392e-07,-8.273947665239974193e-05
3.068253968253968456e+00,-1.301402464249483799e-06,-7.749950641553327144e-05
3.069047619047619246e+00,-1.244889515836759404e-06,-6.273396616498563285e-05
3.069841269841270037e+00,-8.785009434602572337e-07,-4.141658875758758907e-05
3.070634920634920828e+00,-6.491496518487024134e-07,-1.742502564515871258e-05
3.071428571428571619e+00,-9.502715825526826121e-07,5.322189772955650742e-06
3.072222222222222410e+00,-2.016922822339894103e-06,2.361235082756001319e-05
3.073015873015873201e+00,-3.869849231317765426e-06,3.542048689075291110e-05
3.073809523809523991e+00,-6.314703835549075040e-06,4.007130129013727839e-05
3.074603174603174782e+00,-8.985888320741890534e-06,3.811314405029745989e-05
3.075396825396825573e+00,-1.141567183105540593e-05,3.099604117616315259e-05
3.076190476190476364e+00,-1.310969929324951463e-05,2.066908157505289360e-05
3.076984126984127155e+00,-1.361758821184613041e-05,9.199099219516684557e-06
3.077777777777777946e+00,-1.259723317072799528e-05,-1.528075243912444337e-06
3.078571428571428736e+00,-9.877001843562949594e-06,-1.001121710283585419e-05
3.079365079365079527e+00,-5.515927482763453187e-06,-1.526217513997692025e-05
3.080158730158730318e+00,1.500954356824149640e-07,-1.688108998828523891e-05
3.080952380952381109e+00,6.498875229030852727e-06,-1.507814792005299703e-05
3.081746031746031900e+00,1.267174321387891961e-05,-1.061866933277757858e-05
3.082539682539682691e+00,1.769168647550953491e-05,-4.666581035291589667e-06
3.083333333333333481e+00,2.063756562978406127e-05,1.472224047319766108e-06
3.084126984126984272e+00,2.084044284742087423e-05,6.661745363825860102e-06
3.084920634920635063e+00,1.805274655709602916e-05,1.022033834231064231e-05
3.085714285714285854e+00,1.253927178284061908e-05,1.208470477223961847e-05
3.086507936507936645e+00,5.055813286038239371e-06,1.278700606942899130e-05
3.087301587301587436e+00,-3.286387143481055046e-06,1.323703782114103219e-05
3.088095238095238226e+00,-1.123651356116190471e-05,1.437212160097554268e-05
3.088888888888889017e+00,-1.764273902071995023e-05,1.679151254362447118e-05
3.089682539682539808e+00,-2.165367126346674515e-05,2.050204415724133446e-05
3.090476190476190599e+00,-2.284173832567328805e-05,2.485953748036117249e-05
3.091269841269841390e+00,-2.123679716792321604e-05,2.871762602706076338e-05
3.092063492063492181e+00,-1.728266590555818457e-05,3.072786662572846075e-05
3.092857142857142971e+00,-1.173929103714587938e-05,2.969675862738553886e-05
3.093650793650793762e+00,-5.550988249310758520e-06,2.490083472847286829e-05
3.094444444444444553e+00,3.037611534695130247e-07,1.628385733477537024e-05
3.095238095238095344e+00,4.965643906408087949e-06,4.500793762303631869e-06
3.096031746031746135e+00,7.831144885898024704e-06,-9.182543024297624474e-06
3.096825396825396925e+00,8.649101780045674573e-06,-2.309499157247855104e-05
3.097619047619047716e+00,7.556632922983420910e-06,-3.542436354819476795e-05
3.098412698412698507e+00,5.044095083827684777e-06,-4.450217036120618233e-05
3.099206349206349298e+00,1.853346042251765983e-06,-4.907576862108803455e-05
3.100000000000000089e+00,-1.171737584488896518e-06,-4.853001325585875659e-05
3.100793650793650880e+00,-3.252712034930621157e-06,-4.301433722464412907e-05
3.101587301587301670e+00,-3.828229835352253851e-06,-3.343879317963961137e-05
3.102380952380952461e+00,-2.660471286262117316e-06,-2.132938174077181781e-05
3.103174603174603252e+00,1.219779782813729449e-07,-8.569076973256568871e-06
3.103968253968254043e+00,4.049705208961682032e-06,2.921134728187571268e-06
3.104761904761904834e+00,8.400090240448913496e-06,1.149806305091763704e-05
3.105555555555555625e+00,1.233219517375645254e-05,1.605354382779946735e-05
3.106349206349206415e+00,1.504688666156980466e-05,1.617340331306495437e-05
3.107142857142857206e+00,1.594356305411459354e-05,1.217828387919647057e-05
3.107936507936507997e+00,1.474195277002186620e-05,5.049898177050081015e-06
3.108730158730158788e+00,1.154198633054620407e-05,-3.732119666566661438e-06
3.109523809523809579e+00,6.807387076334764738e-06,-1.240802678339233962e-05
3.110317460317460370e+00,1.276089797929187194e-06,-1.918154382059756417e-05
3.111111111111111160e+00,-4.182376921930313652e-06,-2.247133394274640288e-05
3.111904761904761951e+00,-8.730744650600263536e-06,-2.115444701726066850e-05
3.112698412698412742e+00,-1.171393453640242928e-05,-1.477556665707799575e-05
3.113492063492063533e+00,-1.276503704319177883e-05,-3.684962999533561310e-06
3.114285714285714324e+00,-1.184901979579916997e-05,1.093086590859075490e-05
3.115079365079365115e+00,-9.241158071588533504e-06,2.714808745284815353e-05
3.115873015873015905e+00,-5.452188481451094287e-06,4.253855678323901243e-05
3.116666666666666696e+00,-1.122165026930693338e-06,5.452447217223587556e-05
3.117460317460317487e+00,3.092978476904232794e-06,6.081975355094503325e-05
3.118253968253968278e+00,6.622371337782610169e-06,5.989099009583580030e-05
3.119047619047619069e+00,9.054616615873705500e-06,5.133897004087401077e-05
3.119841269841269860e+00,1.017625217824499352e-05,3.609221981168981831e-05
3.120634920634920650e+00,9.969743884291032868e-06,1.633324134031384031e-05
3.121428571428571441e+00,8.574128518945468445e-06,-4.856679068450742128e-06
3.122222222222222232e+00,6.221434401107574893e-06,-2.407058364578648730e-05
3.123015873015873023e+00,3.170310045720197250e-06,-3.824379168954225811e-05
3.123809523809523814e+00,-3.405754463248379763e-07,-4.527062298732586917e-05
3.124603174603174605e+00,-4.105613302698573796e-06,-4.443666072573879637e-05
3.125396825396825395e+00,-7.933727800164099079e-06,-3.657155274319909087e-05
3.126190476190476186e+00,-1.161457770032355869e-05,-2.388260134782389853e-05
3.126984126984126977e+00,-1.489155056544648123e-05,-9.495156557056807974e-06
3.127777777777777768e+00,-1.745908375930454594e-05,3.208356379430923682e-06
3.128571428571428559e+00,-1.899118733015017635e-05,1.130800184900092858e-05
3.129365079365079350e+00,-1.919656398611481251e-05,1.296069909330179387e-05
3.130158730158730140e+00,-1.788656830875898112e-05,7.766015729736654012e-06
3.130952380952380931e+00,-1.503676238785533366e-05,-3.195706195906593215e-06
3.131746031746031722e+00,-1.082240534550036538e-05,-1.764057613330938202e-05
3.132539682539682513e+00,-5.614240792266120096e-06,-3.257962921545082773e-05
3.133333333333333304e+00,6.764808348342070299e-08,-4.490683843732316388e-05
3.134126984126984095e+00,5.632037472314262790e-06,-5.195580483656638384e-05
3.134920634920634885e+00,1.050953924200786022e-05,-5.193818455337825227e-05
3.135714285714285676e+00,1.424221878004103846e-05,-4.420902351249813108e-05
3.136507936507936467e+00,1.655460477867613477e-05,-2.933151559249559231e-05
3.137301587301587258e+00,1.739341855310974757e-05,-8.945314969531802985e-06
3.138095238095238049e+00,1.692493765774551781e-05,1.452122951259438535e-05
3.138888888888888840e+00,1.548353103865842095e-05,3.822668242183438329e-05
3.139682539682539630e+00,1.347692822907079533e-05,5.930633455900472445e-05
3.140476190476190421e+00,1.127149186268911203e-05,7.522127121511749319e-05
3.141269841269841212e+00,9.095126538909303299e-06,8.404166237232853936e-05
3.142063492063492003e+00,6.996107587348591664e-06,8.466245949997207212e-05
3.142857142857142794e+00,4.878789333771550390e-06,7.695369470750017824e-05
3.143650793650793585e+00,2.606979315815287230e-06,6.183108638543619658e-05
3.144444444444444375e+00,1.353672884925878113e-07,4.120842741252825120e-05
3.145238095238095166e+00,-2.386938518292852042e-06,1.778477954239346382e-05
3.146031746031745957e+00,-4.590481736515000432e-06,-5.353094748656690718e-06
3.146825396825396748e+00,-5.959654560282057105e-06,-2.526886404900322036e-05
3.147619047619047539e+00,-5.991429612824483433e-06,-3.973517233443023950e-05
3.148412698412698330e+00,-4.387909355260479682e-06,-4.764632797202444123e-05
3.149206349206349120e+00,-1.213658248588992487e-06,-4.914289110303689809e-05
3.149999999999999911e+00,3.043612334843028199e-06,-4.540601871861592998e-05
3.150793650793650702e+00,7.538067017817432514e-06,-3.820937784402032638e-05
3.151587301587301493e+00,1.124151537127557436e-05,-2.940582437891960067e-05
3.152380952380952284e+00,1.317858948549950316e-05,-2.053069843035331123e-05
3.153174603174603075e+00,1.265588260494645283e-05,-1.262825223515141595e-05
3.153968253968253865e+00,9.429036027896966585e-06,-6.294262448760289331e-06
3.154761904761904656e+00,3.774090146877525328e-06,-1.833248391740986296e-06
3.155555555555555447e+00,-3.547176370757674509e-06,6.007838632521840961e-07
3.156349206349206238e+00,-1.141830277715938939e-05,9.670902109158390022e-07
3.157142857142857029e+00,-1.856924196320355037e-05,-5.915236772214373779e-07
3.157936507936507819e+00,-2.380846566198524907e-05,-3.637847156829305488e-06
3.158730158730158610e+00,-2.624124079863045719e-05,-7.379880224641098595e-06
3.159523809523809401e+00,-2.543193943341351447e-05,-1.072372698090223701e-05
3.160317460317460192e+00,-2.147912214727547108e-05,-1.244465552254980216e-05
3.161111111111110983e+00,-1.498947488401891357e-05,-1.143038304871287160e-05
3.161904761904761774e+00,-6.957200698797934529e-06,-6.933215602847867714e-06
3.162698412698412564e+00,1.425266717950402525e-06,1.218614000566716746e-06
3.163492063492063355e+00,8.985311924734840707e-06,1.247923498723540640e-05
3.164285714285714146e+00,1.477091543795312074e-05,2.553506419607304032e-05
3.165079365079364937e+00,1.819231050681890729e-05,3.837600158521526240e-05
3.165873015873015728e+00,1.907862047579352631e-05,4.852181894209535608e-05
3.166666666666666519e+00,1.764804299901218888e-05,5.341846858083575659e-05
3.167460317460317309e+00,1.441350208929931137e-05,5.096986260021849421e-05
3.168253968253968100e+00,1.005767476913363017e-05,4.010577793464336260e-05
3.169047619047618891e+00,5.308893500950545281e-06,2.123467942203749079e-05
3.169841269841269682e+00,8.378641552947386110e-07,-3.580053063403711069e-06
3.170634920634920473e+00,-2.817685665738960991e-06,-3.083469050954600922e-05
3.171428571428571264e+00,-5.301842539531947748e-06,-5.620231678511504144e-05
3.172222222222222054e+00,-6.466371633206354538e-06,-7.543219339837117581e-05
3.173015873015872845e+00,-6.373965640231018243e-06,-8.529692126138436299e-05
3.173809523809523636e+00,-5.274991371608346301e-06,-8.431228197456938742e-05
3.174603174603174427e+00,-3.554317608866807704e-06,-7.301685816998459858e-05
3.175396825396825218e+00,-1.652797903571900757e-06,-5.374318191434054886e-05
3.176190476190476009e+00,2.027982879311356123e-08,-2.997802887910797065e-05
3.176984126984126799e+00,1.160407026942007374e-06,-5.528680406687427769e-06
3.177777777777777590e+00,1.607330258817595922e-06,1.625827439580550824e-05
3.178571428571428381e+00,1.345054948834375833e-06,3.303849763996491212e-05
3.179365079365079172e+00,4.717732975331524915e-07,4.369264323705701711e-05
3.180158730158729963e+00,-8.429400834065645249e-07,4.825367560877496631e-05
3.180952380952380754e+00,-2.398349068783806689e-06,4.762606304710221476e-05
3.181746031746031544e+00,-3.992995124549492536e-06,4.320685504422681385e-05
3.182539682539682335e+00,-5.446021533301000894e-06,3.651303250876019072e-05
3.183333333333333126e+00,-6.613501231559600992e-06,2.889558323334385684e-05
3.184126984126983917e+00,-7.402309864070366036e-06,2.138299693334346749e-05
3.184920634920634708e+00,-7.779438333672332017e-06,1.465230483649247560e-05
3.185714285714285499e+00,-7.770846437458787763e-06,9.087338698290794661e-06
3.186507936507936289e+00,-7.445449122879915614e-06,4.865111179333417806e-06
3.187301587301587080e+00,-6.887131786599246578e-06,2.019255253516987065e-06
3.188095238095238315e+00,-6.164949452790833445e-06,4.602372848486535247e-07
3.188888888888889106e+00,-5.312122378803895254e-06,-3.098622496055014780e-08
3.189682539682539897e+00,-4.318465862448179818e-06,2.019133109442751378e-07
3.190476190476190688e+00,-3.135189140170482383e-06,7.376400127513956452e-07
3.191269841269841478e+00,-1.690024751915504355e-06,1.169733974349585316e-06
3.192063492063492269e+00,8.783016565515457634e-08,1.218591548114995640e-06
3.192857142857143060e+00,2.234244035441049526e-06,8.215244229105348621e-07
3.193650793650793851e+00,4.714068633511543032e-06,1.622754660172676519e-07
3.194444444444444642e+00,7.393888588790692712e-06,-3.803648248453838023e-07
3.195238095238095433e+00,1.003643642537041645e-05,-3.600652061196710859e-07
3.196031746031746223e+00,1.232381828737327770e-05,5.616672055809676152e-07
3.196825396825397014e+00,1.390631303523869485e-05,2.439384012300251493e-06
3.197619047619047805e+00,1.446480181036037311e-05,4.928210499432122076e-06
3.198412698412698596e+00,1.377258229432087260e-05,7.292159293971306942e-06
3.199206349206349387e+00,1.174557706726997626e-05,8.573674568153086630e-06
3.200000000000000178e+00,8.474183337398755284e-06,7.902652265151265378e-06
3.200793650793650968e+00,4.231879677372751201e-06,4.850105161424495571e-06
3.201587301587301759e+00,-5.440273115936431154e-07,-3.155008464982367815e-07
3.202380952380952550e+00,-5.302195910323034244e-06,-6.597341274159846906e-06
3.203174603174603341e+00,-9.454786634873321561e-06,-1.251294250567788344e-05
3.203968253968254132e+00,-1.247218636091509486e-05,-1.654527494842245681e-05
3.204761904761904923e+00,-1.397711403328494607e-05,-1.764498589951131422e-05
3.205555555555555713e+00,-1.381622488986340602e-05,-1.560167462853730087e-05
3.206349206349206504e+00,-1.208886592083797354e-05,-1.115261761358026755e-05
3.207142857142857295e+00,-9.121547534022456211e-06,-5.792594443715427414e-06
3.207936507936508086e+00,-5.391831760577882934e-06,-1.345213053869811222e-06
3.208730158730158877e+00,-1.421501734312684337e-06,5.755767856283600700e-07
3.209523809523809668e+00,2.330661264156504655e-06,-9.428981637766654860e-07
3.210317460317460458e+00,5.545976971226108171e-06,-5.809153870539000904e-06
3.211111111111111249e+00,8.072935265447658343e-06,-1.290099461677598104e-05
3.211904761904762040e+00,9.902089216781184054e-06,-2.032408234134317978e-05
3.212698412698412831e+00,1.110487157120786408e-05,-2.588734416954843596e-05
3.213492063492063622e+00,1.176383974107041722e-05,-2.767482636849184034e-05
3.214285714285714413e+00,1.192144872874454414e-05,-2.457450280259203086e-05
3.215079365079365203e+00,1.156285889236029672e-05,-1.663403944126821100e-05
3.215873015873015994e+00,1.063260419821413739e-05,-5.145212505336830521e-06
3.216666666666666785e+00,9.073898904472098794e-06,7.589761846250240249e-06
3.217460317460317576e+00,6.876049011331100856e-06,1.878601519053152720e-05
3.218253968253968367e+00,4.116094976324141567e-06,2.589121101150354477e-05
3.219047619047619158e+00,9.812277390753090207e-07,2.730684340104371898e-05
3.219841269841269948e+00,-2.240112510476051375e-06,2.289962018028239912e-05
3.220634920634920739e+00,-5.203756639715638644e-06,1.412090589340645032e-05
3.221428571428571530e+00,-7.584260354080274510e-06,3.659695331936703652e-06
3.222222222222222321e+00,-9.156810331254276364e-06,-5.295745057805962264e-06
3.223015873015873112e+00,-9.857853143450595327e-06,-9.976666410042877271e-06
3.223809523809523903e+00,-9.799688677123988541e-06,-8.854001799885485405e-06
3.224603174603174693e+00,-9.229561194504774202e-06,-2.107021864174363018e-06
3.225396825396825484e+00,-8.445078410774671846e-06,8.402736237161910436e-06
3.226190476190476275e+00,-7.695521862460771685e-06,1.964409980197706363e-05
3.226984126984127066e+00,-7.103979533270819577e-06,2.826653775721099757e-05
3.227777777777777857e+00,-6.635928947622617857e-06,3.154921841497904084e-05
3.228571428571428648e+00,-6.121444179897894542e-06,2.818736747453216715e-05
3.229365079365079438e+00,-5.319834512715515962e-06,1.869684683328629653e-05
3.230158730158730229e+00,-4.004375923157849833e-06,5.315080600343536318e-06
3.230952380952381020e+00,-2.042786977996489617e-06,-8.588024179470725347e-06
3.231746031746031811e+00,5.462434731445990045e-07,-1.943273438265072278e-05
3.232539682539682602e+00,3.572692247154639466e-06,-2.442448807944786206e-05
3.233333333333333393e+00,6.695266210132266009e-06,-2.233317339302546038e-05
3.234126984126984183e+00,9.478126964094966709e-06,-1.383192552572996434e-05
3.234920634920634974e+00,1.147289192461865149e-05,-1.302471111496935327e-06
3.235714285714285765e+00,1.230914185044796650e-05,1.182899823659390277e-05
