Timestamp,Flexor carpi radialis,Extensor digitorum
2.000000000000000000e+00,-2.611617754989029909e-06,-4.791064091312121515e-06
2.000793650793650791e+00,-1.913386115196297661e-06,-6.583225270503724038e-06
2.001587301587301582e+00,-1.248029723266781802e-06,-7.494110332080926120e-06
2.002380952380952372e+00,-6.110236999479219292e-07,-7.271538165163822124e-06
2.003174603174603163e+00,3.409524966260487554e-08,-5.861937922819816792e-06
2.003968253968253954e+00,7.386479129849672429e-07,-3.449138665874346062e-06
2.004761904761904745e+00,1.546254721230428635e-06,-4.343423326909166215e-07
2.005555555555555536e+00,2.470338093926759812e-06,2.637760317800292308e-06
2.006349206349206327e+00,3.476760295997645540e-06,5.187458809028112036e-06
2.007142857142857117e+00,4.475449735849049794e-06,6.717646040544679453e-06
2.007936507936507908e+00,5.324101337260754502e-06,6.916047015250159658e-06
2.008730158730158699e+00,5.846358649994456356e-06,5.722467401506725249e-06
2.009523809523809490e+00,5.864650646095687462e-06,3.348503061347722047e-06
2.010317460317460281e+00,5.243343162656886678e-06,2.453877482422523088e-07
2.011111111111111072e+00,3.932596617773764763e-06,-2.975638839710964628e-06
2.011904761904761862e+00,2.000093044827271552e-06,-5.657545339606253536e-06
2.012698412698412653e+00,-3.611619011228905574e-07,-7.225547828510063721e-06
2.013492063492063444e+00,-2.854928844949362571e-06,-7.302652376818025898e-06
2.014285714285714235e+00,-5.130973397207696330e-06,-5.786503625293026298e-06
2.015079365079365026e+00,-6.851079445004495429e-06,-2.869349206360377135e-06
2.015873015873015817e+00,-7.757844901391136740e-06,1.003228247856418348e-06
2.016666666666666607e+00,-7.731663198554842721e-06,5.224037523253009734e-06
2.017460317460317398e+00,-6.821524507096673456e-06,9.142979272023585364e-06
2.018253968253968189e+00,-5.238011010162468114e-06,1.218242622032501783e-05
2.019047619047618980e+00,-3.305639115892230908e-06,1.392226274238037988e-05
2.019841269841269771e+00,-1.384889344209025878e-06,1.414103367214375501e-05
2.020634920634920562e+00,2.153670603679317411e-07,1.281540892750314353e-05
2.021428571428571352e+00,1.312218821158286627e-06,1.008874536189441362e-05
2.022222222222222143e+00,1.892131109808383405e-06,6.220365084183817752e-06
2.023015873015872934e+00,2.113654059138559010e-06,1.527734516997165361e-06
2.023809523809523725e+00,2.267592396505695664e-06,-3.662666385327019545e-06
2.024603174603174516e+00,2.700634177072580369e-06,-9.039954104795426841e-06
2.025396825396825307e+00,3.716554744061097195e-06,-1.430312492573963595e-05
2.026190476190476097e+00,5.476375875649385047e-06,-1.913446607986956722e-05
2.026984126984126888e+00,7.922560543386760203e-06,-2.317078118344006175e-05
2.027777777777777679e+00,1.074981417621532990e-05,-2.599036404435054948e-05
2.028571428571428470e+00,1.343549488350747916e-05,-2.712850302270624391e-05
2.029365079365079261e+00,1.532790714436806028e-05,-2.612932631725062554e-05
2.030158730158730052e+00,1.577544709926410619e-05,-2.263460593984539535e-05
2.030952380952380842e+00,1.426923229717292035e-05,-1.649763033931245549e-05
2.031746031746031633e+00,1.056967516229975744e-05,-7.896263346722162419e-06
2.032539682539682424e+00,4.791992641529813089e-06,2.587735240138149963e-06
2.033333333333333215e+00,-2.567079532176502004e-06,1.395225376238725415e-05
2.034126984126984006e+00,-1.067067857949539450e-05,2.484022336921041586e-05
2.034920634920634797e+00,-1.844947720358637520e-05,3.369541830982671386e-05
2.035714285714285587e+00,-2.476010865510006430e-05,3.900553060114035322e-05
2.036507936507936378e+00,-2.856749061787829336e-05,3.961035139144128956e-05
2.037301587301587169e+00,-2.911997490342036211e-05,3.502549413312241756e-05
2.038095238095237960e+00,-2.608836854904732385e-05,2.570497984018250859e-05
2.038888888888888751e+00,-1.964429330920712611e-05,1.315235182907797883e-05
2.039682539682539542e+00,-1.046008234814271059e-05,-1.980788422264040377e-07
2.040476190476190332e+00,3.746316741551696046e-07,-1.136371833479936950e-05
2.041269841269841123e+00,1.150624221874545897e-05,-1.742211183315207340e-05
2.042063492063491914e+00,2.151222656221748339e-05,-1.623009077840613626e-05
2.042857142857142705e+00,2.910537627496617168e-05,-7.082041425421897735e-06
2.043650793650793496e+00,3.331783067485245717e-05,8.881468325831272826e-06
2.044444444444444287e+00,3.363925155746936836e-05,2.867322394013560848e-05
2.045238095238095077e+00,3.008642179206311911e-05,4.794373196934803311e-05
2.046031746031745868e+00,2.318864772546302676e-05,6.189756064345952103e-05
2.046825396825396659e+00,1.388808465093183796e-05,6.643963629212308142e-05
2.047619047619047450e+00,3.373402759457334391e-06,5.923954742238890622e-05
2.048412698412698241e+00,-7.118314843651595181e-06,4.039555610507561238e-05
2.049206349206349032e+00,-1.648875159076926129e-05,1.249709068108569150e-05
2.049999999999999822e+00,-2.391488789098856140e-05,-1.992657931616328325e-05
2.050793650793650613e+00,-2.890950360199430463e-05,-5.141066138327853827e-05
2.051587301587301404e+00,-3.130457883838540993e-05,-7.675197789459064558e-05
2.052380952380952195e+00,-3.118266818689581531e-05,-9.211588736530351891e-05
2.053174603174602986e+00,-2.879617592994282806e-05,-9.580192050139869648e-05
2.053968253968253777e+00,-2.451002993840534585e-05,-8.849393285324666991e-05
2.054761904761904567e+00,-1.878288481304288957e-05,-7.294199128054106886e-05
2.055555555555555358e+00,-1.217639181774850551e-05,-5.317140034590721927e-05
2.056349206349206149e+00,-5.362804259093600551e-06,-3.344384694287484623e-05
2.057142857142856940e+00,9.029796153164258164e-07,-1.725631414901994745e-05
2.057936507936507731e+00,5.866822291259004848e-06,-6.632665197818736012e-06
2.058730158730158522e+00,8.907332229329323187e-06,-1.858301506947340092e-06
2.059523809523809312e+00,9.682689530634780453e-06,-1.674111380658627386e-06
2.060317460317460103e+00,8.244600365935443880e-06,-3.827319882806674042e-06
2.061111111111110894e+00,5.076726602187119498e-06,-5.801612218746693134e-06
2.061904761904761685e+00,1.036014212652144645e-06,-5.525231616716414931e-06
2.062698412698412920e+00,-2.796917718357970484e-06,-1.881262463300776728e-06
2.063492063492063711e+00,-5.328242459834977172e-06,5.089555029582332367e-06
2.064285714285714501e+00,-5.678307552196741815e-06,1.431455373461703154e-05
2.065079365079365292e+00,-3.378464228264216440e-06,2.407985244702349968e-05
2.065873015873016083e+00,1.505379908785606099e-06,3.256396871970387250e-05
2.066666666666666874e+00,8.352526233366199286e-06,3.836680147777543512e-05
2.067460317460317665e+00,1.608002261824879463e-05,4.089137453627150911e-05
2.068253968253968456e+00,2.333232712156065006e-05,4.047221827948625040e-05
2.069047619047619246e+00,2.872959576506522319e-05,3.821398841047549767e-05
2.069841269841270037e+00,3.112266214839518036e-05,3.559138907659693466e-05
2.070634920634920828e+00,2.980352559833283744e-05,3.393460089478495683e-05
2.071428571428571619e+00,2.463478673611622750e-05,3.395786797313830982e-05
2.072222222222222410e+00,1.608325276417914323e-05,3.547775109659172775e-05
2.073015873015873201e+00,5.161777125791030724e-06,3.741775364296189108e-05
2.073809523809523991e+00,-6.707271247147488470e-06,3.811392697319319103e-05
2.074603174603174782e+00,-1.789173574049348456e-05,3.583581173232206374e-05
2.075396825396825573e+00,-2.679504507060733142e-05,2.935339489540396594e-05
2.076190476190476364e+00,-3.212032516886516580e-05,1.835850102007979004e-05
2.076984126984127155e+00,-3.311143038668192950e-05,3.607063841814842060e-06
2.077777777777777946e+00,-2.971710706835549069e-05,-1.324234583364251342e-05
2.078571428571428736e+00,-2.262585062585586963e-05,-3.001486449689395639e-05
2.079365079365079527e+00,-1.314059955672648375e-05,-4.449633680122838160e-05
2.080158730158730318e+00,-2.904095041983455202e-06,-5.486867039905786529e-05
2.080952380952381109e+00,6.462839823213240882e-06,-6.001235091203684904e-05
2.081746031746031900e+00,1.370891005720912450e-05,-5.963771116331038831e-05
2.082539682539682691e+00,1.818330022393675714e-05,-5.425058654844875825e-05
2.083333333333333481e+00,1.989029564206849535e-05,-4.498611438398715133e-05
2.084126984126984272e+00,1.937245752542057854e-05,-3.335842613073904762e-05
2.084920634920635063e+00,1.747981669315336485e-05,-2.097887027161135477e-05
2.085714285714285854e+00,1.510471704750508161e-05,-9.295346729595198369e-06
2.086507936507936645e+00,1.295563282825051949e-05,6.006283495338367368e-07
2.087301587301587436e+00,1.141910352311832440e-05,8.069114239076762409e-06
2.088095238095238226e+00,1.052761784111022740e-05,1.291609107190437475e-05
2.088888888888889017e+00,1.002214321031414502e-05,1.531106212251417045e-05
2.089682539682539808e+00,9.477851399857561477e-06,1.566706527398528738e-05
2.090476190476190599e+00,8.453171504277361560e-06,1.452027904688623462e-05
2.091269841269841390e+00,6.624489924612842880e-06,1.243240841272563808e-05
2.092063492063492181e+00,3.878322839040270637e-06,9.922705590596118960e-06
2.092857142857142971e+00,3.456424761958294102e-07,7.425745950516742545e-06
2.093650793650793762e+00,-3.624131984813784507e-06,5.268592574412837298e-06
2.094444444444444553e+00,-7.540532771477967594e-06,3.664361717293912339e-06
2.095238095238095344e+00,-1.088155894221774386e-05,2.723084702595240558e-06
2.096031746031746135e+00,-1.320811001062436694e-05,2.479769830664092460e-06
2.096825396825396925e+00,-1.425493089787800751e-05,2.932376788544082454e-06
2.097619047619047716e+00,-1.397789166349867579e-05,4.074031918830084065e-06
2.098412698412698507e+00,-1.255124865689814260e-05,5.901917640131832863e-06
2.099206349206349298e+00,-1.032070624425928814e-05,8.393304396941738882e-06
2.100000000000000089e+00,-7.725434363925076872e-06,1.145388147528028698e-05
2.100793650793650880e+00,-5.206491121640334376e-06,1.485840629645552234e-05
2.101587301587301670e+00,-3.121531476772565127e-06,1.821278072857725793e-05
2.102380952380952461e+00,-1.684340814293477376e-06,2.096545489217517034e-05
2.103174603174603252e+00,-9.410921843650570122e-07,2.248251846090133956e-05
2.103968253968254043e+00,-7.851880684997767936e-07,2.217824305046047824e-05
2.104761904761904834e+00,-1.003071757375899367e-06,1.967017302201341691e-05
2.105555555555555625e+00,-1.337420777053191109e-06,1.491466467895874864e-05
2.106349206349206415e+00,-1.552296215554089863e-06,8.279490783761578559e-06
2.107142857142857206e+00,-1.486278683603885078e-06,5.239745962510470614e-07
2.107936507936507997e+00,-1.083295653857336335e-06,-7.319309018415570303e-06
2.108730158730158788e+00,-3.959354276646944066e-07,-1.413951432627026490e-05
2.109523809523809579e+00,4.379264008962515124e-07,-1.897357418527950200e-05
2.110317460317460370e+00,1.238006531470117178e-06,-2.120601052871010921e-05
2.111111111111111160e+00,1.831745648618935620e-06,-2.069064780696532759e-05
2.111904761904761951e+00,2.097904242766252468e-06,-1.776393024965813974e-05
2.112698412698412742e+00,1.992792707155247287e-06,-1.315027068369691729e-05
2.113492063492063533e+00,1.554383759143953835e-06,-7.789410003204756965e-06
2.114285714285714324e+00,8.863484555688159757e-07,-2.634335701109993302e-06
2.115079365079365115e+00,1.295501859931617228e-07,1.528981263426219143e-06
2.115873015873015905e+00,-5.689587352870296057e-07,4.200289005793542893e-06
2.116666666666666696e+00,-1.081068170522472855e-06,5.203107217304850147e-06
2.117460317460317487e+00,-1.313650101026189368e-06,4.647439717873493134e-06
2.118253968253968278e+00,-1.217694646500235489e-06,2.843922474189872168e-06
2.119047619047619069e+00,-7.946536409811122881e-07,2.059616010717920080e-07
2.119841269841269860e+00,-1.013591245084778233e-07,-2.830504558082462533e-06
2.120634920634920650e+00,7.499731915113325810e-07,-5.857998467572342826e-06
2.121428571428571441e+00,1.602776373216977318e-06,-8.524215732965049574e-06
2.122222222222222232e+00,2.281976056789914435e-06,-1.054630438649765786e-05
2.123015873015873023e+00,2.631737923418898625e-06,-1.172208279900118832e-05
2.123809523809523814e+00,2.554706926998700341e-06,-1.194057101917163818e-05
2.124603174603174605e+00,2.038715930171132036e-06,-1.118823235996570231e-05
2.125396825396825395e+00,1.160309720765606011e-06,-9.546329451893320524e-06
2.126190476190476186e+00,6.333432189184285922e-08,-7.178356871547426908e-06
2.126984126984126977e+00,-1.079803428136129803e-06,-4.310377664807499939e-06
2.127777777777777768e+00,-2.111012282136946243e-06,-1.208061495701820269e-06
2.128571428571428559e+00,-2.919656466631019665e-06,1.847260610219281717e-06
2.129365079365079350e+00,-3.456110965550404235e-06,4.583096216011062293e-06
2.130158730158730140e+00,-3.723846605501286595e-06,6.761260909585959113e-06
2.130952380952380931e+00,-3.757127276571217678e-06,8.204003926264107185e-06
2.131746031746031722e+00,-3.596504371947239563e-06,8.818656616943325468e-06
2.132539682539682513e+00,-3.272693823560533115e-06,8.617095371580916674e-06
2.133333333333333304e+00,-2.803366699459689577e-06,7.725858618971454073e-06
2.134126984126984095e+00,-2.201407961346843242e-06,6.382828054397227558e-06
2.134920634920634885e+00,-1.489123613628833514e-06,4.916025840086028642e-06
2.135714285714285676e+00,-7.101552203171949651e-07,3.700040719277625370e-06
2.136507936507936467e+00,6.956064380685682328e-08,3.088277279513280783e-06
2.137301587301587258e+00,7.764125815878640472e-07,3.326270072395569564e-06
2.138095238095238049e+00,1.355937683323428536e-06,4.461803206472210895e-06
2.138888888888888840e+00,1.800538563883318757e-06,6.278136366551627739e-06
2.139682539682539630e+00,2.163437795857281937e-06,8.281874189261932795e-06
2.140476190476190421e+00,2.547683603896804710e-06,9.770739794487767776e-06
2.141269841269841212e+00,3.068730935968281512e-06,9.985529829721632303e-06
2.142063492063492003e+00,3.801898101781196640e-06,8.319025223084515263e-06
2.142857142857142794e+00,4.736069958748472971e-06,4.524487555606781696e-06
2.143650793650793585e+00,5.755849434950639879e-06,-1.147682478905039887e-06
2.144444444444444375e+00,6.663507360766687891e-06,-7.944008331218362052e-06
2.145238095238095166e+00,7.234739506535352250e-06,-1.475225392167814836e-05
2.146031746031745957e+00,7.288051311770445744e-06,-2.036186689721948605e-05
2.146825396825396748e+00,6.742975897054862098e-06,-2.376056534931125620e-05
2.147619047619047539e+00,5.646848261754428875e-06,-2.437138981292368437e-05
2.148412698412698330e+00,4.159994683705483859e-06,-2.215877984957343748e-05
2.149206349206349120e+00,2.502945339164960973e-06,-1.758520471385274051e-05
2.149999999999999911e+00,8.845523722925006910e-07,-1.145445514883033847e-05
2.150793650793650702e+00,-5.596973316037475836e-07,-4.708250213232543593e-06
2.151587301587301493e+00,-1.792715518809760714e-06,1.759170600602251544e-06
2.152380952380952284e+00,-2.855253209359903447e-06,7.228522701752124165e-06
2.153174603174603075e+00,-3.813359169229200126e-06,1.121524165968005504e-05
2.153968253968253865e+00,-4.701506181168192031e-06,1.347397598884471272e-05
2.154761904761904656e+00,-5.487959145828079888e-06,1.397000286785405442e-05
2.155555555555555447e+00,-6.076055329727476997e-06,1.283951828146299434e-05
2.156349206349206238e+00,-6.338197138517284012e-06,1.035460047729108782e-05
2.157142857142857029e+00,-6.165477611758592417e-06,6.899066739022393314e-06
2.157936507936507819e+00,-5.509668630504868776e-06,2.950358735699172415e-06
2.158730158730158610e+00,-4.398394264682158457e-06,-9.462823370264527671e-07
2.159523809523809401e+00,-2.918045497152094538e-06,-4.226569567331758816e-06
2.160317460317460192e+00,-1.176922293945854785e-06,-6.385153176163827876e-06
2.161111111111110983e+00,7.264520026832703563e-07,-7.072641394958799655e-06
2.161904761904761774e+00,2.707017631284435555e-06,-6.185680965569328330e-06
2.162698412698412564e+00,4.663840256939726781e-06,-3.917933102408170156e-06
2.163492063492063355e+00,6.436050316156741612e-06,-7.472939639505421132e-07
2.164285714285714146e+00,7.776157519935474977e-06,2.646884258087417912e-06
2.165079365079364937e+00,8.368194449984266966e-06,5.521391777281648948e-06
2.165873015873015728e+00,7.897839264733375660e-06,7.230580316843570303e-06
2.166666666666666519e+00,6.156784433720072699e-06,7.374965078544916904e-06
2.167460317460317309e+00,3.146042711431192352e-06,5.903593353187187961e-06
2.168253968253968100e+00,-8.606326765647724695e-07,3.145070848911658904e-06
2.169047619047618891e+00,-5.321636385527027461e-06,-2.456987945837715628e-07
2.169841269841269682e+00,-9.509856813363328149e-06,-3.420892083792146391e-06
2.170634920634920473e+00,-1.265971345137457140e-05,-5.528648704185285448e-06
2.171428571428571264e+00,-1.414640374539625993e-05,-5.915345099149337992e-06
2.172222222222222054e+00,-1.365139524282371812e-05,-4.291422171980391684e-06
2.173015873015872845e+00,-1.126573279955761836e-05,-8.164538303189674668e-07
2.173809523809523636e+00,-7.494909566588572057e-06,3.922035910456363484e-06
2.174603174603174427e+00,-3.154461807869495925e-06,9.033076666891500292e-06
2.175396825396825218e+00,8.226828768706401880e-07,1.351828784836273147e-05
2.176190476190476009e+00,3.617022416856636026e-06,1.648973808788737930e-05
2.176984126984126799e+00,4.725192620589816996e-06,1.735827799021625714e-05
2.177777777777777590e+00,4.073902117495805681e-06,1.595194204765004893e-05
2.178571428571428381e+00,2.013664430940942030e-06,1.254085027965716905e-05
2.179365079365079172e+00,-7.971303367201954738e-07,7.764533646739152524e-06
2.180158730158729963e+00,-3.572215428814741014e-06,2.479184873291025688e-06
2.180952380952380754e+00,-5.583043882025340999e-06,-2.437313483100178415e-06
2.181746031746031544e+00,-6.302650087210101141e-06,-6.272915862518710115e-06
2.182539682539682335e+00,-5.486113592111677954e-06,-8.614284480371855378e-06
2.183333333333333126e+00,-3.192047902935984971e-06,-9.393871093119333419e-06
2.184126984126983917e+00,2.364718194110866424e-07,-8.844443021876225586e-06
2.184920634920634708e+00,4.216448471166880048e-06,-7.380715066318681462e-06
2.185714285714285499e+00,7.994823312282351612e-06,-5.449590326772584834e-06
2.186507936507936289e+00,1.075578459475344959e-05,-3.400256496048181805e-06
2.187301587301587080e+00,1.177345954840174373e-05,-1.417610481997892054e-06
2.188095238095238315e+00,1.059471235542918185e-05,4.618311159015461034e-07
2.188888888888889106e+00,7.207024658263673806e-06,2.265112915278399055e-06
2.189682539682539897e+00,2.130415258064200907e-06,3.971371928917429456e-06
2.190476190476190688e+00,-3.616058609836373969e-06,5.427768989499250532e-06
2.191269841269841478e+00,-8.686682759169237199e-06,6.334608114097684800e-06
2.192063492063492269e+00,-1.169108848426037699e-05,6.310269246764710658e-06
2.192857142857143060e+00,-1.152492177442199433e-05,5.013042970219201885e-06
2.193650793650793851e+00,-7.673776364061403465e-06,2.277268076445205194e-06
2.194444444444444642e+00,-4.148558453603831503e-07,-1.780090734260791031e-06
2.195238095238095433e+00,9.146663659585774548e-06,-6.715304311274029525e-06
2.196031746031746223e+00,1.924098306889551635e-05,-1.179313348919360340e-05
2.196825396825397014e+00,2.778419644344969636e-05,-1.610064952980353701e-05
2.197619047619047805e+00,3.284601313635404163e-05,-1.872094044418153139e-05
2.198412698412698596e+00,3.311782640541733219e-05,-1.893334684655892692e-05
2.199206349206349387e+00,2.825283785117964057e-05,-1.639820778508835458e-05
2.200000000000000178e+00,1.898382612480084227e-05,-1.128292482059611959e-05
2.200793650793650968e+00,6.987820957655634773e-06,-4.293715290844484494e-06
2.201587301587301759e+00,-5.467192102051563425e-06,3.406887796796278026e-06
2.202380952380952550e+00,-1.600933856992828015e-05,1.039620463843159862e-05
2.203174603174603341e+00,-2.267309786725115608e-05,1.527677283647286476e-05
2.203968253968254132e+00,-2.431902695089742817e-05,1.699833585834970243e-05
2.204761904761904923e+00,-2.086921238714331306e-05,1.513750897816128320e-05
2.205555555555555713e+00,-1.330563593217114347e-05,1.004814060205687582e-05
2.206349206349206504e+00,-3.434146574182652957e-06,2.820264081846839358e-06
2.207142857142857295e+00,6.526555427675976019e-06,-4.959849785686635401e-06
2.207936507936508086e+00,1.443106910248953817e-05,-1.159289338180036654e-05
2.208730158730158877e+00,1.865673646620588275e-05,-1.569076638495123558e-05
2.209523809523809668e+00,1.842088027934644180e-05,-1.652468827362322108e-05
2.210317460317460458e+00,1.390471273362398415e-05,-1.419895501061667470e-05
2.211111111111111249e+00,6.163291744945708522e-06,-9.599779144531413777e-06
2.211904761904762040e+00,-3.158774917615771463e-06,-4.133523076653184123e-06
2.212698412698412831e+00,-1.224608775026252535e-05,6.694274393815981966e-07
2.213492063492063622e+00,-1.956666635231816434e-05,3.572301927245770826e-06
2.214285714285714413e+00,-2.423621491265921189e-05,3.957818124515802967e-06
2.215079365079365203e+00,-2.617753886439012478e-05,1.979287974098257562e-06
2.215873015873015994e+00,-2.602244187985481216e-05,-1.497846364005575728e-06
2.216666666666666785e+00,-2.479816654660728069e-05,-5.144102383093822743e-06
2.217460317460317576e+00,-2.351941084404368109e-05,-7.533601916507986758e-06
2.218253968253968367e+00,-2.282866894033342271e-05,-7.530268631512184684e-06
2.219047619047619158e+00,-2.278919124121298151e-05,-4.592259617592495737e-06
2.219841269841269948e+00,-2.286953114619889293e-05,1.074597180162418980e-06
2.220634920634920739e+00,-2.210384946881176790e-05,8.538829743871259245e-06
2.221428571428571530e+00,-1.938120576191596541e-05,1.632636785859392019e-05
2.222222222222222321e+00,-1.380031213636593328e-05,2.272530242030995881e-05
2.223015873015873112e+00,-5.011380734830324151e-06,2.615765533479096048e-05
2.223809523809523903e+00,6.545856741373684647e-06,2.555026579965719434e-05
2.224603174603174693e+00,1.959479645137794180e-05,2.062627367302109608e-05
2.225396825396825484e+00,3.221388468110587046e-05,1.203978335072984453e-05
2.226190476190476275e+00,4.224259538257859952e-05,1.299568765912685097e-06
2.226984126984127066e+00,4.779408407819787832e-05,-9.524368860191540341e-06
2.227777777777777857e+00,4.772011271708843379e-05,-1.825526823479946116e-05
2.228571428571428648e+00,4.188973286431164753e-05,-2.311374993682812566e-05
2.229365079365079438e+00,3.121257366281427175e-05,-2.313642972865242241e-05
2.230158730158730229e+00,1.742247674323529948e-05,-1.839533774647819097e-05
2.230952380952381020e+00,2.699702832043326440e-06,-9.964459117017842628e-06
2.231746031746031811e+00,-1.076622957932902760e-05,3.470738050050790037e-07
2.232539682539682602e+00,-2.117942956090288514e-05,1.041634605877203126e-05
2.233333333333333393e+00,-2.743688924341309955e-05,1.827341863782439428e-05
2.234126984126984183e+00,-2.928038053987956990e-05,2.250458226543724095e-05
2.234920634920634974e+00,-2.727777826453260573e-05,2.250836562971895402e-05
2.235714285714285765e+00,-2.263066841125174739e-05,1.856080424882658174e-05
2.236507936507936556e+00,-1.683597829915842268e-05,1.169056678349545395e-05
2.237301587301587347e+00,-1.127377574687601615e-05,3.403790631917464505e-06
2.238095238095238138e+00,-6.834342636071594631e-06,-4.671976723064840228e-06
2.238888888888888928e+00,-3.706515468340487125e-06,-1.113980945685649097e-05
2.239682539682539719e+00,-1.407557471366470151e-06,-1.510027160993983547e-05
2.240476190476190510e+00,9.485713657389535597e-07,-1.627697787714800829e-05
2.241269841269841301e+00,4.237676297851030929e-06,-1.498467961570040914e-05
2.242063492063492092e+00,8.916036087739373357e-06,-1.196585819934808285e-05
2.242857142857142883e+00,1.476484269126595779e-05,-8.153088582521363393e-06
2.243650793650793673e+00,2.088257631337335404e-05,-4.427014109250267283e-06
2.244444444444444464e+00,2.592921555388407015e-05,-1.432099330689362129e-06
2.245238095238095255e+00,2.853436276543730305e-05,5.124761759665113273e-07
2.246031746031746046e+00,2.772453939578161164e-05,1.403507987413158375e-06
2.246825396825396837e+00,2.322545656237295241e-05,1.473254845232575911e-06
2.247619047619047628e+00,1.554944469551110029e-05,1.079415219612829007e-06
2.248412698412698418e+00,5.859874246741592134e-06,6.025310552450858581e-07
2.249206349206349209e+00,-4.322586827062196452e-06,3.711412247758169778e-07
2.250000000000000000e+00,-1.347017922921562256e-05,6.171309152844268924e-07
2.250793650793650791e+00,-2.035773019714401348e-05,1.452053703318710673e-06
2.251587301587301582e+00,-2.426601743562149696e-05,2.853235146188002634e-06
2.252380952380952372e+00,-2.505129475687865883e-05,4.655689853691491113e-06
2.253174603174603163e+00,-2.308762412240073454e-05,6.556733214547569360e-06
2.253968253968253954e+00,-1.911475903080881076e-05,8.146251390951761263e-06
2.254761904761904745e+00,-1.403962156049708264e-05,8.971626222332179469e-06
2.255555555555555536e+00,-8.741790574581646302e-06,8.633906421898603634e-06
2.256349206349206327e+00,-3.923832704126823351e-06,6.897412489027017925e-06
2.257142857142857117e+00,-2.974020634211693143e-08,3.784828562340789957e-06
2.257936507936507908e+00,2.765661650139973949e-06,-3.725904156561398846e-07
2.258730158730158699e+00,4.511148639435711880e-06,-4.953377948285157801e-06
2.259523809523809490e+00,5.402117461484587592e-06,-9.140849697001031656e-06
2.260317460317460281e+00,5.697401795664102335e-06,-1.208158180284180795e-05
2.261111111111111072e+00,5.648925181980261915e-06,-1.307401969753908510e-05
2.261904761904761862e+00,5.454925840384123295e-06,-1.174191342992969625e-05
2.262698412698412653e+00,5.239726922495846344e-06,-8.148150057079311682e-06
2.263492063492063444e+00,5.056652810966712703e-06,-2.817958045929567538e-06
2.264285714285714235e+00,4.906364671611944464e-06,3.338363530714093387e-06
2.265079365079365026e+00,4.761226853579486730e-06,9.190186525999329307e-06
2.265873015873015817e+00,4.587270700612943659e-06,1.360635760428312989e-05
2.266666666666666607e+00,4.358340905799891219e-06,1.568550269709150999e-05
2.267460317460317398e+00,4.061306886662158023e-06,1.494888043825806099e-05
2.268253968253968189e+00,3.695344908951413099e-06,1.145235448750139649e-05
2.269047619047618980e+00,3.270100669647904426e-06,5.786525300223971895e-06
2.269841269841269771e+00,2.805767662543520819e-06,-1.043446478975359787e-06
2.270634920634920562e+00,2.334131393430949692e-06,-7.835555394470465572e-06
2.271428571428571352e+00,1.896680314098439140e-06,-1.345283342095120008e-05
2.272222222222222143e+00,1.536314317340057431e-06,-1.705989732184931215e-05
2.273015873015872934e+00,1.282764624254893838e-06,-1.827236603083698838e-05
2.273809523809523725e+00,1.136296448950915884e-06,-1.718699406458707558e-05
2.274603174603174516e+00,1.056734637534476254e-06,-1.429868376041272311e-05
2.275396825396825307e+00,9.637313843331373226e-07,-1.034088884052864229e-05
2.276190476190476097e+00,7.503922955584437912e-07,-6.098952090839760349e-06
2.276984126984126888e+00,3.082084511722643968e-07,-2.243076395981506831e-06
2.277777777777777679e+00,-4.419016308183950709e-07,7.845711234742674462e-07
2.278571428571428470e+00,-1.519717078660115375e-06,2.810843603969873195e-06
2.279365079365079261e+00,-2.865219909857105245e-06,3.901923901999000033e-06
2.280158730158730052e+00,-4.334757819328439535e-06,4.282497108876366721e-06
2.280952380952380842e+00,-5.717705482333939027e-06,4.235388392685383022e-06
2.281746031746031633e+00,-6.771960015795073438e-06,4.014097230300803993e-06
2.282539682539682424e+00,-7.270969233400364544e-06,3.790246735320973775e-06
2.283333333333333215e+00,-7.051764262170712011e-06,3.641683589186452153e-06
2.284126984126984006e+00,-6.053776156852943405e-06,3.571954926099761457e-06
2.284920634920634797e+00,-4.340925355179166089e-06,3.543744260236475600e-06
2.285714285714285587e+00,-2.102700033432958577e-06,3.509810544384091294e-06
2.286507936507936378e+00,3.670726496580611058e-07,3.432744490190007702e-06
2.287301587301587169e+00,2.711956341211587514e-06,3.293472651065898632e-06
2.288095238095237960e+00,4.569969638718550387e-06,3.092449084493130293e-06
2.288888888888888751e+00,5.637698659900272082e-06,2.846121873591111884e-06
2.289682539682539542e+00,5.730733358268898361e-06,2.578385288360967063e-06
2.290476190476190332e+00,4.828152911523438161e-06,2.306821259741992623e-06
2.291269841269841123e+00,3.088921611762838635e-06,2.027890640132622094e-06
2.292063492063491914e+00,8.315691365738635150e-07,1.710752697645669954e-06
2.292857142857142705e+00,-1.523490138463454835e-06,1.310470488493416469e-06
2.293650793650793496e+00,-3.538767710876070799e-06,8.041526643340015948e-07
2.294444444444444287e+00,-4.851750818550905114e-06,2.400225685136670894e-07
2.295238095238095077e+00,-5.250176175624354564e-06,-2.227713852136209652e-07
2.296031746031745868e+00,-4.710409679865238965e-06,-3.082806390789144534e-07
2.296825396825396659e+00,-3.390059533462559620e-06,3.330803400313005984e-07
2.297619047619047450e+00,-1.579992795060121475e-06,2.033664187657695999e-06
2.298412698412698241e+00,3.684722053412654665e-07,4.986889558023766137e-06
2.299206349206349032e+00,2.121709182376808121e-06,9.122478076685976403e-06
2.299999999999999822e+00,3.429868828647847198e-06,1.401355108542935960e-05
2.300793650793650613e+00,4.168414100033148302e-06,1.885383464100316578e-05
2.301587301587301404e+00,4.348410847276207082e-06,2.253754225123567829e-05
2.302380952380952195e+00,4.095196272951399489e-06,2.385331982966490202e-05
2.303174603174602986e+00,3.601695577168282697e-06,2.176736883294660312e-05
2.303968253968253777e+00,3.068493611638431330e-06,1.573082436878229644e-05
2.304761904761904567e+00,2.645982992591800620e-06,5.920654971804286735e-06
2.305555555555555358e+00,2.393293312331083906e-06,-6.672725374444043904e-06
2.306349206349206149e+00,2.264463506550131860e-06,-2.036044166996859507e-05
2.307142857142856940e+00,2.125623513623858066e-06,-3.306263798110185620e-05
2.307936507936507731e+00,1.799091901971159073e-06,-4.273862303938928242e-05
2.308730158730158522e+00,1.122736539044733450e-06,-4.783018955264071531e-05
2.309523809523809312e+00,7.837483271455637697e-09,-4.760098330359126598e-05
2.310317460317460103e+00,-1.521664700894304411e-06,-4.228179151380752376e-05
2.311111111111110894e+00,-3.320347726022547924e-06,-3.298635799892787136e-05
2.311904761904761685e+00,-5.145255869566732381e-06,-2.142776055211531857e-05
2.312698412698412920e+00,-6.704757692750649919e-06,-9.518724371299704416e-06
2.313492063492063711e+00,-7.717380813629562923e-06,1.037085894729606717e-06
2.314285714285714501e+00,-7.964460713045601542e-06,9.065792917193133801e-06
2.315079365079365292e+00,-7.325317250844329729e-06,1.409435816316623875e-05
2.315873015873016083e+00,-5.791962088749865028e-06,1.635564071721013442e-05
2.316666666666666874e+00,-3.467847241770858657e-06,1.664995202508107606e-05
2.317460317460317665e+00,-5.587668195647048703e-07,1.610681405308130642e-05
2.318253968253968456e+00,2.637353425638018116e-06,1.589550491196697221e-05
2.319047619047619246e+00,5.740910504448415373e-06,1.693215895441240704e-05
2.319841269841270037e+00,8.308451858721931910e-06,1.963286160265036200e-05
2.320634920634920828e+00,9.870371298750094517e-06,2.376429235250884472e-05
2.321428571428571619e+00,9.998253712875693436e-06,2.843744978882014772e-05
2.322222222222222410e+00,8.398883887845983324e-06,3.226911344371479552e-05
2.323015873015873201e+00,5.013978871063573942e-06,3.369923878760921679e-05
2.323809523809523991e+00,9.155471006965105119e-08,3.140631582299854206e-05
2.324603174603174782e+00,-5.804947287701744995e-06,2.472078761298091845e-05
2.325396825396825573e+00,-1.186823507769723455e-05,1.391915905113873328e-05
2.326190476190476364e+00,-1.719208048638702952e-05,3.030176938419464271e-07
2.326984126984127155e+00,-2.095505065339980797e-05,-1.397747303304704200e-05
2.327777777777777946e+00,-2.259117141884478755e-05,-2.633071907799793845e-05
2.328571428571428736e+00,-2.189714241680230334e-05,-3.428333617001225463e-05
2.329365079365079527e+00,-1.904734975643595368e-05,-3.607688482912592166e-05
2.330158730158730318e+00,-1.452065309168243066e-05,-3.116114514115312647e-05
2.330952380952381109e+00,-8.971658593739466586e-06,-2.044135686744214187e-05
2.331746031746031900e+00,-3.091435927465069100e-06,-6.179790875387809523e-06
2.332539682539682691e+00,2.504883576464453228e-06,8.457853777949088015e-06
2.333333333333333481e+00,7.347132871732674022e-06,2.011312444210751316e-05
2.334126984126984272e+00,1.114097055264720903e-05,2.602112070449365876e-05
2.334920634920635063e+00,1.377495138160107064e-05,2.466327043493797712e-05
2.335714285714285854e+00,1.531086795408638786e-05,1.611601580495433645e-05
2.336507936507936645e+00,1.595265867870228856e-05,2.014685509424982063e-06
2.337301587301587436e+00,1.598969869695370311e-05,-1.484235927998451461e-05
2.338095238095238226e+00,1.572411877620641713e-05,-3.113686468893557394e-05
2.338888888888889017e+00,1.540351260822860486e-05,-4.375697465820007411e-05
2.339682539682539808e+00,1.517867898249317586e-05,-5.043078563351640286e-05
2.340476190476190599e+00,1.509426991936907882e-05,-5.012185842117693858e-05
2.341269841269841390e+00,1.510682024910332702e-05,-4.311245936484346919e-05
2.342063492063492181e+00,1.511481928704254719e-05,-3.079372410664054201e-05
2.342857142857142971e+00,1.498310291276706217e-05,-1.526206160416306232e-05
2.343650793650793762e+00,1.455151105556605551e-05,1.145454634902518322e-06
2.344444444444444553e+00,1.363223071249077780e-05,1.626435599140903200e-05
2.345238095238095344e+00,1.201245410214119396e-05,2.840363833937685310e-05
2.346031746031746135e+00,9.480744639394705030e-06,3.652109162965636166e-05
2.346825396825396925e+00,5.885241664685109408e-06,4.028246203559135750e-05
2.347619047619047716e+00,1.214432972497694680e-06,4.001292365579762144e-05
2.348412698412698507e+00,-4.325557501739503415e-06,3.654585950875333784e-05
2.349206349206349298e+00,-1.027185390852762778e-05,3.098704937317636434e-05
2.350000000000000089e+00,-1.593350465252212756e-05,2.444091478307648454e-05
2.350793650793650880e+00,-2.049753013107554684e-05,1.776908699362853019e-05
2.351587301587301670e+00,-2.319305017042365898e-05,1.144963053381754788e-05
2.352380952380952461e+00,-2.346935844714237847e-05,5.574026334763776743e-06
2.353174603174603252e+00,-2.113521383587095993e-05,-2.791614230711391275e-08
2.353968253968254043e+00,-1.641794121800309525e-05,-5.588476679740143896e-06
2.354761904761904834e+00,-9.926528102739098330e-06,-1.120557713909215983e-05
2.355555555555555625e+00,-2.532624084850604271e-06,-1.672309219168964848e-05
2.356349206349206415e+00,4.793114059674877071e-06,-2.172701805207099781e-05
2.357142857142857206e+00,1.114251021341319128e-05,-2.564499785337629337e-05
2.357936507936507997e+00,1.579026382240294595e-05,-2.789387086843835953e-05
2.358730158730158788e+00,1.825591249634689260e-05,-2.800867821484251231e-05
2.359523809523809579e+00,1.831562628870659159e-05,-2.571183464500964965e-05
2.360317460317460370e+00,1.598922786392032767e-05,-2.092654434654515381e-05
2.361111111111111160e+00,1.152714650940958297e-05,-1.377483062112954928e-05
2.361904761904761951e+00,5.404296481385735753e-06,-4.603600442014300429e-06
2.362698412698412742e+00,-1.694436175317332919e-06,5.950763512183707515e-06
2.363492063492063533e+00,-8.923408394660094193e-06,1.689693409806115724e-05
2.364285714285714324e+00,-1.537788352143902947e-05,2.689201411290909985e-05
2.365079365079365115e+00,-2.024144172547326476e-05,3.437637210106194899e-05
2.365873015873015905e+00,-2.294476608323486614e-05,3.785546071040237317e-05
2.366666666666666696e+00,-2.328609908246108447e-05,3.627876436215915235e-05
2.367460317460317487e+00,-2.147048661965981955e-05,2.941236595193500713e-05
2.368253968253968278e+00,-1.805086644358477860e-05,1.808162591939960169e-05
2.369047619047619069e+00,-1.378602599965310199e-05,4.181816294962341611e-06
2.369841269841269860e+00,-9.455880326962114613e-06,-9.587804721297188708e-06
2.370634920634920650e+00,-5.686704596469212481e-06,-2.023357228328691215e-05
2.371428571428571441e+00,-2.834709729646577703e-06,-2.511529300804815886e-05
2.372222222222222232e+00,-9.557716476995471274e-07,-2.258258825360412767e-05
2.373015873015873023e+00,1.410054454244710903e-07,-1.244455425838709249e-05
2.373809523809523814e+00,7.853787612206759728e-07,3.850683542069466918e-06
2.374603174603174605e+00,1.325910186861347995e-06,2.339103919935336156e-05
2.375396825396825395e+00,2.034450192899648852e-06,4.231997468602739006e-05
2.376190476190476186e+00,3.053873142718494299e-06,5.661116741383698166e-05
2.376984126984126977e+00,4.388420944502630986e-06,6.294026203043008604e-05
2.377777777777777768e+00,5.924451187124401029e-06,5.945532210375705011e-05
2.378571428571428559e+00,7.468011542299610856e-06,4.625076910323578229e-05
2.379365079365079350e+00,8.790278351478162237e-06,2.540254305878377866e-05
2.380158730158730140e+00,9.675796121271384675e-06,5.214087648762927721e-07
2.380952380952380931e+00,9.967882369349969227e-06,-2.409002979010474793e-05
2.381746031746031722e+00,9.602767141052551524e-06,-4.446659310424978578e-05
2.382539682539682513e+00,8.624257075121821118e-06,-5.790993040948536747e-05
2.383333333333333304e+00,7.175701714490531010e-06,-6.354297375995726649e-05
2.384126984126984095e+00,5.472196444121772113e-06,-6.232629768681385146e-05
2.384920634920634885e+00,3.759381870806850596e-06,-5.655526484902680719e-05
2.385714285714285676e+00,2.266257110620377377e-06,-4.903424977144075185e-05
2.386507936507936467e+00,1.160771905533216358e-06,-4.221793853946059153e-05
2.387301587301587258e+00,5.187586859187242960e-07,-3.758742914934441552e-05
2.388095238095238049e+00,3.160665151673191377e-07,-3.541725811767456277e-05
2.388888888888888840e+00,4.482390861924430951e-07,-3.494338191401636311e-05
2.389682539682539630e+00,7.727889044663394102e-07,-3.481337101806019436e-05
2.390476190476190421e+00,1.160002327499753868e-06,-3.362769241561998666e-05
2.391269841269841212e+00,1.533915529028784450e-06,-3.038547076028044636e-05
2.392063492063492003e+00,1.888256583141021604e-06,-2.471897971097099312e-05
2.392857142857142794e+00,2.271514690750920445e-06,-1.689732852661325643e-05
2.393650793650793585e+00,2.746861345543290509e-06,-7.656308738395566088e-06
2.394444444444444375e+00,3.342453839942789729e-06,2.053380676220207706e-06
2.395238095238095166e+00,4.012757258638412650e-06,1.130956883896679995e-05
2.396031746031745957e+00,4.629252522253431643e-06,1.939010970287877202e-05
2.396825396825396748e+00,5.008110586260773100e-06,2.584627796692851338e-05
2.397619047619047539e+00,4.966507661685953916e-06,3.048844337303602248e-05
2.398412698412698330e+00,4.385981968526736586e-06,3.331932839270973073e-05
2.399206349206349120e+00,3.257798887931135962e-06,3.445707402409020116e-05
2.399999999999999911e+00,1.693389767061858816e-06,3.408016335420905121e-05
2.400793650793650702e+00,-1.020104142921337535e-07,3.240658522183686638e-05
2.401587301587301493e+00,-1.879999619623567015e-06,2.970011369293980481e-05
2.402380952380952284e+00,-3.404164134386918799e-06,2.628426624073384351e-05
2.403174603174603075e+00,-4.492432041932247896e-06,2.254255689263447328e-05
2.403968253968253865e+00,-5.038806566554910167e-06,1.889177941008792177e-05
2.404761904761904656e+00,-5.016999200997865853e-06,1.572918850027850475e-05
2.405555555555555447e+00,-4.473812031246720758e-06,1.336756373847521523e-05
2.406349206349206238e+00,-3.518892538425718046e-06,1.197778983311637616e-05
2.407142857142857029e+00,-2.312653126092593310e-06,1.155509374106392280e-05
2.407936507936507819e+00,-1.049921284997651942e-06,1.191641866368742187e-05
2.408730158730158610e+00,6.403759709888183350e-08,1.272845938568790397e-05
2.409523809523809401e+00,8.454010413449020263e-07,1.356146768127295347e-05
2.410317460317460192e+00,1.166130607959889823e-06,1.396158033142767899e-05
2.411111111111110983e+00,9.806101598809448495e-07,1.353146852858947578e-05
2.411904761904761774e+00,3.346240691925633102e-07,1.200539464083266675e-05
2.412698412698412564e+00,-6.475491037795286303e-07,9.303052478616728616e-06
2.413492063492063355e+00,-1.794314500691509012e-06,5.549793751276315371e-06
2.414285714285714146e+00,-2.926752855486900643e-06,1.059128645300092117e-06
2.415079365079364937e+00,-3.895906852447455444e-06,-3.716637470669505741e-06
2.415873015873015728e+00,-4.607212507560817406e-06,-8.255035413629036503e-06
2.416666666666666519e+00,-5.025879540188258501e-06,-1.203833955088079749e-05
2.417460317460317309e+00,-5.163069459203262522e-06,-1.462605049582481201e-05
2.418253968253968100e+00,-5.049941758216440416e-06,-1.571959952292710803e-05
2.419047619047618891e+00,-4.712249667791544907e-06,-1.521231886877852859e-05
2.419841269841269682e+00,-4.158170663055273393e-06,-1.321364073223600450e-05
2.420634920634920473e+00,-3.384960337392190868e-06,-1.003647371949822438e-05
2.421428571428571264e+00,-2.399576212541332795e-06,-6.144499626362531283e-06
2.422222222222222054e+00,-1.241186158087107014e-06,-2.069331450320708042e-06
2.423015873015872845e+00,6.628636451594887021e-09,1.680328026345812899e-06
2.423809523809523636e+00,1.220414635327301617e-06,4.691051392585176664e-06
2.424603174603174427e+00,2.257223412202214691e-06,6.679936348980548547e-06
2.425396825396825218e+00,2.984506258062126492e-06,7.492191992565246886e-06
2.426190476190476009e+00,3.310871710728498319e-06,7.078935498911077022e-06
2.426984126984126799e+00,3.209429304090068960e-06,5.479525950152278013e-06
2.427777777777777590e+00,2.727807280961338878e-06,2.822848218025465724e-06
2.428571428571428381e+00,1.982294473032079068e-06,-6.569920124941998394e-07
2.429365079365079172e+00,1.136899949755496211e-06,-4.610448818584508421e-06
2.430158730158729963e+00,3.711314279765690112e-07,-8.590165239047333200e-06
2.430952380952380754e+00,-1.569953838954282775e-07,-1.210699446644486035e-05
2.431746031746031544e+00,-3.444618682029685779e-07,-1.471535302753088947e-05
2.432539682539682335e+00,-1.652541783353375802e-07,-1.610230254713470026e-05
2.433333333333333126e+00,3.248350334088350342e-07,-1.614996777264808179e-05
2.434126984126983917e+00,1.002678797881348799e-06,-1.494999592706183188e-05
2.434920634920634708e+00,1.709066418770314652e-06,-1.276715309204715349e-05
2.435714285714285499e+00,2.289173076465952180e-06,-9.967862267135854258e-06
2.436507936507936289e+00,2.630837706637457576e-06,-6.939627805274363688e-06
2.437301587301587080e+00,2.688927271512347497e-06,-4.025309929926100235e-06
2.438095238095238315e+00,2.487949112843869063e-06,-1.485338945413666668e-06
2.438888888888889106e+00,2.101832122574194519e-06,5.121398010123981253e-07
2.439682539682539897e+00,1.617510874626104127e-06,1.882547560766975333e-06
2.440476190476190688e+00,1.095054450960222222e-06,2.609555781828541342e-06
2.441269841269841478e+00,5.387222759142087379e-07,2.731612647506920903e-06
2.442063492063492269e+00,-1.101088980768386309e-07,2.332453309847664877e-06
2.442857142857143060e+00,-9.536602574114693459e-07,1.532982253043524444e-06
2.443650793650793851e+00,-2.095206676257708442e-06,4.813221082964727498e-07
2.444444444444444642e+00,-3.584122740465484867e-06,-6.594919988186187833e-07
2.445238095238095433e+00,-5.365455998086099594e-06,-1.724010087188330988e-06
2.446031746031746223e+00,-7.252659254491922678e-06,-2.554783649142390857e-06
2.446825396825397014e+00,-8.937577736323660087e-06,-3.010852134936872706e-06
2.447619047619047805e+00,-1.004127637972132042e-05,-2.977274571065171180e-06
2.448412698412698596e+00,-1.019560640402869768e-05,-2.379278035728193245e-06
2.449206349206349387e+00,-9.133549131871500674e-06,-1.201524009780641670e-06
2.450000000000000178e+00,-6.761792758183556685e-06,4.926878411919109875e-07
2.450793650793650968e+00,-3.194847707819120503e-06,2.552135433483141437e-06
2.451587301587301759e+00,1.255493437486263088e-06,4.747825911882994752e-06
2.452380952380952550e+00,6.125648941915301083e-06,6.805742642201170546e-06
2.453174603174603341e+00,1.086266430045695890e-05,8.456216353588331250e-06
2.453968253968254132e+00,1.488879070257406304e-05,9.486838025107126516e-06
2.454761904761904923e+00,1.766367307574300864e-05,9.783573654550225990e-06
2.455555555555555713e+00,1.874708359835388830e-05,9.347594125303916959e-06
2.456349206349206504e+00,1.786377360753906325e-05,8.282418003438236928e-06
2.457142857142857295e+00,1.496405687541288702e-05,6.755571778499741888e-06
2.457936507936508086e+00,1.026596555307622146e-05,4.947774338394750560e-06
2.458730158730158877e+00,4.261729064135145561e-06,3.006874348766598779e-06
2.459523809523809668e+00,-2.326051282913819105e-06,1.022020281025956374e-06
2.460317460317460458e+00,-8.643827094870508006e-06,-9.729837176205993932e-07
2.461111111111111249e+00,-1.385067504497604444e-05,-2.968108280973238290e-06
2.461904761904762040e+00,-1.727512705417168435e-05,-4.929873241009959238e-06
2.462698412698412831e+00,-1.854292628633559425e-05,-6.759798402111572008e-06
2.463492063492063622e+00,-1.763823535769688640e-05,-8.280161811880504727e-06
2.464285714285714413e+00,-1.488095276808138472e-05,-9.258825458159150715e-06
2.465079365079365203e+00,-1.082991667345295858e-05,-9.468984981969872988e-06
2.465873015873015994e+00,-6.145379502295918619e-06,-8.764356599809096992e-06
2.466666666666666785e+00,-1.454596116386744346e-06,-7.141076138410926769e-06
2.467460317460317576e+00,2.742744816641570661e-06,-4.758584927352804168e-06
2.468253968253968367e+00,6.112635137201528212e-06,-1.905443520173574314e-06
2.469047619047619158e+00,8.474247766293071659e-06,1.080501523478356126e-06
2.469841269841269948e+00,9.758326605082423159e-06,3.905763400705305013e-06
2.470634920634920739e+00,9.963584247139965332e-06,6.389121286881157237e-06
2.471428571428571530e+00,9.134513410969551713e-06,8.476677496013074994e-06
2.472222222222222321e+00,7.372130503859213609e-06,1.020220709900929104e-05
2.473015873015873112e+00,4.870861817093430390e-06,1.161493956932208367e-05
2.473809523809523903e+00,1.955794744241407324e-06,1.270833409104620739e-05
2.474603174603174693e+00,-9.151294157297041784e-07,1.337895395804324886e-05
2.475396825396825484e+00,-3.211262028824024960e-06,1.342882579128890529e-05
2.476190476190476275e+00,-4.452806139646902240e-06,1.260658663581723564e-05
2.476984126984127066e+00,-4.364188517972610908e-06,1.067069176521652349e-05
2.477777777777777857e+00,-2.997115337783450961e-06,7.455767128025881961e-06
2.478571428571428648e+00,-7.616020885597954930e-07,2.928485055790492752e-06
2.479365079365079438e+00,1.666709153357686051e-06,-2.773476282829692849e-06
2.480158730158730229e+00,3.544118265472271433e-06,-9.321258165740918972e-06
2.480952380952381020e+00,4.296676230718080910e-06,-1.619545539711648744e-05
2.481746031746031811e+00,3.715983429322022449e-06,-2.271375707428957859e-05
2.482539682539682602e+00,2.046873068190099998e-06,-2.809461484446220764e-05
2.483333333333333393e+00,-6.237476538411910072e-08,-3.155994120214731445e-05
2.484126984126984183e+00,-1.736145503754957486e-06,-3.246409321339999734e-05
2.484920634920634974e+00,-2.128034719871189953e-06,-3.042055853993469431e-05
2.485714285714285765e+00,-6.880577197358229931e-07,-2.539344124863742317e-05
2.486507936507936556e+00,2.636310016930559269e-06,-1.773029157388141414e-05
2.487301587301587347e+00,7.327617259605247368e-06,-8.128458161926011499e-06
2.488095238095238138e+00,1.238186696150817900e-05,2.459294651958237869e-06
2.488888888888888928e+00,1.652916424843473879e-05,1.296483179238469872e-05
2.489682539682539719e+00,1.853139791230195050e-05,2.236780782278729527e-05
2.490476190476190510e+00,1.747602240040334014e-05,2.985231363362088642e-05
2.491269841269841301e+00,1.299225647526823911e-05,3.492302172389805500e-05
2.492063492063492092e+00,5.345782970961565754e-06,3.744984898702856711e-05
2.492857142857142883e+00,-4.593970603596264355e-06,3.762402289677195294e-05
2.493650793650793673e+00,-1.548924654449562453e-05,3.583271663519562849e-05
2.494444444444444464e+00,-2.573393677526243230e-05,3.248843320922792149e-05
2.495238095238095255e+00,-3.368284175971591988e-05,2.787258887715163494e-05
2.496031746031746046e+00,-3.788398740840761110e-05,2.205778504303786239e-05
2.496825396825396837e+00,-3.729422843914018885e-05,1.495137178509808064e-05
2.497619047619047628e+00,-3.146070794002146526e-05,6.456526300482112562e-06
2.498412698412698418e+00,-2.064960475278178591e-05,-3.306920769960245576e-06
2.499206349206349209e+00,-5.897692513090414556e-06,-1.381615646744690698e-05
2.500000000000000000e+00,1.104509491527288163e-05,-2.408679321712235623e-05
2.500793650793650791e+00,2.790970632756825193e-05,-3.279272346943748213e-05
2.501587301587301582e+00,4.223808549074756268e-05,-3.854511184086761947e-05
2.502380952380952372e+00,5.180105467030308910e-05,-4.024218002271015034e-05
2.503174603174603163e+00,5.501177818851728636e-05,-3.736775463776468822e-05
2.503968253968253954e+00,5.122908954576604575e-05,-3.013962966833959146e-05
2.504761904761904745e+00,4.087247503212277961e-05,-1.947637011400602685e-05
2.505555555555555536e+00,2.532740588961006239e-05,-6.820794421254850161e-06
2.506349206349206327e+00,6.679686989794225416e-06,6.108929215715243793e-06
2.507142857142857117e+00,-1.264490395304343002e-05,1.757896159372031986e-05
2.507936507936507908e+00,-3.025440348559637325e-05,2.607564386841599837e-05
2.508730158730158699e+00,-4.411584292708300574e-05,3.050204093494978649e-05
2.509523809523809490e+00,-5.279619071879222046e-05,3.032308161969017745e-05
2.510317460317460281e+00,-5.560437573494168655e-05,2.564202440920359730e-05
2.511111111111111072e+00,-5.263237244586045519e-05,1.718840690730488719e-05
2.511904761904761862e+00,-4.470050692149605387e-05,6.205912850670950022e-06
2.512698412698412653e+00,-3.321691726301330861e-05,-5.750370066363098965e-06
2.513492063492063444e+00,-1.996564874855495409e-05,-1.707056224124118524e-05
2.514285714285714235e+00,-6.843870210736255397e-06,-2.634322922434841744e-05
2.515079365079365026e+00,4.423028348480713820e-06,-3.254642289079654854e-05
2.515873015873015817e+00,1.254954867558212545e-05,-3.513866439385367565e-05
2.516666666666666607e+00,1.689307912000051135e-05,-3.404762158793083371e-05
2.517460317460317398e+00,1.754128325147933637e-05,-2.958822972053014365e-05
2.518253968253968189e+00,1.524773056296922702e-05,-2.235788533257056012e-05
2.519047619047618980e+00,1.121594411736928889e-05,-1.314773503044862056e-05
2.519841269841269771e+00,6.782952036939805263e-06,-2.884205132079776779e-06
2.520634920634920562e+00,3.095279314785620478e-06,7.410614807802316242e-06
2.521428571428571352e+00,8.761436172494394510e-07,1.666573814366422072e-05
2.522222222222222143e+00,3.451709286898034006e-07,2.384110081614419454e-05
2.523015873015872934e+00,1.291271701118769025e-06,2.805241699487544978e-05
2.523809523809523725e+00,3.245632798593175550e-06,2.872946584012575023e-05
2.524603174603174516e+00,5.676055392119888758e-06,2.577097421110176591e-05
2.525396825396825307e+00,8.132614424001991888e-06,1.964247624280238879e-05
2.526190476190476097e+00,1.031042476023755677e-05,1.136414738474793190e-05
2.526984126984126888e+00,1.203833699865456013e-05,2.358973006153186231e-06
2.527777777777777679e+00,1.323013741605978863e-05,-5.824297863808105700e-06
2.528571428571428470e+00,1.383698009516000806e-05,-1.184787568011612861e-05
2.529365079365079261e+00,1.382350785891409360e-05,-1.488135217038513770e-05
2.530158730158730052e+00,1.317054717416217691e-05,-1.476165682720511648e-05
2.530952380952380842e+00,1.189462809120916626e-05,-1.196638441269989242e-05
2.531746031746031633e+00,1.007048207910586247e-05,-7.418700035174493902e-06
2.532539682539682424e+00,7.844103898435173712e-06,-2.200198529263067449e-06
2.533333333333333215e+00,5.427650102217523334e-06,2.729070173901982473e-06
2.534126984126984006e+00,3.072325801967836890e-06,6.721420064817492327e-06
2.534920634920634797e+00,1.022628325560795214e-06,9.504662194213721343e-06
2.535714285714285587e+00,-5.355251518294528491e-07,1.112708994182464882e-05
2.536507936507936378e+00,-1.514058277399897373e-06,1.182817413090411922e-05
2.537301587301587169e+00,-1.933606817884980085e-06,1.189135108705370306e-05
2.538095238095237960e+00,-1.903278846297901252e-06,1.152842897106192296e-05
2.538888888888888751e+00,-1.582199573863415947e-06,1.082587154009995547e-05
2.539682539682539542e+00,-1.142187322287564945e-06,9.758266918861757642e-06
2.540476190476190332e+00,-7.434266640311686974e-07,8.250603339716502396e-06
2.541269841269841123e+00,-5.222459201702068017e-07,6.256459416601473332e-06
2.542063492063491914e+00,-5.845722174762624806e-07,3.818963437041605854e-06
2.542857142857142705e+00,-1.001916342675020547e-06,1.093383344989915251e-06
2.543650793650793496e+00,-1.810093571075202670e-06,-1.673084085146626372e-06
2.544444444444444287e+00,-3.008941189739444431e-06,-4.194173656362354504e-06
2.545238095238095077e+00,-4.558463199946118518e-06,-6.210102489198344707e-06
2.546031746031745868e+00,-6.369340887843543944e-06,-7.542201839252334476e-06
2.546825396825396659e+00,-8.292629367520289494e-06,-8.118191029301946080e-06
2.547619047619047450e+00,-1.011851279803735736e-05,-7.963784335627124898e-06
2.548412698412698241e+00,-1.159317055984494655e-05,-7.172857776298999779e-06
2.549206349206349032e+00,-1.245642018547527329e-05,-5.877416153357681987e-06
2.549999999999999822e+00,-1.249359947248752326e-05,-4.234236272093510233e-06
2.550793650793650613e+00,-1.158745092707937545e-05,-2.429663591098356158e-06
2.551587301587301404e+00,-9.753789434700691174e-06,-6.871669826176123157e-07
2.552380952380952195e+00,-7.149396439263742345e-06,7.444148345627552890e-07
2.553174603174602986e+00,-4.049241326764993048e-06,1.634215853307004309e-06
2.553968253968253777e+00,-7.991217152700182207e-07,1.834833583979007827e-06
2.554761904761904567e+00,2.243958772768112323e-06,1.340674651364168035e-06
2.555555555555555358e+00,4.769750930914191791e-06,3.064139520825779745e-07
2.556349206349206149e+00,6.559790721839612065e-06,-9.897290827734830260e-07
2.557142857142856940e+00,7.512863854096523699e-06,-2.225191090843595230e-06
2.557936507936507731e+00,7.648599063688179132e-06,-3.121492820871257130e-06
2.558730158730158522e+00,7.090178517128468851e-06,-3.507255549670431952e-06
2.559523809523809312e+00,6.030052526059604893e-06,-3.336835620229305379e-06
2.560317460317460103e+00,4.685671423168724810e-06,-2.667155207540307804e-06
2.561111111111110894e+00,3.254949422680822935e-06,-1.611530729538431451e-06
2.561904761904761685e+00,1.881876619865292997e-06,-2.942819835884334763e-07
2.562698412698412920e+00,6.404314067149158612e-07,1.175902597600238501e-06
2.563492063492063711e+00,-4.598899735763511070e-07,2.707431836945399288e-06
2.564285714285714501e+00,-1.449850211330897656e-06,4.207257447944062105e-06
2.565079365079365292e+00,-2.366540274000533527e-06,5.555598661675047061e-06
2.565873015873016083e+00,-3.222258758297899950e-06,6.590605151250931603e-06
2.566666666666666874e+00,-3.987378850579937491e-06,7.116928812084115780e-06
2.567460317460317665e+00,-4.592167390153741907e-06,6.942736783354510982e-06
2.568253968253968456e+00,-4.944620388149607095e-06,5.936101811839232318e-06
2.569047619047619246e+00,-4.955929642952853634e-06,4.080451033894329442e-06
2.569841269841270037e+00,-4.564429481108984745e-06,1.506306339020343297e-06
2.570634920634920828e+00,-3.752090894250469592e-06,-1.515754507284826893e-06
2.571428571428571619e+00,-2.552047899393007711e-06,-4.622577107591748730e-06
2.572222222222222410e+00,-1.048406985467188458e-06,-7.434669528707273937e-06
2.573015873015873201e+00,6.302272676529971130e-07,-9.639725099964924579e-06
2.573809523809523991e+00,2.323183973138581619e-06,-1.105780463744456696e-05
2.574603174603174782e+00,3.856227193995316537e-06,-1.166658541505466365e-05
2.575396825396825573e+00,5.065112997753436266e-06,-1.157842415720991280e-05
2.576190476190476364e+00,5.821059401932059442e-06,-1.097977270153647114e-05
2.576984126984127155e+00,6.053114745211848159e-06,-1.005888222240271720e-05
2.577777777777777946e+00,5.761884223179812279e-06,-8.951066634200106908e-06
2.578571428571428736e+00,5.020451459848044131e-06,-7.719984668739052829e-06
2.579365079365079527e+00,3.961545633666885069e-06,-6.375075407006621682e-06
2.580158730158730318e+00,2.754067311535975904e-06,-4.910089074651916974e-06
2.580952380952381109e+00,1.575068691327429054e-06,-3.342322851432496028e-06
2.581746031746031900e+00,5.834807274673556939e-07,-1.735931503017862026e-06
2.582539682539682691e+00,-1.005439745840754882e-07,-2.006702664220258760e-07
2.583333333333333481e+00,-4.097574167798164704e-07,1.134095411281869748e-06
2.584126984126984272e+00,-3.378864787502568910e-07,2.162247674552590486e-06
2.584920634920635063e+00,5.838387358885021543e-08,2.845579934495841831e-06
2.585714285714285854e+00,6.646381406980974803e-07,3.241293702085424984e-06
2.586507936507936645e+00,1.322518961741153514e-06,3.496346033778352446e-06
2.587301587301587436e+00,1.852313743547848860e-06,3.803681611769650133e-06
2.588095238095238226e+00,2.082485865953409106e-06,4.331054103341444886e-06
2.588888888888889017e+00,1.881996484851800573e-06,5.147027845851742573e-06
2.589682539682539808e+00,1.189786656203054240e-06,6.174330918897531398e-06
2.590476190476190599e+00,3.576161733000325527e-08,7.194063844797982964e-06
2.591269841269841390e+00,-1.451377050605616444e-06,7.905948525499334955e-06
2.592063492063492181e+00,-3.052758025384267412e-06,8.026248378187784095e-06
2.592857142857142971e+00,-4.486023205079370498e-06,7.387364612172035513e-06
2.593650793650793762e+00,-5.449108181744050662e-06,6.001241128205522736e-06
2.594444444444444553e+00,-5.676490287868837917e-06,4.063438939195305295e-06
2.595238095238095344e+00,-4.998960146127262436e-06,1.897724316660867985e-06
2.596031746031746135e+00,-3.394477811247241234e-06,-1.377129907716071255e-07
2.596825396825396925e+00,-1.016694510451988145e-06,-1.748263985554504152e-06
2.597619047619047716e+00,1.810080374212453439e-06,-2.770213805256822256e-06
2.598412698412698507e+00,4.635564541085637725e-06,-3.185544162430239519e-06
2.599206349206349298e+00,6.965899512058086565e-06,-3.085569947079574597e-06
2.600000000000000089e+00,8.370913037659588306e-06,-2.607810079935226943e-06
2.600793650793650880e+00,8.591686408515870251e-06,-1.880883259494700707e-06
2.601587301587301670e+00,7.616333538887340424e-06,-1.003084299421760876e-06
2.602380952380952461e+00,5.694439255147277694e-06,-5.700404049560945777e-08
2.603174603174603252e+00,3.275988784519052927e-06,8.601261632520330299e-07
2.603968253968254043e+00,8.854717954464437500e-07,1.619603966014065099e-06
2.604761904761904834e+00,-1.032818460588214756e-06,2.078721420612868026e-06
2.605555555555555625e+00,-2.247168968943158415e-06,2.132772035866240296e-06
2.606349206349206415e+00,-2.800348484836125504e-06,1.779665173585273363e-06
2.607142857142857206e+00,-2.975130472030188365e-06,1.163356871934406184e-06
2.607936507936507997e+00,-3.171999616465170760e-06,5.684303176731271309e-07
2.608730158730158788e+00,-3.740735365602591407e-06,3.596945926886060702e-07
2.609523809523809579e+00,-4.825680895789077326e-06,8.859076971668813000e-07
2.610317460317460370e+00,-6.280382616110728891e-06,2.383338710517629601e-06
2.611111111111111160e+00,-7.682899181733457742e-06,4.916930610276793598e-06
2.611904761904761951e+00,-8.447959339802600393e-06,8.383618495874733828e-06
2.612698412698412742e+00,-7.999535754480004379e-06,1.257498293289260100e-05
2.613492063492063533e+00,-5.949490303624595782e-06,1.726166006681750117e-05
2.614285714285714324e+00,-2.230427948373195956e-06,2.223841656604013891e-05
2.615079365079365115e+00,2.850363112970820752e-06,2.727988487246818018e-05
2.615873015873015905e+00,8.644832986496871034e-06,3.200983107391004636e-05
2.616666666666666696e+00,1.427479771346950673e-05,3.575722885551969600e-05
2.617460317460317487e+00,1.879494031604770612e-05,3.751322171266874376e-05
2.618253968253968278e+00,2.137546105368376461e-05,3.607578441484021416e-05
2.619047619047619069e+00,2.146643325886625058e-05,3.037680664397208880e-05
2.619841269841269860e+00,1.890615600944120370e-05,1.988129998756391534e-05
2.620634920634920650e+00,1.394568397047419554e-05,4.897726844542688183e-06
2.621428571428571441e+00,7.182063308505023609e-06,-1.332832743592695774e-05
2.622222222222222232e+00,-5.822475295453861437e-07,-3.277843138236080552e-05
2.623015873015873023e+00,-8.516230032031631999e-06,-5.104077150705668535e-05
2.623809523809523814e+00,-1.592682964741054522e-05,-6.580810884922291999e-05
2.624603174603174605e+00,-2.237069972887574719e-05,-7.536614318739586935e-05
2.625396825396825395e+00,-2.767904441374421806e-05,-7.893219058169811020e-05
2.626190476190476186e+00,-3.188678585029897756e-05,-7.673438758361701651e-05
2.626984126984126977e+00,-3.508930179814951614e-05,-6.980942003639446889e-05
2.627777777777777768e+00,-3.727970232540904548e-05,-5.960878750334952747e-05
2.628571428571428559e+00,-3.823214590232153806e-05,-4.757425759897582353e-05
2.629365079365079350e+00,-3.748424414843260665e-05,-3.483143827415829740e-05
2.630158730158730140e+00,-3.443796983100257748e-05,-2.207246696978421946e-05
2.630952380952380931e+00,-2.855501240101636105e-05,-9.608850644185849748e-06
2.631746031746031722e+00,-1.958385861955911771e-05,2.478409804986433235e-06
2.632539682539682513e+00,-7.737117329721263456e-06,1.416879861851535226e-05
2.633333333333333304e+00,6.250762062221651752e-06,2.536306036518630363e-05
2.634126984126984095e+00,2.121290778313187771e-05,3.579560778203692346e-05
2.634920634920634885e+00,3.575482742076031563e-05,4.500456452761348984e-05
2.635714285714285676e+00,4.849502105251855653e-05,5.236523565020813890e-05
2.636507936507936467e+00,5.825611506447832364e-05,5.719328509774476867e-05
2.637301587301587258e+00,6.416346436611331308e-05,5.891178047085200112e-05
2.638095238095238049e+00,6.566733925520539656e-05,5.725001413247902331e-05
2.638888888888888840e+00,6.253901027380053327e-05,5.241338472148259815e-05
2.639682539682539630e+00,5.488346151975449083e-05,4.515208749139545312e-05
2.640476190476190421e+00,4.317615748935251343e-05,3.667793928970955068e-05
2.641269841269841212e+00,2.829441128656582326e-05,2.843101256649355026e-05
2.642063492063492003e+00,1.149724136576807574e-05,2.175493017294094226e-05
2.642857142857142794e+00,-5.680178529245908689e-06,1.757014115530857837e-05
2.643650793650793585e+00,-2.161816213140661978e-05,1.612813253776553099e-05
2.644444444444444375e+00,-3.485447647474120187e-05,1.690209969675276081e-05
2.645238095238095166e+00,-4.431658941079557538e-05,1.864089237607285837e-05
2.646031746031745957e+00,-4.948011989506415325e-05,1.958832110296144998e-05
2.646825396825396748e+00,-5.040800988724450198e-05,1.784333738091489424e-05
2.647619047619047539e+00,-4.766193009989290675e-05,1.180423633151058232e-05
2.648412698412698330e+00,-4.211913776477773616e-05,6.065441376566412775e-07
2.649206349206349120e+00,-3.475597455113835807e-05,-1.555633582013285919e-05
2.649999999999999911e+00,-2.646199273307816237e-05,-3.533019525016102569e-05
2.650793650793650702e+00,-1.792890987314431505e-05,-5.636572816629444607e-05
2.651587301587301493e+00,-9.628276917972503741e-06,-7.572907732289589514e-05
2.652380952380952284e+00,-1.862932635263890675e-06,-9.046289460861645017e-05
2.653174603174603075e+00,5.142759121950288344e-06,-9.816217830257263025e-05
2.653968253968253865e+00,1.115658042805495866e-05,-9.742644728132112395e-05
2.654761904761904656e+00,1.589257463475039347e-05,-8.808474126748754235e-05
2.655555555555555447e+00,1.902433741852023759e-05,-7.115554080374672042e-05
2.656349206349206238e+00,2.025333573842384212e-05,-4.858232449609369518e-05
2.657142857142857029e+00,1.940823634050315203e-05,-2.284737936014687602e-05
2.657936507936507819e+00,1.654022509707378031e-05,3.415702963721066464e-06
2.658730158730158610e+00,1.197958628886797738e-05,2.772253772672740983e-05
2.659523809523809401e+00,6.329662130750650966e-06,4.792508017772255385e-05
2.660317460317460192e+00,3.919167641615966734e-07,6.231710774941973119e-05
2.661111111111110983e+00,-4.965379909622491922e-06,6.971537943762390484e-05
2.661904761904761774e+00,-8.966626164441437452e-06,6.955740396525378366e-05
2.662698412698412564e+00,-1.107803596965784644e-05,6.201260271424280130e-05
2.663492063492063355e+00,-1.110653385813665276e-05,4.806118906279092826e-05
2.664285714285714146e+00,-9.220141722543482148e-06,2.948110949893430788e-05
2.665079365079364937e+00,-5.885531439944714514e-06,8.705607502163702276e-06
2.665873015873015728e+00,-1.744979772112852018e-06,-1.144297104574044768e-05
2.666666666666666519e+00,2.528348506031557045e-06,-2.809920022055204504e-05
2.667460317460317309e+00,6.357226618605419853e-06,-3.871989831546171680e-05
2.668253968253968100e+00,9.342309505430895368e-06,-4.141426005267774958e-05
2.669047619047618891e+00,1.129022234125820652e-05,-3.520369452654662721e-05
2.669841269841269682e+00,1.219471331869815646e-05,-2.019642400004701468e-05
2.670634920634920473e+00,1.218714921318544968e-05,2.329039281501433488e-06
2.671428571428571264e+00,1.147500476388399731e-05,2.994417324001022102e-05
2.672222222222222054e+00,1.028456316286595879e-05,5.922214380459602841e-05
2.673015873015872845e+00,8.819102898334050427e-06,8.605613832124611696e-05
2.673809523809523636e+00,7.237573230495200495e-06,1.061645368578224613e-04
2.674603174603174427e+00,5.652221988392528194e-06,1.157564446191736667e-04
2.675396825396825218e+00,4.138655290666918264e-06,1.122573230367745551e-04
2.676190476190476009e+00,2.749897477785408528e-06,9.492431303099321750e-05
2.676984126984126799e+00,1.527250957152641317e-06,6.516376160572012602e-05
2.677777777777777590e+00,5.041551425971988748e-07,2.642617974843893263e-05
2.678571428571428381e+00,-2.966128175850532354e-07,-1.632989299667508582e-05
2.679365079365079172e+00,-8.689263787821041954e-07,-5.749799435693845169e-05
2.680158730158729963e+00,-1.228123321191200474e-06,-9.182173245472992535e-05
2.680952380952380754e+00,-1.411388728424237013e-06,-1.153119214961532762e-04
2.681746031746031544e+00,-1.472595087127815535e-06,-1.258810966109474014e-04
2.682539682539682335e+00,-1.472808366396673966e-06,-1.235627721460720639e-04
2.683333333333333126e+00,-1.469181525740156504e-06,-1.102916833792252156e-04
2.684126984126983917e+00,-1.504935392304252794e-06,-8.933563615041711784e-05
2.684920634920634708e+00,-1.602078087440729353e-06,-6.454804906332294989e-05
2.685714285714285499e+00,-1.757692970225434681e-06,-3.962888086984959704e-05
2.686507936507936289e+00,-1.944569546658571765e-06,-1.754539515141126209e-05
2.687301587301587080e+00,-2.116982485427375671e-06,-1.970718005962721207e-07
2.688095238095238315e+00,-2.221488845258651584e-06,1.166245528806415444e-05
2.688888888888889106e+00,-2.210633770760707115e-06,1.828918564336336005e-05
2.689682539682539897e+00,-2.055773921532126030e-06,2.067152297766930766e-05
2.690476190476190688e+00,-1.755364112997610210e-06,2.019280070025115080e-05
2.691269841269841478e+00,-1.336994889451180632e-06,1.830617433941563265e-05
2.692063492063492269e+00,-8.535978464424329315e-07,1.627566346250014807e-05
2.692857142857143060e+00,-3.751769802671017338e-07,1.501101862065501157e-05
2.693650793650793851e+00,2.247942376926953392e-08,1.499751001137851952e-05
2.694444444444444642e+00,2.703651423710535937e-07,1.630359513651677501e-05
2.695238095238095433e+00,3.179529352090954473e-07,1.864390206052590982e-05
2.696031746031746223e+00,1.420955574281971099e-07,2.147850211085255019e-05
2.696825396825397014e+00,-2.480853507594359895e-07,2.413465143760543062e-05
2.697619047619047805e+00,-8.111081866730301445e-07,2.593877731162528831e-05
2.698412698412698596e+00,-1.478514988416586749e-06,2.634413646399934528e-05
2.699206349206349387e+00,-2.165955438076263057e-06,2.503645918976326901e-05
2.700000000000000178e+00,-2.789079593600229242e-06,2.199962560547603745e-05
2.700793650793650968e+00,-3.281844035002564641e-06,1.752803238868032914e-05
2.701587301587301759e+00,-3.613366325911867521e-06,1.218155375223662662e-05
2.702380952380952550e+00,-3.798503699084605149e-06,6.690580547465105579e-06
2.703174603174603341e+00,-3.897617269903606731e-06,1.829259056291902509e-06
2.703968253968254132e+00,-4.003151342863356914e-06,-1.718365602842152008e-06
2.704761904761904923e+00,-4.214504094369691633e-06,-3.474159612207466901e-06
2.705555555555555713e+00,-4.606869971948390934e-06,-3.244373188049224847e-06
2.706349206349206504e+00,-5.202372648522765270e-06,-1.151350899654037524e-06
2.707142857142857295e+00,-5.951507743421980305e-06,2.380910547041284573e-06
2.707936507936508086e+00,-6.730034578979692504e-06,6.680244973601753794e-06
2.708730158730158877e+00,-7.352874327535107224e-06,1.091052244473038854e-05
2.709523809523809668e+00,-7.603706496523443908e-06,1.418077675864178713e-05
2.710317460317460458e+00,-7.276407869858148532e-06,1.567506603379329293e-05
2.711111111111111249e+00,-6.221519217907081018e-06,1.479494292507591127e-05
2.711904761904762040e+00,-4.388635891401836314e-06,1.129596868140889598e-05
2.712698412698412831e+00,-1.855791395755368631e-06,5.386816739350083462e-06
2.713492063492063622e+00,1.160852021038694683e-06,-2.247755632360584774e-06
2.714285714285714413e+00,4.321588279864502781e-06,-1.053122025548766774e-05
2.715079365079365203e+00,7.205099586918607904e-06,-1.819097114693667543e-05
2.715873015873015994e+00,9.377152738779898024e-06,-2.402893692625284689e-05
2.716666666666666785e+00,1.047720368798511008e-05,-2.719371631413112735e-05
2.717460317460317576e+00,1.030346563133787557e-05,-2.736834688211624490e-05
2.718253968253968367e+00,8.870942322902672904e-06,-2.481177349090913354e-05
2.719047619047619158e+00,6.421333338954472572e-06,-2.024501655777968700e-05
2.719841269841269948e+00,3.378348395175689689e-06,-1.462943728667613135e-05
2.720634920634920739e+00,2.601266839723005692e-07,-8.917084153212214936e-06
2.721428571428571530e+00,-2.426689850574920878e-06,-3.850379848976430117e-06
2.722222222222222321e+00,-4.284392659456985878e-06,1.418144630890652105e-07
2.723015873015873112e+00,-5.093142073589169053e-06,2.944625110515601628e-06
2.723809523809523903e+00,-4.841371010444430999e-06,4.679810288280581901e-06
2.724603174603174693e+00,-3.715947911589587994e-06,5.592862003500310785e-06
2.725396825396825484e+00,-2.056515213436676977e-06,5.946099715154284979e-06
2.726190476190476275e+00,-2.837671472489200932e-07,5.946351821692038598e-06
2.726984126984127066e+00,1.184196917165437991e-06,5.717877048791686641e-06
2.727777777777777857e+00,2.011918935369759455e-06,5.314799705529357913e-06
2.728571428571428648e+00,2.010346903109716218e-06,4.756725294685368431e-06
2.729365079365079438e+00,1.177015501099995547e-06,4.067918419881160383e-06
2.730158730158730229e+00,-2.905920178425415231e-07,3.303886763973874633e-06
2.730952380952381020e+00,-2.011257101235213682e-06,2.557087175575671337e-06
2.731746031746031811e+00,-3.469815674106519166e-06,1.942314070345558976e-06
2.732539682539682602e+00,-4.103041873243350128e-06,1.569012257365783794e-06
2.733333333333333393e+00,-3.416481801222805425e-06,1.510645587411521081e-06
2.734126984126984183e+00,-1.113772936857255903e-06,1.780367364777202830e-06
2.734920634920634974e+00,2.793199731829447883e-06,2.318529323345684815e-06
2.735714285714285765e+00,7.929065324386374105e-06,2.992539947640404237e-06
2.736507936507936556e+00,1.357954069908713396e-05,3.605924119234867835e-06
2.737301587301587347e+00,1.879813570371372360e-05,3.914265707471485811e-06
2.738095238095238138e+00,2.257433467974830546e-05,3.650985652215473649e-06
2.738888888888888928e+00,2.402915162606018414e-05,2.570271432327341288e-06
2.739682539682539719e+00,2.260058307105045709e-05,5.109857369487378764e-07
2.740476190476190510e+00,1.818252596351770001e-05,-2.527550405115483769e-06
2.741269841269841301e+00,1.118387306287993900e-05,-6.322244902954892263e-06
2.742063492063492092e+00,2.484186919819943093e-06,-1.040605698869625137e-05
2.742857142857142883e+00,-6.716443552606957753e-06,-1.411291987460672451e-05
2.743650793650793673e+00,-1.512604841049948152e-05,-1.668932298038600939e-05
2.744444444444444464e+00,-2.161467456608599013e-05,-1.745079702058174609e-05
2.745238095238095255e+00,-2.543093243044906385e-05,-1.594430256169055064e-05
2.746031746031746046e+00,-2.632906840886852366e-05,-1.207313729590118117e-05
2.746825396825396837e+00,-2.457858217453406566e-05,-6.151585073157445700e-06
2.747619047619047628e+00,-2.085841315199066942e-05,1.122739160242902398e-06
2.748412698412698418e+00,-1.606729313166392143e-05,8.769672114172706137e-06
2.749206349206349209e+00,-1.110348056701093604e-05,1.567773755279810123e-05
2.750000000000000000e+00,-6.673142006951061956e-06,2.077949578224520249e-05
2.750793650793650791e+00,-3.174944801602354006e-06,2.322680306425110568e-05
2.751587301587301582e+00,-6.836534658257519658e-07,2.254386341989285470e-05
2.752380952380952372e+00,9.743474117981943691e-07,1.873555465107479699e-05
2.753174603174603163e+00,2.087282086256957963e-06,1.232778674842138930e-05
2.753968253968253954e+00,2.915569611256612515e-06,4.319690268028263130e-06
2.754761904761904745e+00,3.590945302434550357e-06,-3.962082027656182727e-06
2.755555555555555536e+00,4.091885260253962553e-06,-1.109673920254574894e-05
2.756349206349206327e+00,4.302245370313100767e-06,-1.585293084426726002e-05
2.757142857142857117e+00,4.127508138284071512e-06,-1.745886127261887525e-05
2.757936507936507908e+00,3.617499124090506621e-06,-1.578390085220299896e-05
2.758730158730158699e+00,3.037773422739448218e-06,-1.137164101326635725e-05
2.759523809523809490e+00,2.849091895366921434e-06,-5.305192974748510067e-06
2.760317460317460281e+00,3.589043585188424481e-06,1.063091471855977524e-06
2.761111111111111072e+00,5.687510896800800089e-06,6.443927300773615279e-06
2.761904761904761862e+00,9.274169168616672214e-06,9.914107156569313496e-06
2.762698412698412653e+00,1.404314219756129817e-05,1.110850304887159401e-05
2.763492063492063444e+00,1.922592708668572676e-05,1.025319928212714820e-05
2.764285714285714235e+00,2.369406197151224580e-05,8.040096098632938101e-06
2.765079365079365026e+00,2.617759989275121057e-05,5.389508098459093730e-06
2.765873015873015817e+00,2.555463427966721000e-05,3.175151110287585053e-06
2.766666666666666607e+00,2.114819667243140406e-05,1.988143436523676092e-06
2.767460317460317398e+00,1.296259373895482396e-05,1.997429585083553226e-06
2.768253968253968189e+00,1.800243376590679216e-06,2.933854089505038087e-06
2.769047619047618980e+00,-1.078130851645136648e-05,4.193929137314111065e-06
2.769841269841269771e+00,-2.268669002874299255e-05,5.032967861357774136e-06
2.770634920634920562e+00,-3.165549815258704598e-05,4.797734944911958396e-06
2.771428571428571352e+00,-3.573203253668262694e-05,3.137684837380401219e-06
2.772222222222222143e+00,-3.373606422691530048e-05,1.352122536377879875e-07
2.773015873015872934e+00,-2.561916879315198487e-05,-3.686499279595848518e-06
2.773809523809523725e+00,-1.260207697138311852e-05,-7.485859997963828865e-06
2.774603174603174516e+00,2.968454972821428166e-06,-1.032452993249356583e-05
2.775396825396825307e+00,1.803974769310513071e-05,-1.142766968468436410e-05
2.776190476190476097e+00,2.947605567755992074e-05,-1.041137496012028437e-05
2.776984126984126888e+00,3.475035897584125802e-05,-7.415520607232742932e-06
2.777777777777777679e+00,3.253922060038448463e-05,-3.105001983246921980e-06
2.778571428571428470e+00,2.306490363114120141e-05,1.465155005540639860e-06
2.779365079365079261e+00,8.086336002168601831e-06,5.091735741816201630e-06
2.780158730158730052e+00,-9.467315268229248496e-06,6.714860398109769955e-06
2.780952380952380842e+00,-2.612982873731605304e-05,5.686011991742338240e-06
2.781746031746031633e+00,-3.863993390760279550e-05,1.943314476387458797e-06
2.782539682539682424e+00,-4.461647449000197789e-05,-3.950903978516947992e-06
2.783333333333333215e+00,-4.302057589437465986e-05,-1.091760061621337437e-05
2.784126984126984006e+00,-3.431759930391917093e-05,-1.758351911570977323e-05
2.784920634920634797e+00,-2.032046582929432289e-05,-2.256472275246960066e-05
2.785714285714285587e+00,-3.762299911969708049e-06,-2.475084425053181096e-05
2.786507936507936378e+00,1.229796437006691048e-05,-2.353521835644023996e-05
2.787301587301587169e+00,2.510023100238614819e-05,-1.894648601885703777e-05
2.788095238095237960e+00,3.270240230753666957e-05,-1.165213951832385648e-05
2.788888888888888751e+00,3.429245614665985545e-05,-2.827734158603590250e-06
2.789682539682539542e+00,3.024396996256220935e-05,6.082757049553723189e-06
2.790476190476190332e+00,2.191977041610315761e-05,1.365941248909961353e-05
2.791269841269841123e+00,1.127800884298441063e-05,1.878143749719852869e-05
2.792063492063491914e+00,3.784939647471766858e-07,2.082438698122194141e-05
2.792857142857142705e+00,-9.083723465236693878e-06,1.974549197173344401e-05
2.793650793650793496e+00,-1.609299750814389287e-05,1.605152101386793292e-05
2.794444444444444287e+00,-2.039656185165316689e-05,1.066486921940660080e-05
2.795238095238095077e+00,-2.235283809270684582e-05,4.717975300772025800e-06
2.796031746031745868e+00,-2.261539217367377385e-05,-6.821693184978648841e-07
2.796825396825396659e+00,-2.176981228031765853e-05,-4.669275466714095431e-06
2.797619047619047450e+00,-2.004760583873395016e-05,-6.764469441450469690e-06
2.798412698412698241e+00,-1.721165610010736766e-05,-6.923657723673336499e-06
2.799206349206349032e+00,-1.265342381521668494e-05,-5.483166921410444258e-06
2.799999999999999822e+00,-5.677701576675578734e-06,-3.028086732778997152e-06
2.800793650793650613e+00,4.109568722604282035e-06,-2.234494808291909646e-07
2.801587301587301404e+00,1.643800588741336041e-05,2.348038431290838053e-06
2.802380952380952195e+00,3.017285518689071894e-05,4.304009869549083086e-06
2.803174603174602986e+00,4.338201048438117773e-05,5.513183000008693267e-06
2.803968253968253777e+00,5.368986106063266720e-05,6.077225151492986188e-06
2.804761904761904567e+00,5.883149125000823501e-05,6.262109976957022208e-06
2.805555555555555358e+00,5.724048163133206677e-05,6.405486718294381443e-06
2.806349206349206149e+00,4.848882195812359488e-05,6.821428944929483549e-06
2.807142857142856940e+00,3.345017307205390780e-05,7.715520588119566966e-06
2.807936507936507731e+00,1.414693739254885886e-05,9.120996339400230647e-06
2.808730158730158522e+00,-6.668995059346168798e-06,1.086922394021422910e-05
2.809523809523809312e+00,-2.608516634513658060e-05,1.260714458063258655e-05
2.810317460317460103e+00,-4.159810088052383451e-05,1.386539481912809870e-05
2.811111111111110894e+00,-5.154469706699746665e-05,1.416572793765887196e-05
2.811904761904761685e+00,-5.530835961566449001e-05,1.314170585237507926e-05
2.812698412698412920e+00,-5.328558025100571391e-05,1.063950294363202436e-05
2.813492063492063711e+00,-4.666140416711969311e-05,6.769902743688144465e-06
2.814285714285714501e+00,-3.707531323225523760e-05,1.897240426498943828e-06
2.815079365079365292e+00,-2.626464547528235585e-05,-3.428912986508567683e-06
2.815873015873016083e+00,-1.576214421277622111e-05,-8.575569558826566519e-06
2.816666666666666874e+00,-6.702105103920651276e-06,-1.292983053866539000e-05
2.817460317460317665e+00,2.459433586227741410e-07,-1.597863785583047641e-05
2.818253968253968456e+00,4.839633340797422683e-06,-1.735683821945250473e-05
2.819047619047619246e+00,7.174924543036229608e-06,-1.687340175688610330e-05
2.819841269841270037e+00,7.596315336247973294e-06,-1.453261175628662692e-05
2.820634920634920828e+00,6.627110392398721325e-06,-1.055941704100210271e-05
2.821428571428571619e+00,4.909118276187612664e-06,-5.420930999142493343e-06
2.822222222222222410e+00,3.128863969072652846e-06,1.799323576477479033e-07
2.823015873015873201e+00,1.918008812245928273e-06,5.366499786925430991e-06
2.823809523809523991e+00,1.737553392107167258e-06,9.220401959121916698e-06
2.824603174603174782e+00,2.773848217346740048e-06,1.097036251511568914e-05
2.825396825396825573e+00,4.880747031764208957e-06,1.019261127044370810e-05
2.826190476190476364e+00,7.595169318237071410e-06,6.956785280817877230e-06
2.826984126984127155e+00,1.023583764379525273e-05,1.855362571859933598e-06
2.827777777777777946e+00,1.207102870761882891e-05,-4.111630605531248585e-06
2.828571428571428736e+00,1.251567136207911580e-05,-9.772826882976981937e-06
2.829365079365079527e+00,1.129979067381055139e-05,-1.407062068669728121e-05
2.830158730158730318e+00,8.551930426689681607e-06,-1.630221460388798539e-05
2.830952380952381109e+00,4.769055536958950845e-06,-1.624249120490139784e-05
2.831746031746031900e+00,6.865043834392663404e-07,-1.412458090632890991e-05
2.832539682539682691e+00,-2.905757639536411096e-06,-1.050803003102400683e-05
2.833333333333333481e+00,-5.345310739356333611e-06,-6.095829754227518429e-06
2.834126984126984272e+00,-6.233421143779705308e-06,-1.562074974076134817e-06
2.834920634920635063e+00,-5.499814485287618695e-06,2.568069174638921413e-06
2.835714285714285854e+00,-3.390333576503138630e-06,5.969945129322075726e-06
2.836507936507936645e+00,-3.887032255541857372e-07,8.507702130505292190e-06
2.837301587301587436e+00,2.903795318354856200e-06,1.017862463482878155e-05
2.838095238095238226e+00,5.900478958999475788e-06,1.103993102552525885e-05
2.838888888888889017e+00,8.143423936919470612e-06,1.114515844232598174e-05
2.839682539682539808e+00,9.376554971576030225e-06,1.051161893417394387e-05
2.840476190476190599e+00,9.566207527178091091e-06,9.128917418055807864e-06
2.841269841269841390e+00,8.871827016934656046e-06,7.003132575076659049e-06
2.842063492063492181e+00,7.582055528315498005e-06,4.216423201280736971e-06
2.842857142857142971e+00,6.037846387339007839e-06,9.736390094773717089e-07
2.843650793650793762e+00,4.562168605024294239e-06,-2.389430103859499981e-06
2.844444444444444553e+00,3.407551366819103487e-06,-5.447605897497587652e-06
2.845238095238095344e+00,2.723593449322004567e-06,-7.770028611654146458e-06
2.846031746031746135e+00,2.541622786266167199e-06,-9.021941653605993814e-06
2.846825396825396925e+00,2.774493329951130454e-06,-9.052594449947500403e-06
2.847619047619047716e+00,3.233340461313459946e-06,-7.939994427135678169e-06
2.848412698412698507e+00,3.664905710659135644e-06,-5.975121741553093629e-06
2.849206349206349298e+00,3.809217843005558571e-06,-3.586106514327972404e-06
2.850000000000000089e+00,3.468795888583443545e-06,-1.222791458783931429e-06
2.850793650793650880e+00,2.571662317815737490e-06,7.615348633714615102e-07
2.851587301587301670e+00,1.206540663621722209e-06,2.189735581310484351e-06
2.852380952380952461e+00,-3.869875170003178944e-07,3.073577879594772142e-06
2.853174603174603252e+00,-1.877662914366522991e-06,3.559096992629012213e-06
2.853968253968254043e+00,-2.937672397779999164e-06,3.830970716672386938e-06
2.854761904761904834e+00,-3.345059203525924330e-06,4.014362012659457397e-06
2.855555555555555625e+00,-3.059010451303021975e-06,4.108269283999460523e-06
2.856349206349206415e+00,-2.240291597315743682e-06,3.971485881215278436e-06
2.857142857142857206e+00,-1.206228297634433645e-06,3.367294024173320581e-06
2.857936507936507997e+00,-3.321170193773925896e-07,2.057180564291218593e-06
2.858730158730158788e+00,6.836447326951599519e-08,-8.248477226152211784e-08
2.859523809523809579e+00,-1.592486102580317396e-07,-2.960030175488512186e-06
2.860317460317460370e+00,-9.709236967788195593e-07,-6.226708207421232711e-06
2.861111111111111160e+00,-2.155883344591605622e-06,-9.322601826490288041e-06
2.861904761904761951e+00,-3.422039310266380527e-06,-1.160874815448335713e-05
2.862698412698412742e+00,-4.496983415663841715e-06,-1.254681277911842089e-05
2.863492063492063533e+00,-5.205209540306736074e-06,-1.186281899221046611e-05
2.864285714285714324e+00,-5.498382672008223403e-06,-9.634329383685419687e-06
2.865079365079365115e+00,-5.437710595762228902e-06,-6.270666460140552244e-06
2.865873015873015905e+00,-5.144703689782058101e-06,-2.397128219108932113e-06
2.866666666666666696e+00,-4.743858744976556851e-06,1.313548475631619955e-06
2.867460317460317487e+00,-4.318731517612301189e-06,4.307637556542968792e-06
2.868253968253968278e+00,-3.894385825828188234e-06,6.268063173967143379e-06
2.869047619047619069e+00,-3.447822819212934475e-06,7.156448820517412892e-06
2.869841269841269860e+00,-2.937694070123541168e-06,7.176833820231412700e-06
2.870634920634920650e+00,-2.338862663330183123e-06,6.680386005358806095e-06
2.871428571428571441e+00,-1.667541479674356314e-06,6.045104267945800655e-06
2.872222222222222232e+00,-9.878143066024630945e-07,5.567913343836129407e-06
2.873015873015873023e+00,-3.979751910361508300e-07,5.398503131281732994e-06
2.873809523809523814e+00,-2.430033972453747574e-09,5.528477710216621392e-06
2.874603174603174605e+00,1.206297559247468704e-07,5.831571396839954499e-06
2.875396825396825395e+00,-5.486907867351575147e-08,6.136020259365799757e-06
2.876190476190476186e+00,-4.909564938647521162e-07,6.301797932114160637e-06
2.876984126984126977e+00,-1.090342841199299273e-06,6.274868200284406242e-06
2.877777777777777768e+00,-1.715851815426777943e-06,6.098960429108760614e-06
2.878571428571428559e+00,-2.219477860736298886e-06,5.882429140793481867e-06
2.879365079365079350e+00,-2.474342085306959505e-06,5.738332646736793114e-06
2.880158730158730140e+00,-2.402469720865855008e-06,5.728504964839159020e-06
2.880952380952380931e+00,-1.992242305448360586e-06,5.836867393337017211e-06
2.881746031746031722e+00,-1.301506761520267133e-06,5.976389683546166021e-06
2.882539682539682513e+00,-4.454911419782635605e-07,6.014736059627923976e-06
2.883333333333333304e+00,4.274578797491941035e-07,5.800451826593027396e-06
2.884126984126984095e+00,1.165762490880149829e-06,5.182303125292885918e-06
2.884920634920634885e+00,1.641930380769380978e-06,4.025035745878626395e-06
2.885714285714285676e+00,1.770561625591371787e-06,2.226932129753180205e-06
2.886507936507936467e+00,1.514805137204333131e-06,-2.585718513926664845e-07
2.887301587301587258e+00,8.845927217758539422e-07,-3.397985355139049181e-06
2.888095238095238049e+00,-6.675707298470672114e-08,-7.053901114353544715e-06
2.888888888888888840e+00,-1.242314194162418123e-06,-1.097215808263282249e-05
2.889682539682539630e+00,-2.497421326870253586e-06,-1.479337470898722267e-05
2.890476190476190421e+00,-3.636671529691247713e-06,-1.809666660458723807e-05
2.891269841269841212e+00,-4.419525629718701000e-06,-2.046969509263447200e-05
2.892063492063492003e+00,-4.581175557837175629e-06,-2.158660963947045655e-05
2.892857142857142794e+00,-3.871688268289377721e-06,-2.127218789302732469e-05
2.893650793650793585e+00,-2.111142947357775322e-06,-1.953619791407570620e-05
2.894444444444444375e+00,7.482495793285931455e-07,-1.657071844751794467e-05
2.895238095238095166e+00,4.568994368164360505e-06,-1.271086012355557400e-05
2.896031746031745957e+00,9.004217543013062007e-06,-8.366511903334809195e-06
2.896825396825396748e+00,1.352039799920037180e-05,-3.940507196008120570e-06
2.897619047619047539e+00,1.747392472641653418e-05,2.454347729478921718e-07
2.898412698412698330e+00,2.023102776675646063e-05,3.996540408745310877e-06
2.899206349206349120e+00,2.130254503973020018e-05,7.252178308563260264e-06
2.899999999999999911e+00,2.045437562567668888e-05,1.005892688336635674e-05
2.900793650793650702e+00,1.775753249710149346e-05,1.252579437680038041e-05
2.901587301587301493e+00,1.355960426112474577e-05,1.478072380695303908e-05
2.902380952380952284e+00,8.386854849311421955e-06,1.694056619893644707e-05
2.903174603174603075e+00,2.811752996673747454e-06,1.909342944197740273e-05
2.903968253968253865e+00,-2.668528674986347832e-06,2.127996185980456716e-05
2.904761904761904656e+00,-7.706935911752622013e-06,2.345771134307690642e-05
2.905555555555555447e+00,-1.212241054515177200e-05,2.544531940215913801e-05
2.906349206349206238e+00,-1.586740825822016419e-05,2.686675704483509447e-05
2.907142857142857029e+00,-1.896978531415983928e-05,2.713677507708675318e-05
2.907936507936507819e+00,-2.147178059718325114e-05,2.553130842939367869e-05
2.908730158730158610e+00,-2.338037654881447455e-05,2.136160471781328358e-05
2.909523809523809401e+00,-2.463249314394487993e-05,1.422387175053879819e-05
2.910317460317460192e+00,-2.507289228857372684e-05,4.248814444448479561e-06
2.911111111111110983e+00,-2.444701465727604212e-05,-7.745348763744276999e-06
2.911904761904761774e+00,-2.242092077606103455e-05,-2.027324091563988554e-05
2.912698412698412564e+00,-1.864449287654678937e-05,-3.140266787111475102e-05
2.913492063492063355e+00,-1.286364860959591352e-05,-3.914296993093815025e-05
2.914285714285714146e+00,-5.065475605226942525e-06,-4.191903297493496008e-05
2.915079365079364937e+00,4.381915378466076506e-06,-3.901273354267236284e-05
2.915873015873015728e+00,1.464554051036499623e-05,-3.083959239405320514e-05
2.916666666666666519e+00,2.444868084026473779e-05,-1.895170871145775366e-05
2.917460317460317309e+00,3.222777974577998997e-05,-5.728798114521334208e-06
2.918253968253968100e+00,3.642097286623654536e-05,6.177798778018320447e-06
2.919047619047618891e+00,3.583857615517449833e-05,1.448918757393681403e-05
2.919841269841269682e+00,3.002408144567964035e-05,1.783273315132468894e-05
2.920634920634920473e+00,1.949465674752967067e-05,1.600570436206174898e-05
2.921428571428571264e+00,5.766656909466640251e-06,9.909044312486828938e-06
2.922222222222222054e+00,-8.874806708237362681e-06,1.205835087803485576e-06
2.923015873015872845e+00,-2.182758463960172109e-05,-8.161004647818190526e-06
2.923809523809523636e+00,-3.073927028342577261e-05,-1.643391695001472755e-05
2.924603174603174427e+00,-3.404158694089082281e-05,-2.236063239937242445e-05
2.925396825396825218e+00,-3.130917743861178534e-05,-2.530694732337676422e-05
2.926190476190476009e+00,-2.334738794622882380e-05,-2.517934046052844636e-05
2.926984126984126799e+00,-1.198816345537632228e-05,-2.223725311176300511e-05
2.927777777777777590e+00,3.492025219258296858e-07,-1.689925571352518912e-05
2.928571428571428381e+00,1.121648635306783044e-05,-9.627991076189885519e-06
2.929365079365079172e+00,1.867151493540153041e-05,-9.277187959664144273e-07
2.930158730158729963e+00,2.165981280715086006e-05,8.572427532504155493e-06
2.930952380952380754e+00,2.016296334959199031e-05,1.802233765727177637e-05
2.931746031746031544e+00,1.510463381402510969e-05,2.632712425617734223e-05
2.932539682539682335e+00,8.069091963135721917e-06,3.225297894449502220e-05
2.933333333333333126e+00,9.212896495163672826e-07,3.466234593964501393e-05
2.934126984126983917e+00,-4.580724428090924038e-06,3.281553487230813679e-05
2.934920634920634708e+00,-7.109261488601244221e-06,2.663807983816984608e-05
2.935714285714285499e+00,-5.981362044957682538e-06,1.685765099736212140e-05
2.936507936507936289e+00,-1.246271899915239701e-06,4.956954956762680971e-06
2.937301587301587080e+00,6.349125669087517730e-06,-7.051174872539715676e-06
2.938095238095238315e+00,1.549744948578298613e-05,-1.696885677563299182e-05
2.938888888888889106e+00,2.454443406780935948e-05,-2.279705825355717562e-05
2.939682539682539897e+00,3.174990287930159354e-05,-2.308645171778330477e-05
2.940476190476190688e+00,3.556305054894774329e-05,-1.721275094464378962e-05
2.941269841269841478e+00,3.487425831288990251e-05,-5.557011528553214799e-06
2.942063492063492269e+00,2.920469207243096965e-05,1.043058072588908558e-05
2.942857142857143060e+00,1.880228665817437110e-05,2.832257545529769577e-05
2.943650793650793851e+00,4.628869195219367149e-06,4.500357904262258248e-05
2.944444444444444642e+00,-1.175718564502304033e-05,5.716394939049050726e-05
2.945238095238095433e+00,-2.840356230033574467e-05,6.193931632596928847e-05
2.946031746031746223e+00,-4.322677495320961116e-05,5.757079372531971541e-05
2.946825396825397014e+00,-5.430819098061447016e-05,4.392191344344729368e-05
2.947619047619047805e+00,-6.018985264370157003e-05,2.269166392014126257e-05
2.948412698412698596e+00,-6.012333536782922414e-05,-2.786818087098531331e-06
2.949206349206349387e+00,-5.421477061840111549e-05,-2.817526237760987012e-05
2.950000000000000178e+00,-4.341748277076679834e-05,-4.907153287642903618e-05
2.950793650793650968e+00,-2.935713339528771572e-05,-6.202924637511192016e-05
2.951587301587301759e+00,-1.402270732731447582e-05,-6.536907608338239596e-05
2.952380952380952550e+00,6.016224568633978607e-07,-5.954190147734064287e-05
2.953174603174603341e+00,1.287349739337297300e-05,-4.693790139029164630e-05
2.953968253968254132e+00,2.172543861302053014e-05,-3.120409286682135781e-05
2.954761904761904923e+00,2.676050660472370800e-05,-1.627317960423357656e-05
2.955555555555555713e+00,2.821769686084209654e-05,-5.376195710436673630e-06
2.956349206349206504e+00,2.683973255594285218e-05,-2.988605499188136926e-07
2.957142857142857295e+00,2.368333085556889413e-05,-1.060238107795435391e-06
2.957936507936508086e+00,1.990817799649033937e-05,-6.068842021526730077e-06
2.958730158730158877e+00,1.657362885887551135e-05,-1.267918965866478878e-05
2.959523809523809668e+00,1.446607714031647687e-05,-1.796814770631890114e-05
2.960317460317460458e+00,1.397616726213064059e-05,-1.950695134504369649e-05
2.961111111111111249e+00,1.504209656791674491e-05,-1.593317537831909046e-05
2.961904761904762040e+00,1.717068087543512079e-05,-7.210523570783690542e-06
2.962698412698412831e+00,1.953986231866075918e-05,5.434972325578540376e-06
2.963492063492063622e+00,2.117403474126739959e-05,1.983545900258278430e-05
2.964285714285714413e+00,2.116673587077653866e-05,3.335613872367280486e-05
2.965079365079365203e+00,1.890665561850023935e-05,4.342362294431744828e-05
2.965873015873015994e+00,1.425041888905298719e-05,4.802325139282408986e-05
2.966666666666666785e+00,7.589174779788068654e-06,4.609335568078235353e-05
2.967460317460317576e+00,-2.195873318219282696e-07,3.775130199390700506e-05
2.968253968253968367e+00,-8.044037182728900617e-06,2.430054065181202070e-05
2.969047619047619158e+00,-1.474282005135188258e-05,8.001088658899456322e-06
2.969841269841269948e+00,-1.942729167070638818e-05,-8.365986105959797515e-06
2.970634920634920739e+00,-2.164663358960610646e-05,-2.206034063155857253e-05
2.971428571428571530e+00,-2.144696825326373446e-05,-3.095234959569295480e-05
2.972222222222222321e+00,-1.929633345827795751e-05,-3.396590256790929752e-05
2.973015873015873112e+00,-1.590824186336584319e-05,-3.127622362608609033e-05
2.973809523809523903e+00,-1.202397210341056334e-05,-2.420612401830906865e-05
2.974603174603174693e+00,-8.220887233083650530e-06,-1.485288466227435754e-05
2.975396825396825484e+00,-4.801229568508105823e-06,-5.555617252770745895e-06
2.976190476190476275e+00,-1.787889937032935910e-06,1.652896670361632539e-06
2.976984126984127066e+00,9.814973792119663579e-07,5.478219680272820570e-06
2.977777777777777857e+00,3.702782162374072012e-06,5.589558940268845238e-06
2.978571428571428648e+00,6.454471922402158746e-06,2.601413623654265784e-06
2.979365079365079438e+00,9.103607907999012211e-06,-2.167564395927238414e-06
2.980158730158730229e+00,1.130196088166120603e-05,-7.084399546438651400e-06
2.980952380952381020e+00,1.257384774927432019e-05,-1.063134228765143435e-05
2.981746031746031811e+00,1.246556724374014035e-05,-1.176251003927928638e-05
2.982539682539682602e+00,1.070527142770988098e-05,-1.010486925474347224e-05
2.983333333333333393e+00,7.317422991342444929e-06,-5.972294065301926106e-06
2.984126984126984183e+00,2.650982365584220211e-06,-2.144992232379223522e-07
2.984920634920634974e+00,-2.688133823736018819e-06,6.039490316161230570e-06
2.985714285714285765e+00,-7.974188323088885860e-06,1.166747092424521739e-05
2.986507936507936556e+00,-1.251925912598722664e-05,1.579760738601018521e-05
2.987301587301587347e+00,-1.580245948118863401e-05,1.795699160056043024e-05
2.988095238095238138e+00,-1.754171314932343218e-05,1.810456368061930286e-05
2.988888888888888928e+00,-1.770485885628309485e-05,1.656288120240190576e-05
2.989682539682539719e+00,-1.647485917362648890e-05,1.388829873771416699e-05
2.990476190476190510e+00,-1.418864367638902659e-05,1.072465717736397935e-05
2.991269841269841301e+00,-1.126475824558160349e-05,7.674332160646023696e-06
2.992063492063492092e+00,-8.129684565836340935e-06,5.203976172183991676e-06
2.992857142857142883e+00,-5.150973336113574570e-06,3.590060563925831501e-06
2.993650793650793673e+00,-2.585747430359669642e-06,2.903191019064993827e-06
2.994444444444444464e+00,-5.523653849608160476e-07,3.027016107431864482e-06
2.995238095238095255e+00,9.700438261730875612e-07,3.704861654302068374e-06
2.996031746031746046e+00,2.114134282092143911e-06,4.604926842873681783e-06
2.996825396825396837e+00,3.074369514813282394e-06,5.393191157211941503e-06
2.997619047619047628e+00,4.045126698575484029e-06,5.801569001069834649e-06
2.998412698412698418e+00,5.160991309212213871e-06,5.677961052368047099e-06
2.999206349206349209e+00,6.453812852947492300e-06,5.007055856199488805e-06
3.000000000000000000e+00,7.837951480242134035e-06,3.897260852079279550e-06
3.000793650793650791e+00,9.128462783096581370e-06,2.538192596866252905e-06
3.001587301587301582e+00,1.008781649533451577e-05,1.141439069725278678e-06
3.002380952380952372e+00,1.048817109274157605e-05,-1.179232571628237098e-07
3.003174603174603163e+00,1.017209555426549247e-05,-1.141886734754142630e-06
3.003968253968253954e+00,9.096262945717160134e-06,-1.920609350212628684e-06
3.004761904761904745e+00,7.347934270177060801e-06,-2.512350009535085219e-06
3.005555555555555536e+00,5.130638748006910949e-06,-3.002036544169717256e-06
3.006349206349206327e+00,2.722653700273129552e-06,-3.457273045081990111e-06
3.007142857142857117e+00,4.188622928512954116e-07,-3.902429420784068434e-06
3.007936507936507908e+00,-1.528954755009693637e-06,-4.323614706475947151e-06
3.008730158730158699e+00,-2.958364254542670347e-06,-4.701543671617517856e-06
3.009523809523809490e+00,-3.818540479296443674e-06,-5.051738810075901162e-06
3.010317460317460281e+00,-4.165278172765421931e-06,-5.441908663881658090e-06
3.011111111111111072e+00,-4.133105598887910389e-06,-5.964168465131695690e-06
3.011904761904761862e+00,-3.894394493442748112e-06,-6.665754405858368234e-06
3.012698412698412653e+00,-3.617235675128536182e-06,-7.472037635256608666e-06
3.013492063492063444e+00,-3.431808183365443521e-06,-8.148798174251741750e-06
3.014285714285714235e+00,-3.410165566228712665e-06,-8.336307629219520191e-06
3.015079365079365026e+00,-3.559127647180973634e-06,-7.654601073929342872e-06
3.015873015873015817e+00,-3.822968654642956956e-06,-5.846233731578890792e-06
3.016666666666666607e+00,-4.093074157200817107e-06,-2.904841987651755925e-06
3.017460317460317398e+00,-4.224450686330912909e-06,8.590489839536624008e-07
3.018253968253968189e+00,-4.061024069993659983e-06,4.842225752574640934e-06
3.019047619047618980e+00,-3.470473860165655610e-06,8.261105024954600200e-06
3.019841269841269771e+00,-2.384500501364753790e-06,1.032491670289234312e-05
3.020634920634920562e+00,-8.343886349207211778e-07,1.042671569374108407e-05
3.021428571428571352e+00,1.031451338302615727e-06,8.303564141760011159e-06
3.022222222222222143e+00,2.958714654416182594e-06,4.122358687148053178e-06
3.023015873015872934e+00,4.629648513070998103e-06,-1.535141708227640339e-06
3.023809523809523725e+00,5.728080543528702390e-06,-7.787482572958972872e-06
3.024603174603174516e+00,6.009624182659680137e-06,-1.363868443811967564e-05
3.025396825396825307e+00,5.358030417172299948e-06,-1.818237989137884880e-05
3.026190476190476097e+00,3.815066814168880806e-06,-2.077139393114615806e-05
3.026984126984126888e+00,1.581207768649695247e-06,-2.111612332224387841e-05
3.027777777777777679e+00,-1.008439760220219221e-06,-1.930147075352704834e-05
3.028571428571428470e+00,-3.526836197316943387e-06,-1.573410502391764496e-05
3.029365079365079261e+00,-5.511901864242334110e-06,-1.104215431558383049e-05
3.030158730158730052e+00,-6.534717501529829425e-06,-5.950507055138404233e-06
3.030952380952380842e+00,-6.275209296096583270e-06,-1.152197411192078471e-06
3.031746031746031633e+00,-4.597506559176515946e-06,2.806894834859105571e-06
3.032539682539682424e+00,-1.611107396257376952e-06,5.614898429230222216e-06
3.033333333333333215e+00,2.301517550958429041e-06,7.238003546898250422e-06
3.034126984126984006e+00,6.511382857723676996e-06,7.910004125781658208e-06
3.034920634920634797e+00,1.023681563049565840e-05,8.064067987922493024e-06
3.035714285714285587e+00,1.269996408543977825e-05,8.217265540028319715e-06
3.036507936507936378e+00,1.331485213165996094e-05,8.832344863368037425e-06
3.037301587301587169e+00,1.185208125821849975e-05,1.018939681321521624e-05
3.038095238095237960e+00,8.520991188106116326e-06,1.229879060111092657e-05
3.038888888888888751e+00,3.934284716667348252e-06,1.487625799616747098e-05
3.039682539682539542e+00,-1.036864884350656887e-06,1.738555324084710985e-05
3.040476190476190332e+00,-5.469748013436660637e-06,1.913973238885007132e-05
3.041269841269841123e+00,-8.594036096952115721e-06,1.944228278808574176e-05
3.042063492063491914e+00,-9.935916361280756247e-06,1.774358758504554666e-05
3.042857142857142705e+00,-9.371680658709226111e-06,1.378491022738656199e-05
3.043650793650793496e+00,-7.091414615949483020e-06,7.701474679886131168e-06
3.044444444444444287e+00,-3.499969617699420257e-06,5.988489932731890289e-08
3.045238095238095077e+00,9.026556828234293329e-07,-8.185960230703888616e-06
3.046031746031745868e+00,5.619379929734089863e-06,-1.582240635475928487e-05
3.046825396825396659e+00,1.020428620488118977e-05,-2.157184252715780952e-05
3.047619047619047450e+00,1.425512021930459715e-05,-2.432479748492521345e-05
3.048412698412698241e+00,1.736781706905960904e-05,-2.336473358594627668e-05
3.049206349206349032e+00,1.908976195464201329e-05,-1.853966579359866217e-05
3.049999999999999822e+00,1.891676664494647335e-05,-1.034362906198323481e-05
3.050793650793650613e+00,1.636970964197351601e-05,1.117131021518487498e-07
3.051587301587301404e+00,1.115610473761922210e-05,1.123600407931470805e-05
3.052380952380952195e+00,3.374611997492060555e-06,2.119468644124757753e-05
3.053174603174602986e+00,-6.323614094577624369e-06,2.821135122621722636e-05
3.053968253968253777e+00,-1.671432110102003359e-05,3.089711114233705235e-05
3.054761904761904567e+00,-2.617626215961395495e-05,2.855162748980509595e-05
3.055555555555555358e+00,-3.303630276663540520e-05,2.136880051829760825e-05
3.056349206349206149e+00,-3.597475955819913143e-05,1.048070152246321405e-05
3.057142857142856940e+00,-3.435289842429085374e-05,-2.203692195503015522e-06
3.057936507936507731e+00,-2.836257177441842118e-05,-1.436003895713857747e-05
3.058730158730158522e+00,-1.897342279569635436e-05,-2.374307709907450987e-05
3.059523809523809312e+00,-7.716979910063182885e-06,-2.869338755111835491e-05
3.060317460317460103e+00,3.627427946951562038e-06,-2.851640696494871555e-05
3.061111111111110894e+00,1.338131927622389383e-05,-2.362154328010306040e-05
3.061904761904761685e+00,2.028897216214430358e-05,-1.537968047189144320e-05
3.062698412698412920e+00,2.374733944481520736e-05,-5.745655929154599192e-06
3.063492063492063711e+00,2.388498332680160391e-05,3.236687658549963863e-06
3.064285714285714501e+00,2.146343026157597537e-05,9.902672485307128323e-06
3.065079365079365292e+00,1.762588698457574131e-05,1.328704388957959783e-05
3.065873015873016083e+00,1.356473305085940148e-05,1.323324634356626679e-05
3.066666666666666874e+00,1.020139212708279259e-05,1.029782909105002542e-05
3.067460317460317665e+00,7.966052913767801940e-06,5.511956898843075658e-06
3.068253968253968456e+00,6.734673262220328378e-06,8.729300024607667619e-08
3.069047619047619246e+00,5.934235907560828767e-06,-4.853840956104340833e-06
3.069841269841270037e+00,4.777282038868363190e-06,-8.471448799161209424e-06
3.070634920634920828e+00,2.550028754544521117e-06,-1.030285241023800188e-05
3.071428571428571619e+00,-1.134333833468799809e-06,-1.026542579485609215e-05
3.072222222222222410e+00,-6.193583429096365464e-06,-8.592319061975560340e-06
3.073015873015873201e+00,-1.208827784236387248e-05,-5.735897509511877012e-06
3.073809523809523991e+00,-1.797874848825553972e-05,-2.270779783335612204e-06
3.074603174603174782e+00,-2.296418125206171190e-05,1.184715272985668721e-06
3.075396825396825573e+00,-2.630998416464275426e-05,4.026996066036179812e-06
3.076190476190476364e+00,-2.758357575966895899e-05,5.717651162578343921e-06
3.076984126984127155e+00,-2.667078381222063411e-05,5.842090707836623549e-06
3.077777777777777946e+00,-2.370317418473799680e-05,4.183134736654557023e-06
3.078571428571428736e+00,-1.895849189677203334e-05,7.972617596355504809e-07
3.079365079365079527e+00,-1.279094418729743318e-05,-3.936224432390332484e-06
3.080158730158730318e+00,-5.616141710728357919e-06,-9.326861172848079651e-06
3.080952380952381109e+00,2.062264022862023177e-06,-1.446497807594439238e-05
3.081746031746031900e+00,9.622131826395908066e-06,-1.838509300641024918e-05
3.082539682539682691e+00,1.632961240088318049e-05,-2.026134668806850659e-05
3.083333333333333481e+00,2.140892808786926083e-05,-1.957847199725566313e-05
3.084126984126984272e+00,2.417638041617802726e-05,-1.622969798852073100e-05
3.084920634920635063e+00,2.421230556555968973e-05,-1.052238335852945597e-05
3.085714285714285854e+00,2.151877201149445540e-05,-3.104576393446832024e-06
3.086507936507936645e+00,1.659750752821777313e-05,5.156826140007059882e-06
3.087301587301587436e+00,1.039719035241491390e-05,1.331589687237794816e-05
3.088095238095238226e+00,4.124551296841305953e-06,2.048291491702521598e-05
3.088888888888889017e+00,-1.030929300104110655e-06,2.593849617563031122e-05
3.089682539682539808e+00,-4.174740525070478612e-06,2.921350140685903215e-05
3.090476190476190599e+00,-4.907424593955456101e-06,3.012636687946424342e-05
3.091269841269841390e+00,-3.400194484726665723e-06,2.877677718832115611e-05
3.092063492063492181e+00,-3.380859264715008606e-07,2.550147569310587270e-05
3.092857142857142971e+00,3.250072145907019911e-06,2.080226700450854167e-05
3.093650793650793762e+00,6.239974163301818119e-06,1.525894972867546272e-05
3.094444444444444553e+00,7.690606872708327118e-06,9.442178743777183714e-06
3.095238095238095344e+00,7.092119883747568893e-06,3.841404358917140283e-06
3.096031746031746135e+00,4.515859677042645977e-06,-1.181223990854864832e-06
3.096825396825396925e+00,6.137069769337224779e-07,-5.407630126005591182e-06
3.097619047619047716e+00,-3.550205030140734255e-06,-8.754360954444901529e-06
3.098412698412698507e+00,-6.803739621122196590e-06,-1.124268250314393769e-05
3.099206349206349298e+00,-8.227491870239946590e-06,-1.295489755940776376e-05
3.100000000000000089e+00,-7.460673764792842854e-06,-1.398625992976596008e-05
3.100793650793650880e+00,-4.842965207980580124e-06,-1.440578362869553825e-05
3.101587301587301670e+00,-1.330233434699436328e-06,-1.423951456990685339e-05
3.102380952380952461e+00,1.797975991061932322e-06,-1.348299879473930559e-05
3.103174603174603252e+00,3.342779072563352608e-06,-1.213782676542309684e-05
3.103968253968254043e+00,2.564609087776539488e-06,-1.025622663781482464e-05
3.104761904761904834e+00,-5.886371302404702984e-07,-7.973714929312619362e-06
3.105555555555555625e+00,-5.471056488573294492e-06,-5.515405757535262334e-06
3.106349206349206415e+00,-1.093680689684278219e-05,-3.173189057697796298e-06
3.107142857142857206e+00,-1.567354501033744221e-05,-1.260533566002277927e-06
3.107936507936507997e+00,-1.856475039627163051e-05,-5.415594364114395761e-08
3.108730158730158788e+00,-1.897598988874060817e-05,2.696465069800678498e-07
3.109523809523809579e+00,-1.689115039358537356e-05,-3.048117064043968577e-07
3.110317460317460370e+00,-1.287458150379567975e-05,-1.589743270365324513e-06
3.111111111111111160e+00,-7.886966029210006946e-06,-3.186756216374251893e-06
3.111904761904761951e+00,-3.018181294681315054e-06,-4.531698977371702782e-06
3.112698412698412742e+00,7.890861728708291909e-07,-4.995511042295087536e-06
3.113492063492063533e+00,2.961173131019535718e-06,-4.025454951427051563e-06
3.114285714285714324e+00,3.417513458109491930e-06,-1.293022256085988877e-06
3.115079365079365115e+00,2.577177870944750535e-06,3.192164430223636650e-06
3.115873015873015905e+00,1.250339540816579344e-06,9.036347755986645050e-06
3.116666666666666696e+00,4.367073240049667678e-07,1.550085092260524629e-05
3.117460317460317487e+00,1.069587246862635717e-06,2.162216900058718658e-05
3.118253968253968278e+00,3.757625208437637988e-06,2.638630176408557674e-05
3.119047619047619069e+00,8.584676425314015101e-06,2.891519660626673524e-05
3.119841269841269860e+00,1.502635002982785922e-05,2.862234986942662076e-05
3.120634920634920650e+00,2.202168798431896723e-05,2.530906264604509083e-05
3.121428571428571441e+00,2.819687547638255031e-05,1.919357449134117071e-05
3.122222222222222232e+00,3.218601219358283353e-05,1.088044403380179546e-05
3.123015873015873023e+00,3.295753917821478087e-05,1.281219597332626610e-06
3.123809523809523814e+00,3.005621409835697145e-05,-8.505917501114277466e-06
3.124603174603174605e+00,2.370657682090464256e-05,-1.734909071701801357e-05
3.125396825396825395e+00,1.476858669128633911e-05,-2.424866011346169740e-05
3.126190476190476186e+00,4.567092956827926569e-06,-2.848310770175293687e-05
3.126984126984126977e+00,-5.367041914463181997e-06,-2.970170624373220963e-05
3.127777777777777768e+00,-1.359465553245708999e-05,-2.794896873400519132e-05
3.128571428571428559e+00,-1.904487312597466408e-05,-2.362940763678271058e-05
3.129365079365079350e+00,-2.120901115648409199e-05,-1.743273562789366776e-05
3.130158730158730140e+00,-2.020606353998279068e-05,-1.023521242676613011e-05
3.130952380952380931e+00,-1.670744292016557563e-05,-2.983176319188725555e-06
3.131746031746031722e+00,-1.174891273982338888e-05,3.437168908485101456e-06
3.132539682539682513e+00,-6.487286923999432617e-06,8.330381761916099288e-06
3.133333333333333304e+00,-1.965255622461439208e-06,1.129629437666420902e-05
3.134126984126984095e+00,1.068793595372947331e-06,1.227652586947969491e-05
3.134920634920634885e+00,2.263677224343840736e-06,1.152194532767605972e-05
3.135714285714285676e+00,1.687616945470884570e-06,9.486660575022911370e-06
3.136507936507936467e+00,-2.245723267922263675e-07,6.685900028658239795e-06
3.137301587301587258e+00,-2.788830611770923713e-06,3.573724804481533953e-06
3.138095238095238049e+00,-5.235215166011354937e-06,4.857850287747756115e-07
3.138888888888888840e+00,-6.886297899838795271e-06,-2.345972921870523279e-06
3.139682539682539630e+00,-7.309931768750713580e-06,-4.741535886969936784e-06
3.140476190476190421e+00,-6.407388777134237888e-06,-6.535199435371003273e-06
3.141269841269841212e+00,-4.413602155784245635e-06,-7.584492027624596123e-06
3.142063492063492003e+00,-1.811602832145818891e-06,-7.820056151977120863e-06
3.142857142857142794e+00,8.110166532917345590e-07,-7.300436359171557084e-06
3.143650793650793585e+00,2.919868215860842327e-06,-6.230790639301099195e-06
3.144444444444444375e+00,4.161859100663730984e-06,-4.925070091702234043e-06
3.145238095238095166e+00,4.433373325819756254e-06,-3.722341664530436032e-06
3.146031746031745957e+00,3.878002400390018221e-06,-2.890633564853564526e-06
3.146825396825396748e+00,2.821504987950701301e-06,-2.554962860298811679e-06
3.147619047619047539e+00,1.665531231962682039e-06,-2.672819076729631439e-06
3.148412698412698330e+00,7.706960739881447532e-07,-3.060730441206246564e-06
3.149206349206349120e+00,3.616807737871536388e-07,-3.457913480207345774e-06
3.149999999999999911e+00,4.794470894875621670e-07,-3.601881003990592745e-06
3.150793650793650702e+00,9.897641573201207847e-07,-3.290195221314235025e-06
3.151587301587301493e+00,1.639439416391375352e-06,-2.413688036235318119e-06
3.152380952380952284e+00,2.138792466553710257e-06,-9.631471908231716217e-07
3.153174603174603075e+00,2.244332989323195132e-06,9.776185292301068228e-07
3.153968253968253865e+00,1.819022542754155681e-06,3.240612884293239085e-06
3.154761904761904656e+00,8.568759954470132316e-07,5.582565341424885365e-06
3.155555555555555447e+00,-5.291657228358355017e-07,7.702297761582655079e-06
3.156349206349206238e+00,-2.146392211365970026e-06,9.278053807910623086e-06
3.157142857142857029e+00,-3.773114100453822292e-06,1.002907088321978195e-05
3.157936507936507819e+00,-5.206035812466658930e-06,9.790660583626556175e-06
3.158730158730158610e+00,-6.293856807714840449e-06,8.577777445703986534e-06
3.159523809523809401e+00,-6.953245389162987759e-06,6.608555393558555550e-06
3.160317460317460192e+00,-7.169234744143936036e-06,4.271024329269772277e-06
3.161111111111110983e+00,-6.985445978864711148e-06,2.037874116353803675e-06
3.161904761904761774e+00,-6.489548471615787492e-06,3.539775060317916377e-07
3.162698412698412564e+00,-5.796950780837528717e-06,-4.701517693058957012e-07
3.163492063492063355e+00,-5.032965406789394903e-06,-3.302610771543137162e-07
3.164285714285714146e+00,-4.312603343781072759e-06,6.505787327362319312e-07
3.165079365079364937e+00,-3.718597215466576262e-06,2.153752823559117233e-06
3.165873015873015728e+00,-3.281517350673805274e-06,3.740323380776538316e-06
3.166666666666666519e+00,-2.968758397499498318e-06,4.952925547221402628e-06
3.167460317460317309e+00,-2.689042390167372265e-06,5.422706599896553552e-06
3.168253968253968100e+00,-2.314710713647939810e-06,4.956521806520914684e-06
3.169047619047618891e+00,-1.717354877745919625e-06,3.581138101625964486e-06
3.169841269841269682e+00,-8.070970455432674989e-07,1.531338096331291290e-06
3.170634920634920473e+00,4.353940896162297498e-07,-8.139656153338313057e-07
3.171428571428571264e+00,1.942697005311447331e-06,-3.027363222373890732e-06
3.172222222222222054e+00,3.564721695508137574e-06,-4.732894803741163070e-06
3.173015873015872845e+00,5.093158618662691708e-06,-5.685352663998986995e-06
3.173809523809523636e+00,6.302083395557566415e-06,-5.811647852434729411e-06
3.174603174603174427e+00,6.996649794705796193e-06,-5.206914296220091608e-06
3.175396825396825218e+00,7.059004803138439322e-06,-4.090083676774124264e-06
3.176190476190476009e+00,6.479881964478767378e-06,-2.735709380521652921e-06
3.176984126984126799e+00,5.366885697653597216e-06,-1.405454056727849824e-06
3.177777777777777590e+00,3.926461287101014905e-06,-2.996551561250368090e-07
3.178571428571428381e+00,2.424288466513025945e-06,4.619852248151119374e-07
3.179365079365079172e+00,1.135065996934845958e-06,8.348137038254591055e-07
3.180158730158729963e+00,2.944003581770267269e-07,8.308275376949243535e-07
3.180952380952380754e+00,6.249303440936500822e-08,4.990799906812520390e-07
3.181746031746031544e+00,5.041284318298232242e-07,-8.887478443586611214e-08
3.182539682539682335e+00,1.584907213305383406e-06,-8.466160778911658555e-07
3.183333333333333126e+00,3.180607638041347548e-06,-1.672467733537043481e-06
3.184126984126983917e+00,5.094633727609730261e-06,-2.439818995327397186e-06
3.184920634920634708e+00,7.077810969762192965e-06,-2.980079046472496651e-06
3.185714285714285499e+00,8.846038379646794440e-06,-3.067689529558066282e-06
3.186507936507936289e+00,1.009498767084729073e-05,-2.424035587621123356e-06
3.187301587301587080e+00,1.051656399560398550e-05,-7.576455057524190077e-07
3.188095238095238315e+00,9.826801659764089646e-06,2.152092288828800230e-06
3.188888888888889106e+00,7.814982179564045566e-06,6.339274882961616773e-06
3.189682539682539897e+00,4.414964549242783485e-06,1.153603923327472124e-05
3.190476190476190688e+00,-2.175034933214421218e-07,1.710331992780062674e-05
3.191269841269841478e+00,-5.655101025412099403e-06,2.205380436734536153e-05
3.192063492063492269e+00,-1.121484342871660952e-05,2.519490930266979472e-05
3.192857142857143060e+00,-1.606021995714199349e-05,2.538316665583941154e-05
3.193650793650793851e+00,-1.937567223616882672e-05,2.183469821717613131e-05
3.194444444444444642e+00,-2.056480241927305421e-05,1.439904885932143377e-05
3.195238095238095433e+00,-1.940748711272749283e-05,3.699695909709796039e-06
3.196031746031746223e+00,-1.612179777527710729e-05,-8.916780209196317256e-06
3.196825396825397014e+00,-1.130875002602340418e-05,-2.161786497548278999e-05
3.197619047619047805e+00,-5.797427801779426288e-06,-3.244798347585411616e-05
3.198412698412698596e+00,-4.402495866681527396e-07,-3.972711952071349058e-05
3.199206349206349387e+00,4.077658364060218213e-06,-4.239061523701342677e-05
3.200000000000000178e+00,7.359328574017959314e-06,-4.018832329601822737e-05
3.200793650793650968e+00,9.318931442635628099e-06,-3.369140791143179818e-05
3.201587301587301759e+00,1.011470132553299755e-05,-2.410480879946644861e-05
3.202380952380952550e+00,1.002971646924080999e-05,-1.294306561647454386e-05
3.203174603174603341e+00,9.351172180232146132e-06,-1.673344669350637200e-06
3.203968253968254132e+00,8.290701014442128074e-06,8.561139037537078303e-06
3.204761904761904923e+00,6.964885376409292575e-06,1.705863680345418777e-05
3.205555555555555713e+00,5.427822644891959915e-06,2.350311989445966093e-05
3.206349206349206504e+00,3.728274290058814226e-06,2.778850862689178990e-05
3.207142857142857295e+00,1.959166847784857272e-06,2.982029054679744931e-05
3.207936507936508086e+00,2.761708741020260827e-07,2.939657203431768128e-05
3.208730158730158877e+00,-1.121235391902982130e-06,2.623166219126590534e-05
3.209523809523809668e+00,-2.035684880384595781e-06,2.011456969297623537e-05
3.210317460317460458e+00,-2.323026357936626412e-06,1.112433534602898340e-05
3.211111111111111249e+00,-1.925887590222780400e-06,-2.055284357927912094e-07
3.211904761904762040e+00,-8.772372394406275208e-07,-1.285247651651346134e-05
3.212698412698412831e+00,7.221984178081624167e-07,-2.541591770322330541e-05
3.213492063492063622e+00,2.736348687559386557e-06,-3.633398166890724064e-05
3.214285714285714413e+00,5.018695786121547191e-06,-4.414157943248296135e-05
3.215079365079365203e+00,7.421291849749093883e-06,-4.770593863277890824e-05
3.215873015873015994e+00,9.790075078001542547e-06,-4.638950835649676926e-05
3.216666666666666785e+00,1.195388539902275903e-05,-4.011331133972074190e-05
3.217460317460317576e+00,1.371439161699300765e-05,-2.932536261132306308e-05
3.218253968253968367e+00,1.484265065564395472e-05,-1.490833692339576710e-05
3.219047619047619158e+00,1.508808545428066392e-05,1.927926654574482856e-06
3.219841269841269948e+00,1.420631698504104206e-05,1.973771658223738283e-05
3.220634920634920739e+00,1.200984427273556454e-05,3.691445219596187438e-05
3.221428571428571530e+00,8.437230810799510204e-06,5.177847861235207325e-05
3.222222222222222321e+00,3.623906593960388222e-06,6.271477617437106887e-05
3.223015873015873112e+00,-2.052894531708422814e-06,6.837649319837664009e-05
3.223809523809523903e+00,-7.984448246468527852e-06,6.792872107969518509e-05
3.224603174603174693e+00,-1.341511892067314695e-05,6.126736156611800978e-05
3.225396825396825484e+00,-1.759817269189711849e-05,4.913290773923447688e-05
3.226190476190476275e+00,-1.999097266666180660e-05,3.305877792263016998e-05
3.226984126984127066e+00,-2.043159371298563319e-05,1.514135324495925529e-05
3.227777777777777857e+00,-1.922857431900234853e-05,-2.325549194758147801e-06
3.228571428571428648e+00,-1.711256840902114992e-05,-1.726589569531984588e-05
3.229365079365079438e+00,-1.504354605759054263e-05,-2.818326979917067993e-05
3.230158730158730229e+00,-1.392317850741848257e-05,-3.438142978232874603e-05
3.230952380952381020e+00,-1.430275126491325982e-05,-3.600055349991274035e-05
3.231746031746031811e+00,-1.618398248233483144e-05,-3.388281543799402304e-05
3.232539682539682602e+00,-1.898346879725766045e-05,-2.932356574841317820e-05
3.233333333333333393e+00,-2.168284487603929799e-05,-2.377927951439675990e-05
3.234126984126984183e+00,-2.312779084694091037e-05,-1.859608355917216442e-05
3.234920634920634974e+00,-2.238309456765977295e-05,-1.480356387854045749e-05
3.235714285714285765e+00,-1.902179679395609802e-05,-1.299350956160848352e-05
