Timestamp,Flexor carpi radialis,Extensor digitorum
2.000000000000000000e+00,3.610049354325254136e-06,-7.816607463300124603e-05
2.000793650793650791e+00,-1.892692397643315332e-06,-9.810950361478892857e-05
2.001587301587301582e+00,-7.798433273964702392e-06,-1.035281024576028560e-04
2.002380952380952372e+00,-1.303178193358807370e-05,-9.380957888358404894e-05
2.003174603174603163e+00,-1.671888615948747297e-05,-7.123118318836871299e-05
2.003968253968253954e+00,-1.830414423468629061e-05,-4.033780665088202604e-05
2.004761904761904745e+00,-1.762236352058804654e-05,-6.872437835007439249e-06
2.005555555555555536e+00,-1.491128230482752497e-05,2.347885833565673932e-05
2.006349206349206327e+00,-1.075501376029621111e-05,4.624526958770998634e-05
2.007142857142857117e+00,-5.963125786692096931e-06,5.898489126232747296e-05
2.007936507936507908e+00,-1.405907862568915708e-06,6.158616446182946604e-05
2.008730158730158699e+00,2.161357534467505516e-06,5.600635045497752993e-05
2.009523809523809490e+00,4.247280841343503451e-06,4.553155180146332233e-05
2.010317460317460281e+00,4.713075583152088021e-06,3.376672277708045683e-05
2.011111111111111072e+00,3.780811343583806910e-06,2.363954892066487512e-05
2.011904761904761862e+00,1.958744780171890729e-06,1.669757360410753717e-05
2.012698412698412653e+00,-9.943162607543363728e-08,1.288598693649263859e-05
2.013492063492063444e+00,-1.766201708651718560e-06,1.084256921701397159e-05
2.014285714285714235e+00,-2.595365486255329310e-06,8.590432133951734204e-06
2.015079365079365026e+00,-2.415771558566626263e-06,4.398115948931533924e-06
2.015873015873015817e+00,-1.338868754442696003e-06,-2.464767920421214436e-06
2.016666666666666607e+00,3.146003639332124265e-07,-1.131539286121735072e-05
2.017460317460317398e+00,2.137444081405268619e-06,-2.012834807300913382e-05
2.018253968253968189e+00,3.765289279014295740e-06,-2.608396887404607691e-05
2.019047619047618980e+00,4.973068814149366247e-06,-2.644172491250261091e-05
2.019841269841269771e+00,5.714273618751054251e-06,-1.948321501507929501e-05
2.020634920634920562e+00,6.097397314353068375e-06,-5.243976091828142298e-06
2.021428571428571352e+00,6.311962800793367092e-06,1.419151732863171183e-05
2.022222222222222143e+00,6.530793267838612212e-06,3.494497965812532923e-05
2.023015873015872934e+00,6.823276966891550507e-06,5.212535088568647987e-05
2.023809523809523725e+00,7.112610722072887212e-06,6.097441486367465285e-05
2.024603174603174516e+00,7.196055816646358389e-06,5.810220449391951956e-05
2.025396825396825307e+00,6.824663546475502028e-06,4.247989415259463536e-05
2.026190476190476097e+00,5.817160322613438024e-06,1.589028217095232978e-05
2.026984126984126888e+00,4.170450532709956596e-06,-1.733321810206490658e-05
2.027777777777777679e+00,2.128586690358943381e-06,-5.125155999243355593e-05
2.028571428571428470e+00,1.799277373816776720e-07,-7.971938563021793061e-05
2.029365079365079261e+00,-1.033645631348126281e-06,-9.786391632732537287e-05
2.030158730158730052e+00,-8.898845716861249401e-07,-1.032283318765746109e-04
2.030952380952380842e+00,9.927670663773366737e-07,-9.625154997663041016e-05
2.031746031746031633e+00,4.548335888775185802e-06,-7.995383140911304927e-05
2.032539682539682424e+00,9.144928705131000996e-06,-5.894219380114848174e-05
2.033333333333333215e+00,1.361533830673468138e-05,-3.805158494283323038e-05
2.034126984126984006e+00,1.645956149402917881e-05,-2.102805086198592416e-05
2.034920634920634797e+00,1.619260699841850538e-05,-9.623541413361875812e-06
2.035714285714285587e+00,1.176453314988221155e-05,-3.337327450754634836e-06
2.036507936507936378e+00,2.948797354186616153e-06,1.503313995640129711e-07
2.037301587301587169e+00,-9.413221364265642163e-06,4.003859294059490347e-06
2.038095238095237960e+00,-2.340772308355767498e-05,1.102278480390880768e-05
2.038888888888888751e+00,-3.633865664313350028e-05,2.256776751411613145e-05
2.039682539682539542e+00,-4.529586023487850767e-05,3.795023521091288137e-05
2.040476190476190332e+00,-4.788864708154695463e-05,5.447528020598962597e-05
2.041269841269841123e+00,-4.294301813337979257e-05,6.813370787383269062e-05
2.042063492063491914e+00,-3.092842565411825457e-05,7.474584365526232592e-05
2.042857142857142705e+00,-1.394215113169577570e-05,7.122336582089681468e-05
2.043650793650793496e+00,4.773669852742648884e-06,5.657671633570254902e-05
2.044444444444444287e+00,2.163780077690108383e-05,3.236725157014199361e-05
2.045238095238095077e+00,3.360308648449677961e-05,2.465858660165204395e-06
2.046031746031745868e+00,3.883759060006076742e-05,-2.781461824947257416e-05
2.046825396825396659e+00,3.704362818567612941e-05,-5.296277427702407973e-05
2.047619047619047450e+00,2.937365862982371269e-05,-6.853920938482505954e-05
2.048412698412698241e+00,1.801704191473155000e-05,-7.214224964754435124e-05
2.049206349206349032e+00,5.603075928545491450e-06,-6.385026539739815693e-05
2.049999999999999822e+00,-5.412464631035418237e-06,-4.607898445551851681e-05
2.050793650793650613e+00,-1.323068223089558692e-05,-2.293715261021732430e-05
2.051587301587301404e+00,-1.696872472536853775e-05,7.356293243568095186e-07
2.052380952380952195e+00,-1.667216406840843834e-05,2.041689507652419614e-05
2.053174603174602986e+00,-1.312707959018679018e-05,3.280430786119616429e-05
2.053968253968253777e+00,-7.560250209446865329e-06,3.638981312580061235e-05
2.054761904761904567e+00,-1.320277274916737431e-06,3.160659608650650485e-05
2.055555555555555358e+00,4.389599228358030270e-06,2.055518106358711979e-05
2.056349206349206149e+00,8.687119009706395026e-06,6.409268050332931089e-06
2.057142857142856940e+00,1.108515248265111547e-05,-7.339563285959162861e-06
2.057936507936507731e+00,1.147992189410974327e-05,-1.762437988057301530e-05
2.058730158730158522e+00,1.008494281088347725e-05,-2.238088624055723793e-05
2.059523809523809312e+00,7.343509231671963308e-06,-2.085821107785483655e-05
2.060317460317460103e+00,3.838928671005865837e-06,-1.362758687286194115e-05
2.061111111111110894e+00,2.035372767335335499e-07,-2.327221540279150433e-06
2.061904761904761685e+00,-2.979947681528836237e-06,1.076221383496667048e-05
2.062698412698412920e+00,-5.280666760114127336e-06,2.319857083862919428e-05
2.063492063492063711e+00,-6.501615247906933924e-06,3.282210626588952576e-05
2.064285714285714501e+00,-6.707039187371699517e-06,3.810388552312521566e-05
2.065079365079365292e+00,-6.173288003601902923e-06,3.836823603093702611e-05
2.065873015873016083e+00,-5.273753664938926561e-06,3.387415610980644561e-05
2.066666666666666874e+00,-4.341190570944863063e-06,2.575244310307280195e-05
2.067460317460317665e+00,-3.560522037871559044e-06,1.581092392274832551e-05
2.068253968253968456e+00,-2.926323392663905679e-06,6.237587309209602350e-06
2.069047619047619246e+00,-2.267398328119650138e-06,-7.565753407544933265e-07
2.069841269841270037e+00,-1.317782500861205663e-06,-3.311162483296478173e-06
2.070634920634920828e+00,1.917866014860921747e-07,-2.664985019042872652e-07
2.071428571428571619e+00,2.441476913777679842e-06,8.549569395561130847e-06
2.072222222222222410e+00,5.441648492872775822e-06,2.214696602573679139e-05
2.073015873015873201e+00,8.975088670550939484e-06,3.836916849384385502e-05
2.073809523809523991e+00,1.257608405000430475e-05,5.411197587276314977e-05
2.074603174603174782e+00,1.556143655482372602e-05,6.578443617113637813e-05
2.075396825396825573e+00,1.712433199512290174e-05,6.997182866259623560e-05
2.076190476190476364e+00,1.649088675301883935e-05,6.419025697408973314e-05
2.076984126984127155e+00,1.312148068737537154e-05,4.756393959256870560e-05
2.077777777777777946e+00,6.917246081020816049e-06,2.123593978335481389e-05
2.078571428571428736e+00,-1.627375641605312106e-06,-1.163797765612118717e-05
2.079365079365079527e+00,-1.139193524229650460e-05,-4.636403311006309750e-05
2.080158730158730318e+00,-2.076486666376436751e-05,-7.757615100204537145e-05
2.080952380952381109e+00,-2.794470740086714408e-05,-1.003011837545438761e-04
2.081746031746031900e+00,-3.134110644541456594e-05,-1.109717665812959915e-04
2.082539682539682691e+00,-2.996276175103030126e-05,-1.081461379478371854e-04
2.083333333333333481e+00,-2.368223437517274718e-05,-9.277220885849256555e-05
2.084126984126984272e+00,-1.331491402089277762e-05,-6.795147334409864517e-05
2.084920634920635063e+00,-5.062615848081661096e-07,-3.827796198308523772e-05
2.085714285714285854e+00,1.254178799527705061e-05,-8.914902499763730474e-06
2.086507936507936645e+00,2.345802647233563004e-05,1.538824676401579221e-05
2.087301587301587436e+00,3.014257347601282573e-05,3.114278471335502638e-05
2.088095238095238226e+00,3.118338950006326141e-05,3.668127052645849705e-05
2.088888888888889017e+00,2.616083016858572038e-05,3.234911120601330879e-05
2.089682539682539808e+00,1.576521915595441341e-05,2.031716669979863058e-05
2.090476190476190599e+00,1.691939654488633095e-06,4.066849186259182006e-06
2.091269841269841390e+00,-1.366780347980833482e-05,-1.235445662424764219e-05
2.092063492063492181e+00,-2.767339044130764954e-05,-2.517369615717509313e-05
2.092857142857142971e+00,-3.792223773327952133e-05,-3.166577726674990752e-05
2.093650793650793762e+00,-4.267998850416870638e-05,-3.068968590670530461e-05
2.094444444444444553e+00,-4.117526081559688054e-05,-2.285087738311458307e-05
2.095238095238095344e+00,-3.371112024714149782e-05,-1.024129831519731847e-05
2.096031746031746135e+00,-2.157697797374200243e-05,4.174311693326117805e-06
2.096825396825396925e+00,-6.777933973390355383e-06,1.735578104469626720e-05
2.097619047619047716e+00,8.363765418923449710e-06,2.695047385637721994e-05
2.098412698412698507e+00,2.164687606402363793e-05,3.182062219993198830e-05
2.099206349206349298e+00,3.136916213340707984e-05,3.220480145293791549e-05
2.100000000000000089e+00,3.656693710691164315e-05,2.948660268694945161e-05
2.100793650793650880e+00,3.708287763867869265e-05,2.565238320703778867e-05
2.101587301587301670e+00,3.347581737366624221e-05,2.260709826316434481e-05
2.102380952380952461e+00,2.681871585169414815e-05,2.155870449925138187e-05
2.103174603174603252e+00,1.844502840413359882e-05,2.266206235923621100e-05
2.103968253968254043e+00,9.701557112422637107e-06,2.503368691945968076e-05
2.104761904761904834e+00,1.750971210499429694e-06,2.713105550919274364e-05
2.105555555555555625e+00,-4.554845888398448122e-06,2.737077853881785650e-05
2.106349206349206415e+00,-8.730776066029445951e-06,2.477659338854155499e-05
2.107142857142857206e+00,-1.065749862705487103e-05,1.942938725049178815e-05
2.107936507936507997e+00,-1.053992105656891542e-05,1.254803004431540469e-05
2.108730158730158788e+00,-8.835717654906613923e-06,6.148726847728847896e-06
2.109523809523809579e+00,-6.159140738563580364e-06,2.375531837579111910e-06
2.110317460317460370e+00,-3.167767664931761646e-06,2.714321926705035623e-06
2.111111111111111160e+00,-4.496863910280612318e-07,7.350226951035142959e-06
2.111904761904761951e+00,1.564227121296269265e-06,1.488810827539572984e-05
2.112698412698412742e+00,2.643642646699842222e-06,2.254976120142843164e-05
2.113492063492063533e+00,2.755483247334494609e-06,2.682878140604756195e-05
2.114285714285714324e+00,2.028914120913486643e-06,2.445436014977363774e-05
2.115079365079365115e+00,7.091661413231703010e-07,1.341186509536933727e-05
2.115873015873015905e+00,-8.858891169039323555e-07,-6.279655284908005968e-06
2.116666666666666696e+00,-2.402329324299724225e-06,-3.229518023565475812e-05
2.117460317460317487e+00,-3.480959429852890077e-06,-6.036780176105241934e-05
2.118253968253968278e+00,-3.784503368358746275e-06,-8.522721779049957224e-05
2.119047619047619069e+00,-3.025776135394762923e-06,-1.018617293253074420e-04
2.119841269841269860e+00,-1.005051651511106427e-06,-1.067426732673638321e-04
2.120634920634920650e+00,2.335834439314254128e-06,-9.866419511909688058e-05
2.121428571428571441e+00,6.844227531649687472e-06,-7.898189136269500742e-05
2.122222222222222232e+00,1.208891860001078370e-05,-5.122550425677006603e-05
2.123015873015873023e+00,1.732488558622977457e-05,-2.023786435046789453e-05
2.123809523809523814e+00,2.152829693162811069e-05,8.904738345907366390e-06
2.124603174603174605e+00,2.353335259846902423e-05,3.192385354761590008e-05
2.125396825396825395e+00,2.227820960122353961e-05,4.611038277641047985e-05
2.126190476190476186e+00,1.712507514124868472e-05,5.070834412792018018e-05
2.126984126984126977e+00,8.173154579674243766e-06,4.686883610511373882e-05
2.127777777777777768e+00,-3.543211451258426732e-06,3.721398875907543357e-05
2.128571428571428559e+00,-1.606748539098061730e-05,2.512557150886300124e-05
2.129365079365079350e+00,-2.679424789188923744e-05,1.392920455260429276e-05
2.130158730158730140e+00,-3.298508044943430857e-05,6.166413085611837183e-06
2.130952380952380931e+00,-3.243616083864966242e-05,3.122377587342892139e-06
2.131746031746031722e+00,-2.414072326495662256e-05,4.708780966860051327e-06
2.132539682539682513e+00,-8.752717604511047990e-06,9.704655345175567619e-06
2.133333333333333304e+00,1.132188558040453083e-05,1.626163657467215811e-05
2.134126984126984095e+00,3.229132051489190281e-05,2.251454442949910091e-05
2.134920634920634885e+00,4.975234529594673653e-05,2.712305501515333960e-05
2.135714285714285676e+00,5.969096279187184861e-05,2.960329465761734087e-05
2.136507936507936467e+00,5.944856163040384271e-05,3.037164218684814703e-05
2.137301587301587258e+00,4.839364836934593322e-05,3.049794545479138434e-05
2.138095238095238049e+00,2.811509807233562004e-05,3.123804835695625132e-05
2.138888888888888840e+00,2.076366021923179114e-06,3.347404433118061115e-05
2.139682539682539630e+00,-2.518674228348836356e-05,3.722383426217115157e-05
2.140476190476190421e+00,-4.910864897550902498e-05,4.138176240777211674e-05
2.141269841269841212e+00,-6.608044066840406078e-05,4.381339481330541658e-05
2.142063492063492003e+00,-7.410307402951150295e-05,4.184440762660461116e-05
2.142857142857142794e+00,-7.296010753410975605e-05,3.306177214287393210e-05
2.143650793650793585e+00,-6.394999683942344552e-05,1.621523811314440881e-05
2.144444444444444375e+00,-4.936552896202219318e-05,-8.078644135297683530e-06
2.145238095238095166e+00,-3.193892776459242376e-05,-3.711491365445044699e-05
2.146031746031745957e+00,-1.438976358768313039e-05,-6.651234878600813477e-05
2.146825396825396748e+00,9.014093656789473544e-07,-9.119276602468467366e-05
2.147619047619047539e+00,1.213422301193020771e-05,-1.066468898626096598e-04
2.148412698412698330e+00,1.827354108114141203e-05,-1.100917426178928387e-04
2.149206349206349120e+00,1.915764953204105386e-05,-1.011600835512362019e-04
2.149999999999999911e+00,1.547600541966065012e-05,-8.192914398340590799e-05
2.150793650793650702e+00,8.580498621454786626e-06,-5.631927601296256091e-05
2.151587301587301493e+00,1.557983295843579773e-07,-2.908253780946118408e-05
2.152380952380952284e+00,-8.159575758299597383e-06,-4.692437058165268540e-06
2.153174603174603075e+00,-1.508396279850814847e-05,1.357362270336361497e-05
2.153968253968253865e+00,-1.984851976530485246e-05,2.416448340824995392e-05
2.154761904761904656e+00,-2.217864998076162340e-05,2.732812141432302628e-05
2.155555555555555447e+00,-2.214611352854450706e-05,2.477466020100552190e-05
2.156349206349206238e+00,-1.997346136837309844e-05,1.906677029848163370e-05
2.157142857142857029e+00,-1.587373008315132256e-05,1.292145405101964963e-05
2.157936507936507819e+00,-9.981817585127500088e-06,8.599424141323479764e-06
2.158730158730158610e+00,-2.392933095222143580e-06,7.502631557125808089e-06
2.159523809523809401e+00,6.717271068605193731e-06,1.002441127466818038e-05
2.160317460317460192e+00,1.694477027475564689e-05,1.563085013062073356e-05
2.161111111111110983e+00,2.754554404307430824e-05,2.311069791884223275e-05
2.161904761904761774e+00,3.741627185523641074e-05,3.091233103998045344e-05
2.162698412698412564e+00,4.520034173953422092e-05,3.748576597301335391e-05
2.163492063492063355e+00,4.951859615592187194e-05,4.156488944638444112e-05
2.164285714285714146e+00,4.928452610248005309e-05,4.235499542794360638e-05
2.165079365079364937e+00,4.402463645894057437e-05,3.962066479590412748e-05
2.165873015873015728e+00,3.410041632112349898e-05,3.368630856766134039e-05
2.166666666666666519e+00,2.073796457241997517e-05,2.536322330837311966e-05
2.167460317460317309e+00,5.825267989321896846e-06,1.581213299899219770e-05
2.168253968253968100e+00,-8.479031025575767936e-06,6.352092484361766054e-06
2.169047619047618891e+00,-2.020665275126243477e-05,-1.762253844781967385e-06
2.169841269841269682e+00,-2.796620561688482252e-05,-7.562177354989730900e-06
2.170634920634920473e+00,-3.114842147428764771e-05,-1.054808110811533914e-05
2.171428571428571264e+00,-2.992154721659230125e-05,-1.079657872062802071e-05
2.172222222222222054e+00,-2.506493024861941653e-05,-8.954331751451834960e-06
2.173015873015872845e+00,-1.772774333685356885e-05,-6.092645472237648333e-06
2.173809523809523636e+00,-9.191233942168326485e-06,-3.428641945169215679e-06
2.174603174603174427e+00,-6.758716167772932460e-07,-1.967298631380169990e-06
2.175396825396825218e+00,6.800138357211916241e-06,-2.162596294215961802e-06
2.176190476190476009e+00,1.251932164477328506e-05,-3.710559523909210160e-06
2.176984126984126799e+00,1.612609498178559761e-05,-5.559911162082050766e-06
2.177777777777777590e+00,1.764720433741826842e-05,-6.165250985295394740e-06
2.178571428571428381e+00,1.745999594302883630e-05,-3.935768317566281998e-06
2.179365079365079172e+00,1.619602155090681320e-05,2.225707730028489544e-06
2.180158730158729963e+00,1.458003597856395710e-05,1.242817533535528444e-05
2.180952380952380754e+00,1.323119801584067739e-05,2.547847318149650710e-05
2.181746031746031544e+00,1.248263897283377440e-05,3.886404586295775859e-05
2.182539682539682335e+00,1.228797043135003374e-05,4.910658334606950881e-05
2.183333333333333126e+00,1.226244911773807305e-05,5.248213594374180163e-05
2.184126984126983917e+00,1.185275549677094034e-05,4.598447912310769654e-05
2.184920634920634708e+00,1.056822254435037214e-05,2.828524202486327292e-05
2.185714285714285499e+00,8.176748472190763323e-06,3.853089729809792737e-07
2.186507936507936289e+00,4.791280875663146704e-06,-3.429129165349114011e-05
2.187301587301587080e+00,8.304137961914570689e-07,-7.044769766535843901e-05
2.188095238095238315e+00,-3.110572467972721720e-06,-1.019940549658387513e-04
2.188888888888889106e+00,-6.422455565308197581e-06,-1.233796435222647312e-04
2.189682539682539897e+00,-8.634593593934145454e-06,-1.308271907248591097e-04
2.190476190476190688e+00,-9.532570336270960732e-06,-1.231488948788841368e-04
2.191269841269841478e+00,-9.223777500942259577e-06,-1.019405127939844159e-04
2.192063492063492269e+00,-8.131944930282060437e-06,-7.112213665289268379e-05
2.192857142857143060e+00,-6.907935662646233989e-06,-3.597501275592255280e-05
2.193650793650793851e+00,-6.267275488263292707e-06,-1.954880085993884091e-06
2.194444444444444642e+00,-6.793468191631856687e-06,2.640240671779624099e-05
2.195238095238095433e+00,-8.761089270495577062e-06,4.623448522814635741e-05
2.196031746031746223e+00,-1.202619630982848144e-05,5.664938180964577502e-05
2.196825396825397014e+00,-1.601171733480834380e-05,5.858803196342034990e-05
2.197619047619047805e+00,-1.979513959995931455e-05,5.436727032265623716e-05
2.198412698412698596e+00,-2.229038825826227320e-05,4.704563544870612698e-05
2.199206349206349387e+00,-2.250026851793077189e-05,3.973605187280824104e-05
2.200000000000000178e+00,-1.979405810349177557e-05,3.496287948197843642e-05
2.200793650793650968e+00,-1.414089996905462917e-05,3.414958315706923198e-05
2.201587301587301759e+00,-6.219103961233287867e-06,3.732266630391475870e-05
2.202380952380952550e+00,2.659861509953490342e-06,4.310652963141270509e-05
2.203174603174603341e+00,1.082339163929972203e-05,4.904548145103014811e-05
2.203968253968254132e+00,1.664944970333402891e-05,5.222091582312754406e-05
2.204761904761904923e+00,1.900424794137939224e-05,5.004695539595639388e-05
2.205555555555555713e+00,1.756903016510590442e-05,4.105321437361621791e-05
2.206349206349206504e+00,1.294346911149929978e-05,2.543309984572337612e-05
2.207142857142857295e+00,6.482087147633790091e-06,5.176849641965870087e-06
2.207936507936508086e+00,-8.828758671427768178e-08,-1.628119234242988493e-05
2.208730158730158877e+00,-5.143889508543393289e-06,-3.482756258828036144e-05
2.209523809523809668e+00,-7.576461825682900956e-06,-4.664924576467074685e-05
2.210317460317460458e+00,-7.019645673531891449e-06,-4.916980904423406224e-05
2.211111111111111249e+00,-3.843815094728617168e-06,-4.170227061297744912e-05
2.211904761904762040e+00,1.041981722877841564e-06,-2.566002862483722646e-05
2.212698412698412831e+00,6.489011411966922876e-06,-4.281085981679298660e-06
2.213492063492063622e+00,1.140934610539850362e-05,1.806300069941879066e-05
2.214285714285714413e+00,1.500374635761758733e-05,3.680966281320912969e-05
2.215079365079365203e+00,1.687562038373940278e-05,4.818502073942779423e-05
2.215873015873015994e+00,1.701612409603507793e-05,5.000284829525255772e-05
2.216666666666666785e+00,1.567102799186042620e-05,4.210407134294064471e-05
2.217460317460317576e+00,1.313551866238264374e-05,2.633363738828847428e-05
2.218253968253968367e+00,9.564171208611429469e-06,6.055265493043675924e-06
2.219047619047619158e+00,4.902930296508743968e-06,-1.467951577510219618e-05
2.219841269841269948e+00,-9.860237085973869152e-07,-3.209124092748673671e-05
2.220634920634920739e+00,-8.034449706776706550e-06,-4.349744475197113246e-05
2.221428571428571530e+00,-1.565767717104457629e-05,-4.777780374448212290e-05
2.222222222222222321e+00,-2.262324693730445328e-05,-4.537950445903066681e-05
2.223015873015873112e+00,-2.723925541406665437e-05,-3.792536125644075057e-05
2.223809523809523903e+00,-2.785118344709136101e-05,-2.761246963464733569e-05
2.224603174603174693e+00,-2.347348696679681592e-05,-1.662267074662291107e-05
2.225396825396825484e+00,-1.429691980207736874e-05,-6.706444452719409396e-06
2.226190476190476275e+00,-1.846087796247367907e-06,1.004918679118329445e-06
2.226984126984127066e+00,1.130586641014797280e-05,5.998474879545048201e-06
2.227777777777777857e+00,2.218919816381769203e-05,8.273610767841262599e-06
2.228571428571428648e+00,2.824396367428653882e-05,8.205082599543797370e-06
2.229365079365079438e+00,2.801688030591813059e-05,6.412006826343798565e-06
2.230158730158730229e+00,2.153120426298524352e-05,3.636785255622767888e-06
2.230952380952381020e+00,1.023412235957308840e-05,6.285626677667831381e-07
2.231746031746031811e+00,-3.425954752529375768e-06,-1.964407920329291812e-06
2.232539682539682602e+00,-1.662673574527492905e-05,-3.678862184702540227e-06
2.233333333333333393e+00,-2.680828730321478621e-05,-4.284559241458727083e-06
2.234126984126984183e+00,-3.217590821313213772e-05,-3.795681072719515826e-06
2.234920634920634974e+00,-3.201086931836882301e-05,-2.456265071592327729e-06
2.235714285714285765e+00,-2.678056465900083570e-05,-7.117643188383416039e-07
2.236507936507936556e+00,-1.804027249320710289e-05,8.329952365912657220e-07
2.237301587301587347e+00,-8.108456109593198649e-06,1.487222814718186414e-06
2.238095238095238138e+00,4.714469534814625413e-07,6.023966100908784087e-07
2.238888888888888928e+00,5.585185761482053043e-06,-2.243183196877128451e-06
2.239682539682539719e+00,6.131009509594001249e-06,-7.043965941907319495e-06
2.240476190476190510e+00,2.325664015234097924e-06,-1.322409012251054456e-05
2.241269841269841301e+00,-4.390187545230812185e-06,-1.962272636072890159e-05
2.242063492063492092e+00,-1.182098976646245916e-05,-2.464006556470926538e-05
2.242857142857142883e+00,-1.769144269477875426e-05,-2.652300021440673943e-05
2.243650793650793673e+00,-2.028524745151537344e-05,-2.373057966256254293e-05
2.244444444444444464e+00,-1.882729951423613740e-05,-1.530898288243969971e-05
2.245238095238095255e+00,-1.350193974907416487e-05,-1.214394246935895869e-06
2.246031746031746046e+00,-5.156301158262488993e-06,1.747227463304650992e-05
2.246825396825396837e+00,5.136295805131965388e-06,3.850131855057647697e-05
2.247619047619047628e+00,1.644037308183295297e-05,5.864525377566324251e-05
2.248412698412698418e+00,2.809592641414005362e-05,7.416091628147615717e-05
2.249206349206349209e+00,3.959646577210631385e-05,8.149061343183174619e-05
2.250000000000000000e+00,5.030441995182596376e-05,7.808024429639775197e-05
2.250793650793650791e+00,5.918618822641739534e-05,6.311650797370346212e-05
2.251587301587301582e+00,6.475108336431256804e-05,3.796158315664809068e-05
2.252380952380952372e+00,6.529374769308638610e-05,6.112954203855115079e-06
2.253174603174603163e+00,5.940168528177524379e-05,-2.736775692997745811e-05
2.253968253968253954e+00,4.655318930472067537e-05,-5.686134734825188975e-05
2.254761904761904745e+00,2.755627960209229804e-05,-7.739883413815524247e-05
2.255555555555555536e+00,4.609939330702196934e-06,-8.576355502706357360e-05
2.256349206349206327e+00,-1.909505183675481448e-05,-8.120415810241153761e-05
2.257142857142857117e+00,-4.013050340485639839e-05,-6.558247168171394738e-05
2.257936507936507908e+00,-5.568157581466297729e-05,-4.292648711729067239e-05
2.258730158730158699e+00,-6.419191661744378080e-05,-1.849859795431555302e-05
2.259523809523809490e+00,-6.559151664572884614e-05,2.403901878511961757e-06
2.260317460317460281e+00,-6.107300767669835058e-05,1.563879040703214460e-05
2.261111111111111072e+00,-5.255684430160921338e-05,1.911946920294176633e-05
2.261904761904761862e+00,-4.207724130243327957e-05,1.321009532945870333e-05
2.262698412698412653e+00,-3.130050902972263772e-05,5.247607908672520495e-07
2.263492063492063444e+00,-2.128742697194732525e-05,-1.480298206146527734e-05
2.264285714285714235e+00,-1.249594815890285037e-05,-2.817589101589640057e-05
2.265079365079365026e+00,-4.944827538276241390e-06,-3.563683989135420785e-05
2.265873015873015817e+00,1.560904508639148194e-06,-3.475401502025131161e-05
2.266666666666666607e+00,7.224847185396680152e-06,-2.509943259953218654e-05
2.267460317460317398e+00,1.212948114719755771e-05,-8.244802563589971481e-06
2.268253968253968189e+00,1.620801482323225957e-05,1.268826922712057895e-05
2.269047619047618980e+00,1.931035128043013190e-05,3.379371738754294492e-05
2.269841269841269771e+00,2.132015136035272419e-05,5.127043904653635225e-05
2.270634920634920562e+00,2.225837011651031174e-05,6.222308239043872712e-05
2.271428571428571352e+00,2.231665419005692758e-05,6.519072485815138440e-05
2.272222222222222143e+00,2.180148333869620167e-05,6.029988090438257375e-05
2.273015873015872934e+00,2.101716352863881358e-05,4.904758563407985198e-05
2.273809523809523725e+00,2.014536366899150139e-05,3.381830598488873318e-05
2.274603174603174516e+00,1.917582672458667219e-05,1.728983174247709066e-05
2.275396825396825307e+00,1.791478591741682368e-05,1.880951545504871405e-06
2.276190476190476097e+00,1.606497115442196354e-05,-1.064466908525631249e-05
2.276984126984126888e+00,1.334936662929945199e-05,-1.935738583756748383e-05
2.277777777777777679e+00,9.642837595270113227e-06,-2.411937738739402032e-05
2.278571428571428470e+00,5.076227728032443470e-06,-2.537192300548233914e-05
2.279365079365079261e+00,8.112200423619499642e-08,-2.384397593489100841e-05
2.280158730158730052e+00,-4.650488646046461755e-06,-2.028845725985047347e-05
2.280952380952380842e+00,-8.303612757559245041e-06,-1.533245715733725259e-05
2.281746031746031633e+00,-1.015933671769627926e-05,-9.475805020884190563e-06
2.282539682539682424e+00,-9.843574532203284964e-06,-3.205884898825309666e-06
2.283333333333333215e+00,-7.525937574704054155e-06,2.857918644855599060e-06
2.284126984126984006e+00,-3.990291583408090525e-06,7.892657824866834191e-06
2.284920634920634797e+00,-5.316572291121819874e-07,1.094340081990777010e-05
2.285714285714285587e+00,1.315621328831473823e-06,1.114319641011343697e-05
2.286507936507936378e+00,1.643018994892166524e-07,8.018860068384077761e-06
2.287301587301587169e+00,-4.816074707561201025e-06,1.775909100189721182e-06
2.288095238095237960e+00,-1.357556820919545737e-05,-6.550802661170397029e-06
2.288888888888888751e+00,-2.504607048305792813e-05,-1.516272716556957277e-05
2.289682539682539542e+00,-3.724846664135935591e-05,-2.180130757725441717e-05
2.290476190476190332e+00,-4.764084817071853264e-05,-2.423965019945988178e-05
2.291269841269841123e+00,-5.363768115763562107e-05,-2.084917602075835627e-05
2.292063492063491914e+00,-5.318009875629351667e-05,-1.109338006537619482e-05
2.292857142857142705e+00,-4.521871124832964800e-05,4.192859707339132267e-06
2.293650793650793496e+00,-2.998919331606361371e-05,2.283072844397210388e-05
2.294444444444444287e+00,-9.013628692384964490e-06,4.164463769905078793e-05
2.295238095238095077e+00,1.516699161355221442e-05,5.705745915893561726e-05
2.296031746031745868e+00,3.945214527965694440e-05,6.579915085876364379e-05
2.296825396825396659e+00,6.070896844300688143e-05,6.556977130677953559e-05
2.297619047619047450e+00,7.624127483230484022e-05,5.551447648495955872e-05
2.298412698412698241e+00,8.412015585625780517e-05,3.641651745623694902e-05
2.299206349206349032e+00,8.336337923817838504e-05,1.058062705732789680e-05
2.299999999999999822e+00,7.400036537562543551e-05,-1.855288737352422075e-05
2.300793650793650613e+00,5.706681354813365769e-05,-4.697260927043450229e-05
2.301587301587301404e+00,3.454291219130666398e-05,-7.072954167256748385e-05
2.302380952380952195e+00,9.207797664959508924e-06,-8.654015211361119832e-05
2.303174603174602986e+00,-1.563681258651594859e-05,-9.228013943214980375e-05
2.303968253968253777e+00,-3.659623434177225129e-05,-8.730669425256583024e-05
2.304761904761904567e+00,-5.072302212330809072e-05,-7.255911866805508589e-05
2.305555555555555358e+00,-5.605519606135221655e-05,-5.040581783822099680e-05
2.306349206349206149e+00,-5.201080130828027328e-05,-2.424091887082951410e-05
2.307142857142856940e+00,-3.952934579921745379e-05,2.112384865126653805e-06
2.307936507936507731e+00,-2.092452407583546452e-05,2.507691018676766584e-05
2.308730158730158522e+00,5.120115731035889319e-07,4.192556193055770459e-05
2.309523809523809312e+00,2.106696901058382432e-05,5.117681688574270339e-05
2.310317460317460103e+00,3.721334319393868555e-05,5.270379458714010356e-05
2.311111111111110894e+00,4.616430756923911414e-05,4.756352647003303351e-05
2.311904761904761685e+00,4.628990955238209776e-05,3.762806565284183228e-05
2.312698412698412920e+00,3.735177133363830674e-05,2.513812511782344931e-05
2.313492063492063711e+00,2.054925986719416888e-05,1.229438928771686365e-05
2.314285714285714501e+00,-1.612705356005272762e-06,9.616564832969011917e-07
2.315079365079365292e+00,-2.563325248964020168e-05,-7.492172805461171698e-06
2.315873015873016083e+00,-4.751112956430195448e-05,-1.224538089335802276e-05
2.316666666666666874e+00,-6.340724142386765737e-05,-1.300645222491302637e-05
2.317460317460317665e+00,-7.038252448313398444e-05,-9.976341870271684273e-06
2.318253968253968456e+00,-6.704378035865032664e-05,-3.808931774595823652e-06
2.319047619047619246e+00,-5.391000851428722705e-05,4.439942657039190191e-06
2.319841269841270037e+00,-3.337021974687575299e-05,1.340302660271931560e-05
2.320634920634920828e+00,-9.214689489182452102e-06,2.155642907558413647e-05
2.321428571428571619e+00,1.415993852142736542e-05,2.743855150734770843e-05
2.322222222222222410e+00,3.268183560897584697e-05,2.990001753307845557e-05
2.323015873015873201e+00,4.344374851477437029e-05,2.832858180011706945e-05
2.323809523809523991e+00,4.524689611711126772e-05,2.279042545637455496e-05
2.324603174603174782e+00,3.872279778399716167e-05,1.404410565341717050e-05
2.325396825396825573e+00,2.601998042163830024e-05,3.409467848623504736e-06
2.326190476190476364e+00,1.016212971958943370e-05,-7.491500705278707395e-06
2.326984126984127155e+00,-5.723880255922229572e-06,-1.706641417401250871e-05
2.327777777777777946e+00,-1.908215252843344770e-05,-2.407234687537251387e-05
2.328571428571428736e+00,-2.832802261721582978e-05,-2.783589687615479173e-05
2.329365079365079527e+00,-3.291463184776423795e-05,-2.831461847246954426e-05
2.330158730158730318e+00,-3.313172990133450758e-05,-2.599334666554339873e-05
2.330952380952381109e+00,-2.977555056610829701e-05,-2.166287571160567453e-05
2.331746031746031900e+00,-2.382524595856485856e-05,-1.616160992532970407e-05
2.332539682539682691e+00,-1.620907287668299721e-05,-1.016207855022323298e-05
2.333333333333333481e+00,-7.686851167233284347e-06,-4.058118714338074637e-06
2.334126984126984272e+00,1.162861859697182170e-06,2.029330213330051052e-06
2.334920634920635063e+00,9.884883447979802602e-06,8.143277043253990743e-06
2.335714285714285854e+00,1.806595575778938286e-05,1.431608224848328398e-05
2.336507936507936645e+00,2.527650852450493853e-05,2.037999691826609429e-05
2.337301587301587436e+00,3.106369918243259687e-05,2.582050946929207464e-05
2.338095238095238226e+00,3.499508034253241082e-05,2.972768392070473915e-05
2.338888888888889017e+00,3.673059118205518239e-05,3.088515572759301830e-05
2.339682539682539808e+00,3.609555764944806820e-05,2.800730276602679970e-05
2.340476190476190599e+00,3.313408252228920503e-05,2.009387114597949942e-05
2.341269841269841390e+00,2.813008183171899639e-05,6.824748145952918535e-06
2.342063492063492181e+00,2.158796902659342525e-05,-1.111762896166776054e-05
2.342857142857142971e+00,1.417007887610319921e-05,-3.191406960610712596e-05
2.343650793650793762e+00,6.597666902147985929e-06,-5.274114030141451774e-05
2.344444444444444553e+00,-4.643859539452387164e-07,-7.018165264674964328e-05
2.345238095238095344e+00,-6.509411527018688809e-06,-8.085028747200555081e-05
2.346031746031746135e+00,-1.124984577358101481e-05,-8.211197725631122078e-05
2.346825396825396925e+00,-1.462496636718966023e-05,-7.273704165382943862e-05
2.347619047619047716e+00,-1.676246365210105684e-05,-5.333368357274419799e-05
2.348412698412698507e+00,-1.791198736551002606e-05,-2.642979322625007248e-05
2.349206349206349298e+00,-1.836840616992658121e-05,3.856295896597011873e-06
2.350000000000000089e+00,-1.839746792753793776e-05,3.252382582875554522e-05
2.350793650793650880e+00,-1.817488132716678329e-05,5.465016992845234524e-05
2.351587301587301670e+00,-1.775199853520551636e-05,6.640539514008142030e-05
2.352380952380952461e+00,-1.706123321544468564e-05,6.588809540298361223e-05
2.353174603174603252e+00,-1.596634140047693563e-05,5.356794428820543319e-05
2.353968253968254043e+00,-1.434626005646357110e-05,3.220080684975521780e-05
2.354761904761904834e+00,-1.218298445769803045e-05,6.215329938655359122e-06
2.355555555555555625e+00,-9.615562897504687089e-06,-1.928137422533102868e-05
2.356349206349206415e+00,-6.932309316535457822e-06,-3.961797236534020698e-05
2.357142857142857206e+00,-4.498921530304704213e-06,-5.149510818451691476e-05
2.357936507936507997e+00,-2.647771199255516919e-06,-5.350100464923037699e-05
2.358730158730158788e+00,-1.569165614600567045e-06,-4.609773604365196079e-05
2.359523809523809579e+00,-1.243467293511172609e-06,-3.113846748063222019e-05
2.360317460317460370e+00,-1.437402523250083871e-06,-1.112056057557869515e-05
2.361111111111111160e+00,-1.766321705797033222e-06,1.155153631265010951e-05
2.361904761904761951e+00,-1.803157411419985762e-06,3.504710322690967770e-05
2.362698412698412742e+00,-1.199344299711718556e-06,5.819696449714496182e-05
2.363492063492063533e+00,2.217655679137802483e-07,8.020441233508562428e-05
2.364285714285714324e+00,2.428470186205382381e-06,1.001402433425079008e-04
2.365079365079365115e+00,5.208476399608714957e-06,1.164716809094940887e-04
2.365873015873015905e+00,8.243803297039172895e-06,1.268752455133426822e-04
2.366666666666666696e+00,1.120115736741793500e-05,1.284901190907798653e-04
2.367460317460317487e+00,1.380585025994700265e-05,1.186092670684317979e-04
2.368253968253968278e+00,1.587791112408540312e-05,9.563436851992467220e-05
2.369047619047619069e+00,1.732378995146777111e-05,5.999482670284827634e-05
2.369841269841269860e+00,1.809136906767515370e-05,1.469221859264717660e-05
2.370634920634920650e+00,1.810862818790443511e-05,-3.480043541551639192e-05
2.371428571428571441e+00,1.723618228728424483e-05,-8.138459077244012850e-05
2.372222222222222232e+00,1.526580462294564416e-05,-1.177930239774042112e-04
2.373015873015873023e+00,1.198329953619669049e-05,-1.383006256727924393e-04
2.373809523809523814e+00,7.284596527446362113e-06,-1.402072180606464384e-04
2.374603174603174605e+00,1.302620103762511345e-06,-1.246388187721222539e-04
2.375396825396825395e+00,-5.511289974611538642e-06,-9.639271330018540527e-05
2.376190476190476186e+00,-1.239546297152938859e-05,-6.282385750677391264e-05
2.376984126984126977e+00,-1.838978047946207819e-05,-3.204947576250659125e-05
2.377777777777777768e+00,-2.253285225944421416e-05,-1.094951590260141904e-05
2.378571428571428559e+00,-2.409826575201982863e-05,-3.500754802067091527e-06
2.379365079365079350e+00,-2.280380500880223809e-05,-9.884369197385571660e-06
2.380158730158730140e+00,-1.892240497373208594e-05,-2.658721073366910608e-05
2.380952380952380931e+00,-1.324392908233419917e-05,-4.744616611359125870e-05
2.381746031746031722e+00,-6.883540381135527053e-06,-6.533332403892442913e-05
2.382539682539682513e+00,-9.885617935653927437e-07,-7.400779482356653984e-05
2.383333333333333304e+00,3.563851465799523187e-06,-6.962321209016648167e-05
2.384126984126984095e+00,6.379258818205663374e-06,-5.150512177023207691e-05
2.384920634920634885e+00,7.600871920869376125e-06,-2.205953680280110319e-05
2.385714285714285676e+00,7.796676559804198938e-06,1.405819723848545223e-05
2.386507936507936467e+00,7.728521897524496262e-06,5.119838774545180823e-05
2.387301587301587258e+00,8.089814686299163721e-06,8.402129329987488007e-05
2.388095238095238049e+00,9.299365789548213012e-06,1.085301911301205798e-04
2.388888888888888840e+00,1.140766618356920180e-05,1.226333657494907826e-04
2.389682539682539630e+00,1.412422489760349595e-05,1.261786683542066249e-04
2.390476190476190421e+00,1.693223127029818651e-05,1.205392595073509845e-04
2.391269841269841212e+00,1.923708421377963223e-05,1.079302376939575799e-04
2.392063492063492003e+00,2.050069405395715273e-05,9.068100461898140720e-05
2.392857142857142794e+00,2.033262533376857000e-05,7.066818150119870900e-05
2.393650793650793585e+00,1.852968215291846013e-05,4.904092111164788453e-05
2.394444444444444375e+00,1.507238021578401180e-05,2.627219205195890553e-05
2.395238095238095166e+00,1.009899151110511299e-05,2.474249826672622585e-06
2.396031746031745957e+00,3.882085458785746769e-06,-2.215487809197973134e-05
2.396825396825396748e+00,-3.176097801888947032e-06,-4.691945714536019754e-05
2.397619047619047539e+00,-1.053305615178381874e-05,-7.039978446297485905e-05
2.398412698412698330e+00,-1.750450268629811883e-05,-9.050571662759817986e-05
2.399206349206349120e+00,-2.330404509554846631e-05,-1.048194042503589637e-04
2.399999999999999911e+00,-2.714330833643366687e-05,-1.111433652982862384e-04
2.400793650793650702e+00,-2.838152583297719542e-05,-1.080928042989876079e-04
2.401587301587301493e+00,-2.668170215302236118e-05,-9.554181695524187150e-05
2.402380952380952284e+00,-2.211680431897140062e-05,-7.477371943184550173e-05
2.403174603174603075e+00,-1.518425265708375222e-05,-4.828476364450363012e-05
2.403968253968253865e+00,-6.722249321025636581e-06,-1.930572515978824121e-05
2.404761904761904656e+00,2.243449008682788484e-06,8.808759567096771632e-06
2.405555555555555447e+00,1.067761189452744594e-05,3.314543758262950945e-05
2.406349206349206238e+00,1.770086176413699573e-05,5.160855494337686670e-05
2.407142857142857029e+00,2.272227974228092494e-05,6.304209165895949935e-05
2.407936507936507819e+00,2.552937018569360103e-05,6.712598570938114833e-05
2.408730158730158610e+00,2.632104821257385724e-05,6.414647754005080261e-05
2.409523809523809401e+00,2.566025607705802472e-05,5.476881484472559712e-05
2.410317460317460192e+00,2.432590926020813339e-05,3.991677656365828287e-05
2.411111111111110983e+00,2.307077708955322564e-05,2.079613055057767806e-05
2.411904761904761774e+00,2.234020886896667760e-05,-9.865863039945117379e-07
2.412698412698412564e+00,2.205282537972719966e-05,-2.332351490900529242e-05
2.413492063492063355e+00,2.155083550287672465e-05,-4.364527155021203085e-05
2.414285714285714146e+00,1.977288440282553694e-05,-5.916818265089578474e-05
2.415079365079364937e+00,1.560800052142685885e-05,-6.732573335281815221e-05
2.415873015873015728e+00,8.309002881142874293e-06,-6.628060907047277691e-05
2.416666666666666519e+00,-2.179044197834708552e-06,-5.537757372302425004e-05
2.417460317460317309e+00,-1.508133338368480623e-05,-3.541246901655672471e-05
2.418253968253968100e+00,-2.888322214006556641e-05,-8.641363261085207702e-06
2.419047619047618891e+00,-4.162099097479217972e-05,2.148732583719207626e-05
2.419841269841269682e+00,-5.130790431557149753e-05,5.083914858512049082e-05
2.420634920634920473e+00,-5.640394128950471033e-05,7.525009391847142879e-05
2.421428571428571264e+00,-5.621190214172476848e-05,9.120761573717021768e-05
2.422222222222222054e+00,-5.107445792521078421e-05,9.642023421081643295e-05
2.423015873015872845e+00,-4.228813878897281960e-05,9.016697719140941841e-05
2.423809523809523636e+00,-3.174364671815900322e-05,7.337671394873026458e-05
2.424603174603174427e+00,-2.140533968224984297e-05,4.845484160677905280e-05
2.425396825396825218e+00,-1.280120756316018997e-05,1.892196184032742388e-05
2.426190476190476009e+00,-6.680892201468763956e-06,-1.106028446934476200e-05
2.426984126984126799e+00,-2.928796092513810642e-06,-3.721656355384512778e-05
2.427777777777777590e+00,-7.316455336808501775e-07,-5.569338296794812887e-05
2.428571428571428381e+00,1.071662613734884360e-06,-6.355768764871909599e-05
2.429365079365079172e+00,3.571632868484298752e-06,-5.920735118935785857e-05
2.430158730158729963e+00,7.424741103106116243e-06,-4.264380230907139778e-05
2.430952380952380754e+00,1.264767707044715725e-05,-1.556772307507510810e-05
2.431746031746031544e+00,1.862278658165119824e-05,1.872665910676397574e-05
2.432539682539682335e+00,2.430104088772721475e-05,5.566665191091591409e-05
2.433333333333333126e+00,2.852552452753809846e-05,8.991266295701754623e-05
2.434126984126983917e+00,3.036479245458722354e-05,1.160278234297302635e-04
2.434920634920634708e+00,2.935409038641438752e-05,1.292396151955647790e-04
2.435714285714285499e+00,2.558413263098108901e-05,1.261988086505465626e-04
2.436507936507936289e+00,1.963041588667436565e-05,1.056153787457256706e-04
2.437301587301587080e+00,1.236201061268966643e-05,6.864310219448048478e-05
2.438095238095238315e+00,4.696556017333639575e-06,1.890934802762014183e-05
2.438888888888889106e+00,-2.626064662564423444e-06,-3.785786312039511603e-05
2.439682539682539897e+00,-9.191991530603950395e-06,-9.458219963475075732e-05
2.440476190476190688e+00,-1.494784603304479181e-05,-1.438732609087034519e-04
2.441269841269841478e+00,-2.011326562796935988e-05,-1.791798298402224037e-04
2.442063492063492269e+00,-2.499392182736915409e-05,-1.958605161901795608e-04
2.442857142857143060e+00,-2.974883911697383940e-05,-1.919733758819122790e-04
2.443650793650793851e+00,-3.418859397750818207e-05,-1.686305434907372949e-04
2.444444444444444642e+00,-3.768204827909265410e-05,-1.298357318856295680e-04
2.445238095238095433e+00,-3.922230076651810055e-05,-8.180805466917370197e-05
2.446031746031746223e+00,-3.765312709325380186e-05,-3.188805931153292940e-05
2.446825396825397014e+00,-3.200145692397893954e-05,1.278666428891669967e-05
2.447619047619047805e+00,-2.182049263323214164e-05,4.657810424784124211e-05
2.448412698412698596e+00,-7.438507400931902862e-06,6.633776604439317365e-05
2.449206349206349387e+00,9.966380155591782214e-06,7.186195535576420654e-05
2.450000000000000178e+00,2.849536667539561381e-05,6.570373058191823605e-05
2.450793650793650968e+00,4.583577273303792089e-05,5.238995795638649373e-05
2.451587301587301759e+00,5.967572314777806205e-05,3.724076204525711978e-05
2.452380952380952550e+00,6.813790486203678191e-05,2.508687450736516041e-05
2.453174603174603341e+00,7.014647773303191495e-05,1.920341629456038667e-05
2.453968253968254132e+00,6.565410015894375265e-05,2.071987069535163951e-05
2.454761904761904923e+00,5.567307432642993958e-05,2.863320922246300550e-05
2.455555555555555713e+00,4.208270909951212157e-05,4.037389926410279306e-05
2.456349206349206504e+00,2.723304493253795393e-05,5.270836974178212426e-05
2.457142857142857295e+00,1.342813197020892317e-05,6.266850444086625191e-05
2.457936507936508086e+00,2.425553072326408101e-06,6.821645851942603961e-05
2.458730158730158877e+00,-4.900687391077928769e-06,6.847499573120944909e-05
2.459523809523809668e+00,-8.637519227169554255e-06,6.352876233488830948e-05
2.460317460317460458e+00,-9.647563109707954030e-06,5.395871238338769999e-05
2.461111111111111249e+00,-9.206952620335365518e-06,4.035421161629830343e-05
2.461904761904762040e+00,-8.593237430103459768e-06,2.303401341810611735e-05
2.462698412698412831e+00,-8.738393047295589015e-06,2.107497029552765934e-06
2.463492063492063622e+00,-1.002139303513916638e-05,-2.214408875702105053e-05
2.464285714285714413e+00,-1.223122754308503656e-05,-4.873346917825009325e-05
2.465079365079365203e+00,-1.469230471235909376e-05,-7.553144097101192238e-05
2.465873015873015994e+00,-1.650799478775452086e-05,-9.917116571604622159e-05
2.466666666666666785e+00,-1.684907454501835230e-05,-1.154373176528357837e-04
2.467460317460317576e+00,-1.520385187278132875e-05,-1.201287248558766146e-04
2.468253968253968367e+00,-1.152390864683267841e-05,-1.102126204071695887e-04
2.469047619047619158e+00,-6.238544727491118813e-06,-8.495806931629189165e-05
2.469841269841269948e+00,-1.544658530140269427e-07,-4.669409770731177518e-05
2.470634920634920739e+00,5.714359391845421519e-06,-9.040829919538188975e-07
2.471428571428571530e+00,1.033681236235666146e-05,4.447438027955316240e-05
2.472222222222222321e+00,1.283679724343875536e-05,8.046690926715278035e-05
2.473015873015873112e+00,1.262526897834797551e-05,9.891628027521918412e-05
2.473809523809523903e+00,9.481617979605960685e-06,9.435178472515117051e-05
2.474603174603174693e+00,3.581978793572064678e-06,6.541880099684852304e-05
2.475396825396825484e+00,-4.522309317836757284e-06,1.549496213147444755e-05
2.476190476190476275e+00,-1.397105211975890129e-05,-4.770221374181133749e-05
2.476984126984127066e+00,-2.370183160374295567e-05,-1.134688161196207819e-04
2.477777777777777857e+00,-3.258845048143259332e-05,-1.701290534730280179e-04
2.478571428571428648e+00,-3.959105702045086190e-05,-2.072301973616505748e-04
2.479365079365079438e+00,-4.388656368882083979e-05,-2.174047619373736080e-04
2.480158730158730229e+00,-4.495101075610009563e-05,-1.975152527902203109e-04
2.480952380952381020e+00,-4.258696928927411060e-05,-1.489252490375595102e-04
2.481746031746031811e+00,-3.691451929496710014e-05,-7.697435748836728984e-05
2.482539682539682602e+00,-2.835183677445545804e-05,1.010349478655301368e-05
2.483333333333333393e+00,-1.759406826349341405e-05,1.025200271488816681e-04
2.484126984126984183e+00,-5.573875001154657586e-06,1.902617641581844836e-04
2.484920634920634974e+00,6.621872840037663976e-06,2.642202875445569189e-04
2.485714285714285765e+00,1.788813434649962213e-05,3.170349723757784756e-04
2.486507936507936556e+00,2.726836463259118423e-05,3.436520880471596873e-04
2.487301587301587347e+00,3.410438810935306357e-05,3.416626901712199347e-04
2.488095238095238138e+00,3.811885146611753951e-05,3.114827924977923491e-04
2.488888888888888928e+00,3.940349523777591367e-05,2.563831694765409297e-04
2.489682539682539719e+00,3.832546042121266072e-05,1.822983841784940660e-04
2.490476190476190510e+00,3.539363789229762287e-05,9.730342107464361797e-05
2.491269841269841301e+00,3.113087335993560209e-05,1.068839179876922971e-05
2.492063492063492092e+00,2.598211236301559629e-05,-6.831453441947961381e-05
2.492857142857142883e+00,2.027204297501397412e-05,-1.319479630211219557e-04
2.493650793650793673e+00,1.421597792151412590e-05,-1.751797862679031054e-04
2.494444444444444464e+00,7.977589816498942193e-06,-1.964595884188177777e-04
2.495238095238095255e+00,1.752030250368541447e-06,-1.977409377601235829e-04
2.496031746031746046e+00,-4.160010982362934356e-06,-1.837185824828226142e-04
2.496825396825396837e+00,-9.322642340961706137e-06,-1.604735062290797666e-04
2.497619047619047628e+00,-1.320170313530566391e-05,-1.339202070196458295e-04
2.498412698412698418e+00,-1.526890748618131745e-05,-1.085112036882730676e-04
2.499206349206349209e+00,-1.515057767704806029e-05,-8.654523114415617563e-05
2.500000000000000000e+00,-1.277932185319963228e-05,-6.820511962639298103e-05
2.500793650793650791e+00,-8.497843324827227847e-06,-5.221623450937108561e-05
2.501587301587301582e+00,-3.069108850640556062e-06,-3.684724421909499451e-05
2.502380952380952372e+00,2.432577990402261244e-06,-2.090701984253970534e-05
2.503174603174603163e+00,6.842448279707805533e-06,-4.421330905013326482e-06
2.503968253968253954e+00,9.192482475967428233e-06,1.121585892816477219e-05
2.504761904761904745e+00,8.985266470534222723e-06,2.365112493495090168e-05
2.505555555555555536e+00,6.360677362991675447e-06,3.038926965000512070e-05
2.506349206349206327e+00,2.083127139895994725e-06,2.973547225040282439e-05
2.507142857142857117e+00,-2.665524108645497056e-06,2.154764710694525716e-05
2.507936507936507908e+00,-6.631779318117647282e-06,7.558738789699036956e-06
2.508730158730158699e+00,-8.867484435269625608e-06,-8.834225873491838356e-06
2.509523809523809490e+00,-9.017739211794837200e-06,-2.326568792663050454e-05
2.510317460317460281e+00,-7.428674505445758577e-06,-3.140573991534174636e-05
2.511111111111111072e+00,-5.042118343661180915e-06,-3.002089587171780024e-05
2.511904761904761862e+00,-3.108529777125504330e-06,-1.782520486582218205e-05
2.512698412698412653e+00,-2.798714554645329046e-06,4.100547603319374568e-06
2.513492063492063444e+00,-4.819512264796239553e-06,3.244953791783547194e-05
2.514285714285714235e+00,-9.140983377048730196e-06,6.238265607578572631e-05
2.515079365079365026e+00,-1.492423224277456509e-05,8.861704951702261193e-05
2.515873015873015817e+00,-2.069532966372593139e-05,1.066288034352985795e-04
2.516666666666666607e+00,-2.474125949857739019e-05,1.136465163336453164e-04
2.517460317460317398e+00,-2.562519740733875252e-05,1.091751099773936715e-04
2.518253968253968189e+00,-2.266313140226797592e-05,9.493655575618946863e-05
2.519047619047618980e+00,-1.620118837133884140e-05,7.428650126632446900e-05
2.519841269841269771e+00,-7.589668498794163921e-06,5.129711940086528033e-05
2.520634920634920562e+00,1.155156287977692762e-06,2.975353627155904830e-05
2.521428571428571352e+00,7.912749891078184840e-06,1.230354000889204798e-05
2.522222222222222143e+00,1.108571420976537790e-05,-4.623682031439676721e-08
2.523015873015872934e+00,1.011003405315998371e-05,-7.968882634216634133e-06
2.523809523809523725e+00,5.687680427455608885e-06,-1.337876158144054014e-05
2.524603174603174516e+00,-3.506682959258365105e-07,-1.863859450418107628e-05
2.525396825396825307e+00,-5.540538310305759403e-06,-2.565862323180580061e-05
2.526190476190476097e+00,-7.508966189782018594e-06,-3.518560461237828669e-05
2.526984126984126888e+00,-4.716628345187060121e-06,-4.651316367173489053e-05
2.527777777777777679e+00,3.017741644908017417e-06,-5.768246308016225710e-05
2.528571428571428470e+00,1.438532349496448427e-05,-6.606736284597786244e-05
2.529365079365079261e+00,2.689787651903037169e-05,-6.913611488426210725e-05
2.530158730158730052e+00,3.754658311259580927e-05,-6.517590844599164830e-05
2.530952380952380842e+00,4.360394257227467592e-05,-5.381821936842283286e-05
2.531746031746031633e+00,4.332907973578735417e-05,-3.626243411219088941e-05
2.532539682539682424e+00,3.638678886284073944e-05,-1.515031458223360002e-05
2.533333333333333215e+00,2.389530861331569633e-05,5.887595715041574058e-06
2.534126984126984006e+00,8.128756083787578047e-06,2.291078219896265728e-05
2.534920634920634797e+00,-8.020243831828318770e-06,3.241454219515708322e-05
2.535714285714285587e+00,-2.167544632116030927e-05,3.199120619608127243e-05
2.536507936507936378e+00,-3.056595493728808140e-05,2.080547703656931903e-05
2.537301587301587169e+00,-3.345032741067081351e-05,-1.776884219452804985e-07
2.538095238095237960e+00,-3.030159029973030692e-05,-2.826685280138548187e-05
2.538888888888888751e+00,-2.223694113227160386e-05,-5.946175098394094625e-05
2.539682539682539542e+00,-1.123234630689457189e-05,-8.918913783385785542e-05
2.540476190476190332e+00,2.997347435101759887e-07,-1.132069470244815126e-04
2.541269841269841123e+00,9.978459631443989302e-06,-1.284184694624318902e-04
2.542063492063491914e+00,1.588403385576145506e-05,-1.333377641681969289e-04
2.542857142857142705e+00,1.687977492614798559e-05,-1.280802033121836105e-04
2.543650793650793496e+00,1.277801349807928052e-05,-1.139451677098625117e-04
2.544444444444444287e+00,4.325961619790382076e-06,-9.280138547813759095e-05
2.545238095238095077e+00,-6.980224319523669982e-06,-6.651707328196753062e-05
2.546031746031745868e+00,-1.920845626132234308e-05,-3.661165901338714736e-05
2.546825396825396659e+00,-3.035556335838995005e-05,-4.201305946824434197e-06
2.547619047619047450e+00,-3.867837863689293506e-05,2.978422451086902741e-05
2.548412698412698241e+00,-4.292301948355507101e-05,6.420790780235808312e-05
2.549206349206349032e+00,-4.242342235943550173e-05,9.730759393196046589e-05
2.549999999999999822e+00,-3.708387022684326721e-05,1.264444335860436398e-04
2.550793650793650613e+00,-2.729145705673823453e-05,1.481951612896691476e-04
2.551587301587301404e+00,-1.381313899202134092e-05,1.588776142885850906e-04
2.552380952380952195e+00,2.282951515359752238e-06,1.554480147333529448e-04
2.553174603174602986e+00,1.967315599516822889e-05,1.365441535347947132e-04
2.553968253968253777e+00,3.681470479730124007e-05,1.033362636434420400e-04
2.554761904761904567e+00,5.201570428614709106e-05,5.984540451014650294e-05
2.555555555555555358e+00,6.357649278255035001e-05,1.252024438020609799e-05
2.556349206349206149e+00,7.001059563283761012e-05,-3.090697503760186503e-05
2.557142857142856940e+00,7.031166218158682406e-05,-6.301890183384027027e-05
2.557936507936507731e+00,6.419833937688443500e-05,-7.833480040383668718e-05
2.558730158730158522e+00,5.225780064242318028e-05,-7.450586106911861453e-05
2.559523809523809312e+00,3.592670154537617522e-05,-5.276472429234701697e-05
2.560317460317460103e+00,1.729225014365363044e-05,-1.753255090244769127e-05
2.561111111111110894e+00,-1.248733207387775785e-06,2.467722842151216133e-05
2.561904761904761685e+00,-1.739168204083632469e-05,6.673911974128818661e-05
2.562698412698412920e+00,-2.929298329668271461e-05,1.023809547330815662e-04
2.563492063492063711e+00,-3.583004358236327116e-05,1.272728452785898770e-04
2.564285714285714501e+00,-3.671539054149828017e-05,1.395132521033036639e-04
2.565079365079365292e+00,-3.246911602537046735e-05,1.394726872421969840e-04
2.565873015873016083e+00,-2.428402773338369115e-05,1.291369048315338549e-04
2.566666666666666874e+00,-1.382624801305353954e-05,1.112150692109401863e-04
2.567460317460317665e+00,-3.002689273122704593e-06,8.831235379934223076e-05
2.568253968253968456e+00,6.289247766022404566e-06,6.240772483767276680e-05
2.569047619047619246e+00,1.241933201293698225e-05,3.474960998994236890e-05
2.569841269841270037e+00,1.426909639833382940e-05,6.125498782188215883e-06
2.570634920634920828e+00,1.142696803783236066e-05,-2.267360717760707968e-05
2.571428571428571619e+00,4.288091957629331944e-06,-5.043872823567009753e-05
2.572222222222222410e+00,-5.980704085842208745e-06,-7.539252288003169791e-05
2.573015873015873201e+00,-1.762516312561741269e-05,-9.539932118944115887e-05
2.573809523809523991e+00,-2.861310105451213848e-05,-1.084735635834048148e-04
2.574603174603174782e+00,-3.700843493969485100e-05,-1.133909081000011035e-04
2.575396825396825573e+00,-4.132942917111340528e-05,-1.101529868576412038e-04
2.576190476190476364e+00,-4.081497862753102803e-05,-1.001066480210449259e-04
2.576984126984127155e+00,-3.554655013767235035e-05,-8.565168172512406227e-05
2.577777777777777946e+00,-2.640799333988234397e-05,-6.963134875208813301e-05
2.578571428571428736e+00,-1.490131090921928373e-05,-5.461685382967705946e-05
2.579365079365079527e+00,-2.863904839861684598e-06,-4.232134005654696437e-05
2.580158730158730318e+00,7.855576817244002119e-06,-3.331404989431574997e-05
2.580952380952381109e+00,1.570879862892250099e-05,-2.709653212232918405e-05
2.581746031746031900e+00,1.970158253318552100e-05,-2.249467969761208581e-05
2.582539682539682691e+00,1.955295393930475792e-05,-1.823189388804731753e-05
2.583333333333333481e+00,1.573155918006528085e-05,-1.349126474928905913e-05
2.584126984126984272e+00,9.357261896123147602e-06,-8.270484486350791601e-06
2.584920634920635063e+00,1.978878814485340808e-06,-3.398169933938564191e-06
2.585714285714285854e+00,-4.734688736764331583e-06,-1.987493385277333796e-07
2.586507936507936645e+00,-9.331576103801917402e-06,7.855962557698089676e-08
2.587301587301587436e+00,-1.087585965339708523e-05,-3.140092422819501888e-06
2.588095238095238226e+00,-9.147492846483720792e-06,-9.351937293714682200e-06
2.588888888888889017e+00,-4.696828401544519022e-06,-1.694243189428616802e-05
2.589682539682539808e+00,1.271855033575234146e-06,-2.355604764795623499e-05
2.590476190476190599e+00,7.181274626382090879e-06,-2.676456440527270807e-05
2.591269841269841390e+00,1.147552395737291054e-05,-2.481338498786632175e-05
2.592063492063492181e+00,1.303328036340484726e-05,-1.719553905402279402e-05
2.592857142857142971e+00,1.148452567047484334e-05,-4.861881557748290823e-06
2.593650793650793762e+00,7.333023240320601496e-06,1.000101615794076529e-05
2.594444444444444553e+00,1.840029990173196542e-06,2.455464664378618488e-05
2.595238095238095344e+00,-3.305557185072824684e-06,3.607555319779424350e-05
2.596031746031746135e+00,-6.444265906219822055e-06,4.267781103877461027e-05
2.596825396825396925e+00,-6.409093048431741538e-06,4.377867422563867789e-05
2.597619047619047716e+00,-2.869811304153020273e-06,4.017034482378517693e-05
2.598412698412698507e+00,3.539901547207575992e-06,3.368150874186152949e-05
2.599206349206349298e+00,1.135734009003743212e-05,2.654496477247493780e-05
2.600000000000000089e+00,1.865875406986159611e-05,2.068389255677187483e-05
2.600793650793650880e+00,2.355727866965076883e-05,1.715049596533047756e-05
2.601587301587301670e+00,2.468291513951905035e-05,1.589009869671842968e-05
2.602380952380952461e+00,2.150625368412513254e-05,1.588620971203484706e-05
2.603174603174603252e+00,1.443142201515548850e-05,1.561161601599314605e-05
2.603968253968254043e+00,4.670192980207177624e-06,1.361466154197257636e-05
2.604761904761904834e+00,-6.027426790730659167e-06,9.041154766675927595e-06
2.605555555555555625e+00,-1.569850702783792215e-05,1.934907493164613089e-06
2.606349206349206415e+00,-2.248974836921759982e-05,-6.750519527538867324e-06
2.607142857142857206e+00,-2.495282912058624161e-05,-1.539959934664221770e-05
2.607936507936507997e+00,-2.229815402579311909e-05,-2.214538248060261540e-05
2.608730158730158788e+00,-1.457798232229120913e-05,-2.532414967581701518e-05
2.609523809523809579e+00,-2.752911468339810590e-06,-2.387328003681992851e-05
2.610317460317460370e+00,1.140085582928359187e-05,-1.760920305567369577e-05
2.611111111111111160e+00,2.555567814938050774e-05,-7.356308926444559063e-06
2.611904761904761951e+00,3.723432528440518845e-05,5.089409533020073506e-06
2.612698412698412742e+00,4.427381891605537050e-05,1.718379354301917565e-05
2.613492063492063533e+00,4.525354983949009550e-05,2.606374303220379638e-05
2.614285714285714324e+00,3.979238428953370152e-05,2.915637032574720322e-05
2.615079365079365115e+00,2.864251470984236546e-05,2.485398876653424960e-05
2.615873015873015905e+00,1.354804081892482718e-05,1.305663516987622557e-05
2.616666666666666696e+00,-3.109301565792474803e-06,-4.627922944713308882e-06
2.617460317460317487e+00,-1.879774626656631389e-05,-2.514535227173636558e-05
2.618253968253968278e+00,-3.133812936720803063e-05,-4.467747476329670932e-05
2.619047619047619069e+00,-3.929996425871453282e-05,-5.955754883957115438e-05
2.619841269841269860e+00,-4.220282350155688331e-05,-6.715178258796235071e-05
2.620634920634920650e+00,-4.049140302138316870e-05,-6.645565256175892869e-05
2.621428571428571441e+00,-3.531290808453373960e-05,-5.824405653709911263e-05
2.622222222222222232e+00,-2.817232668682804507e-05,-4.474831789309975530e-05
2.623015873015873023e+00,-2.056389703008624763e-05,-2.897390157209700972e-05
2.623809523809523814e+00,-1.367200555855882212e-05,-1.387853042550431232e-05
2.624603174603174605e+00,-8.204921842712126253e-06,-1.661648020916468709e-06
2.625396825396825395e+00,-4.379549789118034293e-06,6.642851882544209464e-06
2.626190476190476186e+00,-2.029165889337436136e-06,1.120244810447568915e-05
2.626984126984126977e+00,-7.743184106251742832e-07,1.311266760238323396e-05
2.627777777777777768e+00,-1.900412597308142439e-07,1.395892044753708881e-05
2.628571428571428559e+00,7.947510442441566066e-08,1.537094885607433631e-05
2.629365079365079350e+00,2.753170732220686690e-07,1.868674000864963407e-05
2.630158730158730140e+00,5.336865680005211909e-07,2.477664307338761917e-05
2.630952380952380931e+00,9.222680425341843495e-07,3.401192137416812696e-05
2.631746031746031722e+00,1.476841487890122813e-06,4.631464260250585879e-05
2.632539682539682513e+00,2.224522624921033510e-06,6.121123006768849982e-05
2.633333333333333304e+00,3.191793997026176510e-06,7.783388241629316407e-05
2.634126984126984095e+00,4.400165065471184562e-06,9.486312933666807387e-05
2.634920634920634885e+00,5.851310135277279004e-06,1.104601810434808758e-04
2.635714285714285676e+00,7.503312740653464597e-06,1.222747447687913861e-04
2.636507936507936467e+00,9.244776490539552405e-06,1.276145978968687758e-04
2.637301587301587258e+00,1.088080984760095453e-05,1.238226095696384939e-04
2.638095238095238049e+00,1.214592516935936916e-05,1.088344598122438175e-04
2.638888888888888840e+00,1.274980603963938778e-05,8.180809311853462528e-05
2.639682539682539630e+00,1.244749829613615250e-05,4.365406361132424210e-05
2.640476190476190421e+00,1.111413743379977928e-05,-2.717835126476656136e-06
2.641269841269841212e+00,8.800662145149479800e-06,-5.257295875438890642e-05
2.642063492063492003e+00,5.750833120843245791e-06,-9.998500529213199314e-05
2.642857142857142794e+00,2.369111568036533736e-06,-1.388409170043531672e-04
2.643650793650793585e+00,-8.576226614848768015e-07,-1.640134831655455400e-04
2.644444444444444375e+00,-3.465743731950092761e-06,-1.724211836726457180e-04
2.645238095238095166e+00,-5.117058771844484375e-06,-1.636906629312552465e-04
2.646031746031745957e+00,-5.666356784225733869e-06,-1.402266793657893685e-04
2.646825396825396748e+00,-5.177000824100304973e-06,-1.066615194354036261e-04
2.647619047619047539e+00,-3.887148281618310898e-06,-6.883750019342758952e-05
2.648412698412698330e+00,-2.143631879275704379e-06,-3.259687726354629537e-05
2.649206349206349120e+00,-3.244416091787206949e-07,-2.675363007687139807e-06
2.649999999999999911e+00,1.232340861162331888e-06,1.806776920066468890e-05
2.650793650793650702e+00,2.279879505466625854e-06,2.895806609810657478e-05
2.651587301587301493e+00,2.685784348271846068e-06,3.134273606690944907e-05
2.652380952380952284e+00,2.426016253726958537e-06,2.804297856373403887e-05
2.653174603174603075e+00,1.557786134634354231e-06,2.257405189984384270e-05
2.653968253968253865e+00,1.869770628117356886e-07,1.831183289540058576e-05
2.654761904761904656e+00,-1.553888020683543324e-06,1.777283104909454644e-05
2.655555555555555447e+00,-3.507900715381147103e-06,2.213329854470481625e-05
2.656349206349206238e+00,-5.477981075832472414e-06,3.105667517261374952e-05
2.657142857142857029e+00,-7.205734644943957434e-06,4.284066960372375621e-05
2.657936507936507819e+00,-8.364927806775049139e-06,5.484290770841854197e-05
2.658730158730158610e+00,-8.590314939402362489e-06,6.409884945240077586e-05
2.659523809523809401e+00,-7.554196298825337407e-06,6.800977787156470636e-05
2.660317460317460192e+00,-5.084486466416270968e-06,6.495912788424408721e-05
2.661111111111110983e+00,-1.292734787660781423e-06,5.472180658876854082e-05
2.661904761904761774e+00,3.341717219351265422e-06,3.856881323418362857e-05
2.662698412698412564e+00,7.990588509984071784e-06,1.903364130741634316e-05
2.663492063492063355e+00,1.163413391075752751e-05,-6.178397106867334302e-07
2.664285714285714146e+00,1.333996584392649146e-05,-1.710559863865547867e-05
2.665079365079364937e+00,1.258270941808115666e-05,-2.788862577416229384e-05
2.665873015873015728e+00,9.483534965913785513e-06,-3.178131661892801528e-05
2.666666666666666519e+00,4.858248968886215095e-06,-2.927124982783007261e-05
2.667460317460317309e+00,2.564234553335386274e-08,-2.242478176090494365e-05
2.668253968253968100e+00,-3.579127133188813197e-06,-1.436221038347646067e-05
2.669047619047618891e+00,-4.857808774284748926e-06,-8.412761067141476167e-06
2.669841269841269682e+00,-3.406298546221891631e-06,-7.176093385380784332e-06
2.670634920634920473e+00,3.521906860184153758e-07,-1.176704141169002155e-05
2.671428571428571264e+00,5.297449888649128791e-06,-2.147460215745438687e-05
2.672222222222222054e+00,9.947023578107117895e-06,-3.393820058517341609e-05
2.673015873015872845e+00,1.287227255460096030e-05,-4.578296654874905371e-05
2.673809523809523636e+00,1.306201798552790223e-05,-5.352137712416797866e-05
2.674603174603174427e+00,1.013603971187882440e-05,-5.446380162878626996e-05
2.675396825396825218e+00,4.374337671180149246e-06,-4.739476267595609524e-05
2.676190476190476009e+00,-3.404811967747884242e-06,-3.284877482356383119e-05
2.676984126984126799e+00,-1.204193241657689013e-05,-1.293416257759579182e-05
2.677777777777777590e+00,-2.023328269314970937e-05,9.222296221332299858e-06
2.678571428571428381e+00,-2.669177004894838950e-05,3.023506866053304358e-05
2.679365079365079172e+00,-3.028274790221987376e-05,4.720203836902001060e-05
2.680158730158729963e+00,-3.016539283144640838e-05,5.823212812976624470e-05
2.680952380952380754e+00,-2.595136083291285127e-05,6.264662070962005150e-05
2.681746031746031544e+00,-1.785237325243159835e-05,6.085266805934531713e-05
2.682539682539682335e+00,-6.758828530968216608e-06,5.398304842317970618e-05
2.683333333333333126e+00,5.806426263272442308e-06,4.345042430525487083e-05
2.684126984126983917e+00,1.788378708713514415e-05,3.056611445149547308e-05
2.684920634920634708e+00,2.740452614068562945e-05,1.632562615990257771e-05
2.685714285714285499e+00,3.259616565074854785e-05,1.386118148041949021e-06
2.686507936507936289e+00,3.238504254432345405e-05,-1.381096281741704821e-05
2.687301587301587080e+00,2.669917687269776548e-05,-2.885597502497506576e-05
2.688095238095238315e+00,1.657459081573742256e-05,-4.320688361916286455e-05
2.688888888888889106e+00,3.998489331512105394e-06,-5.609986820483944857e-05
2.689682539682539897e+00,-8.510049124514868711e-06,-6.656064264330196296e-05
2.690476190476190688e+00,-1.849329827264250002e-05,-7.351847868683915983e-05
2.691269841269841478e+00,-2.416199864837599733e-05,-7.600570059914637990e-05
2.692063492063492269e+00,-2.483703895135687945e-05,-7.340636289775943142e-05
2.692857142857143060e+00,-2.109072321220716167e-05,-6.569520456103205414e-05
2.693650793650793851e+00,-1.454317127186420698e-05,-5.358774131910380039e-05
2.694444444444444642e+00,-7.371983213153910845e-06,-3.852280680108747423e-05
2.695238095238095433e+00,-1.674277998221566480e-06,-2.243603848381048850e-05
2.696031746031746223e+00,1.141282595092770704e-06,-7.352331087179818006e-06
2.696825396825397014e+00,7.638324739472051303e-07,5.099600834580635697e-06
2.697619047619047805e+00,-1.927232566861886223e-06,1.410152585422368486e-05
2.698412698412698596e+00,-5.123859263889385770e-06,1.984779647510618656e-05
2.699206349206349387e+00,-6.645808653104357756e-06,2.345694635155178346e-05
2.700000000000000178e+00,-4.643589043443981698e-06,2.660762344925911144e-05
2.700793650793650968e+00,1.755341613229490893e-06,3.100029640562735906e-05
2.701587301587301759e+00,1.205826328791769640e-05,3.779637883629540467e-05
2.702380952380952550e+00,2.441162922757249900e-05,4.718969329962447525e-05
2.703174603174603341e+00,3.601731175258344916e-05,5.822848340141940346e-05
2.703968253968254132e+00,4.385164581293251397e-05,6.894356357026634849e-05
2.704761904761904923e+00,4.548393160738936749e-05,7.676334843947011765e-05
2.705555555555555713e+00,3.976280029144076562e-05,7.912340832750658056e-05
2.706349206349206504e+00,2.718140318157526318e-05,7.412452975556528556e-05
2.707142857142857295e+00,9.825971077389456044e-06,6.107643924821169247e-05
2.707936507936508086e+00,-9.075203037153381421e-06,4.079033967176516233e-05
2.708730158730158877e+00,-2.588549454453040893e-05,1.554233821517020668e-05
2.709523809523809668e+00,-3.739430568263199973e-05,-1.129485775127835600e-05
2.710317460317460458e+00,-4.154923241109478231e-05,-3.587740609262337076e-05
2.711111111111111249e+00,-3.790823047911204296e-05,-5.463401454805669416e-05
2.711904761904762040e+00,-2.770030332489633061e-05,-6.495573928733247354e-05
2.712698412698412831e+00,-1.348015922617403756e-05,-6.567294863027241573e-05
2.713492063492063622e+00,1.530142697455496790e-06,-5.721998911329584825e-05
2.714285714285714413e+00,1.423126122834910715e-05,-4.147409433226129110e-05
2.715079365079365203e+00,2.235021653066311112e-05,-2.133519184178982078e-05
2.715873015873015994e+00,2.487214553159835037e-05,-1.593690646612141115e-07
2.716666666666666785e+00,2.210782427546932865e-05,1.883582862024660453e-05
2.717460317460317576e+00,1.542282971305991113e-05,3.309506500938735299e-05
2.718253968253968367e+00,6.751236652831139453e-06,4.110159433891981347e-05
2.719047619047619158e+00,-1.941801459725916218e-06,4.255185093373382843e-05
2.719841269841269948e+00,-9.103081182012747697e-06,3.830201700927708436e-05
2.720634920634920739e+00,-1.385088292369007501e-05,3.009916185869556914e-05
2.721428571428571530e+00,-1.602689858845533208e-05,2.015193624018856678e-05
2.722222222222222321e+00,-1.607215329862144164e-05,1.063040891377909195e-05
2.723015873015873112e+00,-1.479606156449689198e-05,3.202315741761502161e-06
2.723809523809523903e+00,-1.312023372746259542e-05,-1.291804168093621855e-06
2.724603174603174693e+00,-1.186501629375227413e-05,-2.950007257536297309e-06
2.725396825396825484e+00,-1.161582635491503224e-05,-2.678179933952747727e-06
2.726190476190476275e+00,-1.267098160231844147e-05,-1.844213379031039095e-06
2.726984126984127066e+00,-1.504474101916379242e-05,-1.800898397567620701e-06
2.727777777777777857e+00,-1.848920836345725114e-05,-3.406696429279490798e-06
2.728571428571428648e+00,-2.251086111580426582e-05,-6.691590361706324357e-06
2.729365079365079438e+00,-2.638321891393679427e-05,-1.079058072960529350e-05
2.730158730158730229e+00,-2.918025557326781874e-05,-1.419375769511374796e-05
2.730952380952381020e+00,-2.986357358168788861e-05,-1.525339711840354965e-05
2.731746031746031811e+00,-2.744679363679001889e-05,-1.278615616695503144e-05
2.732539682539682602e+00,-2.123449174534869865e-05,-6.563814607263474568e-06
2.733333333333333393e+00,-1.109454743718290349e-05,2.474515233470066729e-06
2.734126984126984183e+00,2.317057455240730314e-06,1.235308177528318853e-05
2.734920634920634974e+00,1.748097701862282022e-05,2.048387818530365839e-05
2.735714285714285765e+00,3.217169605863227591e-05,2.425814106894019068e-05
2.736507936507936556e+00,4.386400996319841694e-05,2.165444847087130256e-05
2.737301587301587347e+00,5.031094660284641883e-05,1.173170667627640710e-05
2.738095238095238138e+00,5.013335981338523900e-05,-5.083250477684739664e-06
2.738888888888888928e+00,4.323723236283857137e-05,-2.695511974418300243e-05
2.739682539682539719e+00,3.092658060589696672e-05,-5.084334432724185021e-05
2.740476190476190510e+00,1.568120502844997516e-05,-7.291403375859078519e-05
2.741269841269841301e+00,6.660450994833593195e-07,-8.911018012449736813e-05
2.742063492063492092e+00,-1.090599887036775099e-05,-9.582110452898070249e-05
2.742857142857142883e+00,-1.642535511257479583e-05,-9.057360566775695689e-05
2.743650793650793673e+00,-1.443363457617108734e-05,-7.263286824879491464e-05
2.744444444444444464e+00,-4.974096587216707403e-06,-4.336840724417030034e-05
2.745238095238095255e+00,1.032395401366653669e-05,-6.244572905786256396e-06
2.746031746031746046e+00,2.846778068152587120e-05,3.363832447040737575e-05
2.746825396825396837e+00,4.563327122003557455e-05,7.040889131109717475e-05
2.747619047619047628e+00,5.794761758405847751e-05,9.852848081007098641e-05
2.748412698412698418e+00,6.237903928201951164e-05,1.138853212156902615e-04
2.749206349206349209e+00,5.751022507262844579e-05,1.146188866513851717e-04
2.750000000000000000e+00,4.395119196373356444e-05,1.014742902463908165e-04
2.750793650793650791e+00,2.422515324079518474e-05,7.759606873765571128e-05
2.751587301587301582e+00,2.123149259843734722e-06,4.779861413612350554e-05
2.752380952380952372e+00,-1.829718755509989036e-05,1.747071836853141577e-05
2.753174603174603163e+00,-3.377119687798028723e-05,-8.632178987682642725e-06
2.753968253968253954e+00,-4.262569695614647442e-05,-2.740248118160500772e-05
2.754761904761904745e+00,-4.507962619112090819e-05,-3.792115892131388494e-05
2.755555555555555536e+00,-4.297184129021467671e-05,-4.136939693263152844e-05
2.756349206349206327e+00,-3.902934606613199742e-05,-4.035476676695670445e-05
2.757142857142857117e+00,-3.593242320845505022e-05,-3.788861919014258658e-05
2.757936507936507908e+00,-3.547726580604512888e-05,-3.635566936110029297e-05
2.758730158730158699e+00,-3.807896319176250411e-05,-3.679743162764027294e-05
2.759523809523809490e+00,-4.273736875922233683e-05,-3.870803283687478970e-05
2.760317460317460281e+00,-4.744933058341187438e-05,-4.036417871716361491e-05
2.761111111111111072e+00,-4.992264757791496464e-05,-3.954100755988860079e-05
2.761904761904761862e+00,-4.835633484446064660e-05,-3.435884724138462597e-05
2.762698412698412653e+00,-4.202895379051582416e-05,-2.399476960249279515e-05
2.763492063492063444e+00,-3.149946546194629386e-05,-9.067146270074407928e-06
2.764285714285714235e+00,-1.835965377098915276e-05,8.383873950244971298e-06
2.765079365079365026e+00,-4.642401572009219104e-06,2.529042759013128467e-05
2.765873015873015817e+00,7.873124105732119099e-06,3.822292142377339602e-05
2.766666666666666607e+00,1.817663459581984572e-05,4.418492469276414785e-05
2.767460317460317398e+00,2.616965300970492330e-05,4.137390931909818044e-05
2.768253968253968189e+00,3.242538011477907813e-05,2.973986513283668115e-05
2.769047619047618980e+00,3.772294200389286094e-05,1.119340477715608628e-05
2.769841269841269771e+00,4.257986739541451415e-05,-1.062730130313859921e-05
2.770634920634920562e+00,4.696442742522474360e-05,-3.102516056862427595e-05
2.771428571428571352e+00,5.027462445190417339e-05,-4.522842957692030152e-05
2.772222222222222143e+00,5.157453237497134827e-05,-4.947227802458537232e-05
2.773015873015872934e+00,4.999590178030276628e-05,-4.191098202339848877e-05
2.773809523809523725e+00,4.514739624374629020e-05,-2.311977582434637262e-05
2.774603174603174516e+00,3.735162753778654147e-05,3.950857469158209164e-06
2.775396825396825307e+00,2.758684839269322540e-05,3.455141346608707373e-05
2.776190476190476097e+00,1.714370274906495937e-05,6.307594101838254869e-05
2.776984126984126888e+00,7.155138365202647177e-06,8.412534752327144316e-05
2.777777777777777679e+00,-1.769517718955248460e-06,9.345252246074012964e-05
2.778571428571428470e+00,-9.629135517515764967e-06,8.862301179775367336e-05
2.779365079365079261e+00,-1.681121851899431051e-05,6.932169525284968587e-05
2.780158730158730052e+00,-2.370776688048338007e-05,3.732379649660362531e-05
2.780952380952380842e+00,-3.037895835131592743e-05,-3.790677418887613459e-06
2.781746031746031633e+00,-3.642650829796845348e-05,-4.908045530057920502e-05
2.782539682539682424e+00,-4.111175154492079889e-05,-9.277628036718700729e-05
2.783333333333333215e+00,-4.363382407814982237e-05,-1.288983390116530986e-04
2.784126984126984006e+00,-4.342989131649744987e-05,-1.519930450780193132e-04
2.784920634920634797e+00,-4.037744373166436457e-05,-1.579870726233762834e-04
2.785714285714285587e+00,-3.483596201505587435e-05,-1.450413748743405499e-04
2.786507936507936378e+00,-2.752915513369867976e-05,-1.141710039591890168e-04
2.787301587301587169e+00,-1.932369512992963197e-05,-6.937335818033672362e-05
2.788095238095237960e+00,-1.099536141344444189e-05,-1.711308954888151766e-05
2.788888888888888751e+00,-3.074356356917743071e-06,3.480029952040464573e-05
2.789682539682539542e+00,4.177967169670546304e-06,7.871763352038250105e-05
2.790476190476190332e+00,1.067220792992196523e-05,1.086877022318268309e-04
2.791269841269841123e+00,1.633968067279254141e-05,1.216448716251966096e-04
2.792063492063491914e+00,2.101109773512535773e-05,1.179338345344169646e-04
2.792857142857142705e+00,2.438616321229379120e-05,1.010195098489791464e-04
2.793650793650793496e+00,2.610648711874103176e-05,7.644795743658379958e-05
2.794444444444444287e+00,2.589704301220216405e-05,5.034233373057209464e-05
2.795238095238095077e+00,2.371654196596511562e-05,2.786576698430287332e-05
2.796031746031745868e+00,1.985825726072715794e-05,1.209546579539693507e-05
2.796825396825396659e+00,1.496011671292573224e-05,3.608344240308267270e-06
2.797619047619047450e+00,9.907205506059342336e-06,8.328200958628555652e-07
2.798412698412698241e+00,5.639946654423065886e-06,9.807070736325512035e-07
2.799206349206349032e+00,2.916036806959177580e-06,1.224315487090701381e-06
2.799999999999999822e+00,2.102069753080748954e-06,-2.497683657851986330e-07
2.800793650793650613e+00,3.071653353530177238e-06,-3.618165525481612477e-06
2.801587301587301404e+00,5.250645653094734366e-06,-7.406399039958952623e-06
2.802380952380952195e+00,7.792899021148678114e-06,-9.076629982878361489e-06
2.803174603174602986e+00,9.823668733872345299e-06,-6.014522990983176064e-06
2.803968253968253777e+00,1.067287311732214242e-05,3.425592682471300354e-06
2.804761904761904567e+00,1.003346325909361617e-05,1.916742699283679416e-05
2.805555555555555358e+00,8.007567541609504676e-06,3.917643655065821117e-05
2.806349206349206149e+00,5.034806792823721463e-06,5.977848184975724749e-05
2.807142857142856940e+00,1.728067501823897489e-06,7.641349261009517302e-05
2.807936507936507731e+00,-1.333165621848658314e-06,8.461981560704862515e-05
2.808730158730158522e+00,-3.790236278793401186e-06,8.102478707543999499e-05
2.809523809523809312e+00,-5.618658025348025274e-06,6.413684694724077157e-05
2.810317460317460103e+00,-7.135266643343903336e-06,3.477996896534815073e-05
2.811111111111110894e+00,-8.895608197750465252e-06,-3.923215721306960230e-06
2.811904761904761685e+00,-1.150255316368157208e-05,-4.702985146275522857e-05
2.812698412698412920e+00,-1.536625298097213024e-05,-8.863044450029846331e-05
2.813492063492063711e+00,-2.047423731817989926e-05,-1.228997812790041553e-04
2.814285714285714501e+00,-2.624822784421383632e-05,-1.451162294420600891e-04
2.815079365079365292e+00,-3.156590859795699072e-05,-1.524367441102412947e-04
2.815873015873016083e+00,-3.499029625062242434e-05,-1.442896226247430502e-04
2.816666666666666874e+00,-3.517312411390187166e-05,-1.223423271380662313e-04
2.817460317460317665e+00,-3.131016415280671425e-05,-9.008515226331322045e-05
2.818253968253968456e+00,-2.347330889259379875e-05,-5.213368183255086578e-05
2.819047619047619246e+00,-1.266542598495229048e-05,-1.339424790310385665e-05
2.819841269841270037e+00,-5.450538506660669687e-07,2.174694199599095748e-05
2.820634920634920828e+00,1.108982669023379565e-05,5.006318407525956339e-05
2.821428571428571619e+00,2.085599526106835254e-05,6.984667288069511400e-05
2.822222222222222410e+00,2.814927251710998399e-05,8.093741723169013008e-05
2.823015873015873201e+00,3.316897046393699260e-05,8.443999702444196552e-05
2.823809523809523991e+00,3.659913048448371173e-05,8.221603442866094508e-05
2.824603174603174782e+00,3.909660083442455117e-05,7.629385745863277962e-05
2.825396825396825573e+00,4.082848231154170761e-05,6.835484926842201581e-05
2.826190476190476364e+00,4.128352321543621816e-05,5.942735015413463571e-05
2.826984126984127155e+00,3.945441768444385433e-05,4.985008293383622275e-05
2.827777777777777946e+00,3.431235940736025004e-05,3.947917593586795147e-05
2.828571428571428736e+00,2.536049947562941622e-05,2.803253593374780507e-05
2.829365079365079527e+00,1.302095135087483030e-05,1.541898220042865956e-05
2.830158730158730318e+00,-1.313575772840990852e-06,1.910687042021871643e-06
2.830952380952381109e+00,-1.558919290007821062e-05,-1.190605389099634161e-05
2.831746031746031900e+00,-2.764112905815557591e-05,-2.535166816410646613e-05
2.832539682539682691e+00,-3.577730964040280216e-05,-3.790255743715841458e-05
2.833333333333333481e+00,-3.919136624006029016e-05,-4.931240103876855749e-05
2.834126984126984272e+00,-3.808513744749303566e-05,-5.952666277267193483e-05
2.834920634920635063e+00,-3.349802561839797048e-05,-6.843276770722919321e-05
2.835714285714285854e+00,-2.693812092637483193e-05,-7.558536176658297396e-05
2.836507936507936645e+00,-1.995579809222758406e-05,-8.007260799589499198e-05
2.837301587301587436e+00,-1.379047301789097637e-05,-8.063621126775779636e-05
2.838095238095238226e+00,-9.170772835285149582e-06,-7.604571453042269843e-05
2.838888888888889017e+00,-6.283334497839702443e-06,-6.560239519323250842e-05
2.839682539682539808e+00,-4.872955972033925927e-06,-4.956966177169601487e-05
2.840476190476190599e+00,-4.412751347305308083e-06,-2.933951570305305386e-05
2.841269841269841390e+00,-4.285360746214960226e-06,-7.245813666167198759e-06
2.842063492063492181e+00,-3.933221682688185866e-06,1.392601354740153625e-05
2.842857142857142971e+00,-2.957042336225293894e-06,3.157179680147217385e-05
2.843650793650793762e+00,-1.160255697233215536e-06,4.384073572906634780e-05
2.844444444444444553e+00,1.451364775384175397e-06,4.997481260016105531e-05
2.845238095238095344e+00,4.701683049256908528e-06,5.032795727200475519e-05
2.846031746031746135e+00,8.293108769056087344e-06,4.608412427468002554e-05
2.846825396825396925e+00,1.185695212085877293e-05,3.878886555172651268e-05
2.847619047619047716e+00,1.499349423238693814e-05,2.986291077001126457e-05
2.848412698412698507e+00,1.730071091928300358e-05,2.026097386055032674e-05
2.849206349206349298e+00,1.840223010470637096e-05,1.037766281521229449e-05
2.850000000000000089e+00,1.798850565113511708e-05,2.105477163475769152e-07
2.850793650793650880e+00,1.587717509871389322e-05,-1.029582903472405968e-05
2.851587301587301670e+00,1.208379412397125393e-05,-2.085575651763151811e-05
2.852380952380952461e+00,6.880312136737436186e-06,-3.054434221891971725e-05
2.853174603174603252e+00,8.127194839046376644e-07,-3.772080292804129984e-05
2.853968253968254043e+00,-5.344445808246121692e-06,-4.024155455492920905e-05
2.854761904761904834e+00,-1.070126134872385774e-05,-3.594595419376089943e-05
2.855555555555555625e+00,-1.441466711974504010e-05,-2.330314591133776108e-05
2.856349206349206415e+00,-1.586168899315026904e-05,-2.036322131176490975e-06
2.857142857142857206e+00,-1.477781742684763486e-05,2.647913083724357474e-05
2.857936507936507997e+00,-1.132304406228726594e-05,5.919831367430564400e-05
2.858730158730158788e+00,-6.059257483585101333e-06,9.181699294117804039e-05
2.859523809523809579e+00,1.533089494359022528e-07,1.195265859672741673e-04
2.860317460317460370e+00,6.315927018377348439e-06,1.379297203629537634e-04
2.861111111111111160e+00,1.147518155051809621e-05,1.438929100459111982e-04
2.861904761904761951e+00,1.489594038900458059e-05,1.361424276539507027e-04
2.862698412698412742e+00,1.618940789920134092e-05,1.154889184098772449e-04
2.863492063492063533e+00,1.536955980901899004e-05,8.466209901485070442e-05
2.864285714285714324e+00,1.282775733562798785e-05,4.781635079756913864e-05
2.865079365079365115e+00,9.235626443260846791e-06,9.815683562211381495e-06
2.865873015873015905e+00,5.401118966403834208e-06,-2.457207663908660513e-05
2.866666666666666696e+00,2.108011670826253281e-06,-5.143409943669154257e-05
2.867460317460317487e+00,-3.227360536643238039e-08,-6.828943803059161241e-05
2.868253968253968278e+00,-6.922026352824562063e-07,-7.437430425905781157e-05
2.869047619047619069e+00,1.143227364150596893e-07,-7.058711139236749149e-05
2.869841269841269860e+00,2.036866506371528323e-06,-5.913751300284883922e-05
2.870634920634920650e+00,4.455834185534434159e-06,-4.303418891927126032e-05
2.871428571428571441e+00,6.605118421987019003e-06,-2.558119299900955674e-05
2.872222222222222232e+00,7.733463138754503551e-06,-1.000051491907850706e-05
2.873015873015873023e+00,7.274274532892663787e-06,8.130465371531685733e-07
2.873809523809523814e+00,4.981694252783800238e-06,4.493154123127305820e-06
2.874603174603174605e+00,9.927305695550215901e-07,-5.409071439371809202e-07
2.875396825396825395e+00,-4.202927574022489886e-06,-1.474867067584282273e-05
2.876190476190476186e+00,-9.870875978104421916e-06,-3.714244514027505465e-05
2.876984126984126977e+00,-1.517843586168662161e-05,-6.513022447498563201e-05
2.877777777777777768e+00,-1.933845582594543336e-05,-9.467822560988846826e-05
2.878571428571428559e+00,-2.172723386594844103e-05,-1.208591530211568243e-04
2.879365079365079350e+00,-2.197165040679001740e-05,-1.387245250360093609e-04
2.880158730158730140e+00,-2.000345341923736204e-05,-1.443109379441495459e-04
2.880952380952380931e+00,-1.606988443116489279e-05,-1.355102591158222048e-04
2.881746031746031722e+00,-1.068771423397342343e-05,-1.125471525250406441e-04
2.882539682539682513e+00,-4.543540849174581162e-06,-7.792274017675566544e-05
2.883333333333333304e+00,1.632295127130142831e-06,-3.585468039458881387e-05
2.884126984126984095e+00,7.179015296172782659e-06,8.605206120666624638e-06
2.884920634920634885e+00,1.157955631769346407e-05,5.052445648145989705e-05
2.885714285714285676e+00,1.449561333048539439e-05,8.588595120982432164e-05
2.886507936507936467e+00,1.578041863580496472e-05,1.120817733173892907e-04
2.887301587301587258e+00,1.548192398540345792e-05,1.280606445673007556e-04
2.888095238095238049e+00,1.383386376381456931e-05,1.341677493247386019e-04
2.888888888888888840e+00,1.122312979904815166e-05,1.317660891019139830e-04
2.889682539682539630e+00,8.126424583292557292e-06,1.227461589691908588e-04
2.890476190476190421e+00,5.022803047648163316e-06,1.090288860334684645e-04
2.891269841269841212e+00,2.302352482788348781e-06,9.215872877391101782e-05
2.892063492063492003e+00,1.970838114143708694e-07,7.306776277242554125e-05
2.892857142857142794e+00,-1.245501193597504627e-06,5.205708384805595319e-05
2.893650793650793585e+00,-2.140554407406472674e-06,2.899155788717289444e-05
2.894444444444444375e+00,-2.707097769042740165e-06,3.656688506753591333e-06
2.895238095238095166e+00,-3.194972785997932045e-06,-2.380468800856505126e-05
2.896031746031745957e+00,-3.821878341607825640e-06,-5.248057808385437131e-05
2.896825396825396748e+00,-4.737718645984250753e-06,-8.043139387695115851e-05
2.897619047619047539e+00,-6.020838238634503938e-06,-1.047213913586874030e-04
2.898412698412698330e+00,-7.696879759096976700e-06,-1.218291988795511488e-04
2.899206349206349120e+00,-9.761122570721564442e-06,-1.284078744917331290e-04
2.899999999999999911e+00,-1.218414587493784517e-05,-1.222152980124187327e-04
2.900793650793650702e+00,-1.489037163844191362e-05,-1.029325143282862153e-04
2.901587301587301493e+00,-1.771578274284767260e-05,-7.258939334675258215e-05
2.902380952380952284e+00,-2.036640439114000087e-05,-3.542523298862696097e-05
2.903174603174603075e+00,-2.240501069716642582e-05,2.822154701253059307e-06
2.903968253968253865e+00,-2.328763913311434860e-05,3.604527636993781753e-05
2.904761904761904656e+00,-2.245660729289963967e-05,5.905126945768686365e-05
2.905555555555555447e+00,-1.947685821562571972e-05,6.869923362726754342e-05
2.906349206349206238e+00,-1.418189802771731012e-05,6.461679966271163735e-05
2.907142857142857029e+00,-6.780900009187882162e-06,4.931291452445840477e-05
2.907936507936507819e+00,2.120698159668624591e-06,2.764329386684685473e-05
2.908730158730158610e+00,1.161088660565580730e-05,5.744654899470686266e-06
2.909523809523809401e+00,2.065209770130786094e-05,-1.031223815720852718e-05
2.910317460317460192e+00,2.829400224884238207e-05,-1.583910156979114039e-05
2.911111111111110983e+00,3.384562961588945951e-05,-8.533190859862314136e-06
2.911904761904761774e+00,3.695757635310647468e-05,1.102219663909732778e-05
2.912698412698412564e+00,3.760851859655072908e-05,3.943587534233027443e-05
2.913492063492063355e+00,3.602763912078711558e-05,7.114108010111221440e-05
2.914285714285714146e+00,3.259843990022211977e-05,9.947177421576786798e-05
2.915079365079364937e+00,2.777893636569707403e-05,1.179938438758046094e-04
2.915873015873015728e+00,2.204961227780094434e-05,1.218344846521444389e-04
2.916666666666666519e+00,1.587827281096722981e-05,1.087218190907763703e-04
2.917460317460317309e+00,9.682172636154157954e-06,7.948703316759962766e-05
2.918253968253968100e+00,3.778162614949248864e-06,3.791119735356043142e-05
2.919047619047618891e+00,-1.664830091548877904e-06,-1.001532139729552139e-05
2.919841269841269682e+00,-6.637742158350401256e-06,-5.719775259923904064e-05
2.920634920634920473e+00,-1.123857154006411780e-05,-9.663779845919667213e-05
2.921428571428571264e+00,-1.555577590632434824e-05,-1.225282214470442175e-04
2.922222222222222054e+00,-1.952807266032948120e-05,-1.311365061076810322e-04
2.923015873015872845e+00,-2.284431948313687589e-05,-1.214173790207347261e-04
2.923809523809523636e+00,-2.493958649171605906e-05,-9.527301263088438306e-05
2.924603174603174427e+00,-2.510897435203358633e-05,-5.735705585966886653e-05
2.925396825396825218e+00,-2.271757739443795238e-05,-1.436584453070808240e-05
2.926190476190476009e+00,-1.745152843108029874e-05,2.611375991431472084e-05
2.926984126984126799e+00,-9.539196951135997629e-06,5.698856807777824909e-05
2.927777777777777590e+00,1.272334563722127716e-07,7.298343939565552364e-05
2.928571428571428381e+00,1.002317319878252757e-05,7.162238366277349350e-05
2.929365079365079172e+00,1.819880810294548199e-05,5.365687199243409972e-05
2.930158730158729963e+00,2.264389885858129588e-05,2.284343949208033706e-05
2.930952380952380754e+00,2.174816645961836283e-05,-1.488944138398875172e-05
2.931746031746031544e+00,1.475710243668001464e-05,-5.269896611697084385e-05
2.932539682539682335e+00,2.101483794575744381e-06,-8.420959476481375402e-05
2.933333333333333126e+00,-1.451137502696501058e-05,-1.046809638553429316e-04
2.934126984126983917e+00,-3.230614977580358141e-05,-1.116891725008352111e-04
2.934920634920634708e+00,-4.792955689250995202e-05,-1.052062318114407792e-04
2.935714285714285499e+00,-5.812466890395288552e-05,-8.716146208704155115e-05
2.936507936507936289e+00,-6.044098078798053233e-05,-6.072385155719047922e-05
2.937301587301587080e+00,-5.381776817984926302e-05,-2.958475527737785074e-05
2.938095238095238315e+00,-3.889968754531187715e-05,2.560365900895492602e-06
2.938888888888889106e+00,-1.799584676977870816e-05,3.227764948701468287e-05
2.939682539682539897e+00,5.330690319755382060e-06,5.649255423067452489e-05
2.940476190476190688e+00,2.697064636088837005e-05,7.258236691790367066e-05
2.941269841269841478e+00,4.312570911758496881e-05,7.861254732300962627e-05
2.942063492063492269e+00,5.112201569645282090e-05,7.375483586947413964e-05
2.942857142857143060e+00,4.998700953401742961e-05,5.875977329024889610e-05
2.943650793650793851e+00,4.064751745415573551e-05,3.622962453504608972e-05
2.944444444444444642e+00,2.569830624680084094e-05,1.044182775199817930e-05
2.945238095238095433e+00,8.797489196312338562e-06,-1.336910864256919623e-05
2.946031746031746223e+00,-6.162700589166013170e-06,-3.012446461583366531e-05
2.946825396825397014e+00,-1.590853775195549092e-05,-3.607010937357291408e-05
2.947619047619047805e+00,-1.845952660243593374e-05,-2.962246434817038024e-05
2.948412698412698596e+00,-1.347697226310552142e-05,-1.164292463881196976e-05
2.949206349206349387e+00,-2.228966189169709218e-06,1.488521295357638399e-05
2.950000000000000178e+00,1.278621312423523570e-05,4.560605641508986115e-05
2.950793650793650968e+00,2.843893677763148386e-05,7.570603715357911926e-05
2.951587301587301759e+00,4.163436668343405210e-05,1.007581880991095439e-04
2.952380952380952550e+00,4.990069736497247682e-05,1.173475434566847102e-04
2.953174603174603341e+00,5.179727220231808475e-05,1.234242811106197701e-04
2.953968253968254132e+00,4.709484840288450584e-05,1.183996251339935503e-04
2.954761904761904923e+00,3.672734206294184407e-05,1.030330567891393642e-04
2.955555555555555713e+00,2.254752915043828256e-05,7.916698341783580612e-05
2.956349206349206504e+00,6.942049626253706704e-06,4.936582617825817051e-05
2.957142857142857295e+00,-7.621860445947858043e-06,1.652672555826649716e-05
2.957936507936508086e+00,-1.903487834632996558e-05,-1.645675839150317831e-05
2.958730158730158877e+00,-2.588820223841899122e-05,-4.690825666104861429e-05
2.959523809523809668e+00,-2.765989625438421609e-05,-7.244848539674700186e-05
2.960317460317460458e+00,-2.472321215496900456e-05,-9.100932979749795453e-05
2.961111111111111249e+00,-1.819909687103309288e-05,-1.008873231348171199e-04
2.961904761904762040e+00,-9.706081601152804513e-06,-1.009020428591563998e-04
2.962698412698412831e+00,-1.066885902155487513e-06,-9.063681794961066240e-05
2.963492063492063622e+00,5.983127134761532496e-06,-7.066706406964041423e-05
2.964285714285714413e+00,1.005753408857198847e-05,-4.267226062327315341e-05
2.965079365079365203e+00,1.032781461183110808e-05,-9.380117175821823901e-06
2.965873015873015994e+00,6.652476553631420088e-06,2.563821508124957443e-05
2.966666666666666785e+00,-4.020200072142470528e-07,5.826882235028235099e-05
2.967460317460317576e+00,-9.664375815611753664e-06,8.421961184433691516e-05
2.968253968253968367e+00,-1.957662503461086393e-05,9.946025453645170305e-05
2.969047619047619158e+00,-2.849045371846972322e-05,1.007590139697930301e-04
2.969841269841269948e+00,-3.498371558592186433e-05,8.628584985614023246e-05
2.970634920634920739e+00,-3.813155195798547309e-05,5.616408805399513202e-05
2.971428571428571530e+00,-3.767269439639081227e-05,1.279782423996059216e-05
2.972222222222222321e+00,-3.402895373391613600e-05,-3.917028695817518456e-05
2.973015873015873112e+00,-2.816585892228469523e-05,-9.331825097927244302e-05
2.973809523809523903e+00,-2.132644150894597558e-05,-1.422605829162344163e-04
2.974603174603174693e+00,-1.471539500689703632e-05,-1.786916008223686915e-04
2.975396825396825484e+00,-9.229282116187681128e-06,-1.964973749052956230e-04
2.976190476190476275e+00,-5.302898930857729929e-06,-1.917634898506802418e-04
2.976984126984127066e+00,-2.888584514518911559e-06,-1.635039738007914244e-04
2.977777777777777857e+00,-1.540392865957796860e-06,-1.139676782257185625e-04
2.978571428571428648e+00,-5.609419826069311174e-07,-4.845268525554932866e-05
2.979365079365079438e+00,8.202842379641747463e-07,2.534237554253180056e-05
2.980158730158730229e+00,3.253643624799626552e-06,9.831637323585572675e-05
2.980952380952381020e+00,7.077509862823202510e-06,1.611602893023307982e-04
2.981746031746031811e+00,1.216261444487086307e-05,2.056072048222341907e-04
2.982539682539682602e+00,1.784818531406857361e-05,2.256228993862356008e-04
2.983333333333333393e+00,2.302402921432728211e-05,2.184100452221667411e-04
2.984126984126984183e+00,2.637546181716015023e-05,1.850397093492962223e-04
2.984920634920634974e+00,2.674811052044602110e-05,1.304878240125641685e-04
2.985714285714285765e+00,2.353707926067552918e-05,6.292791661658874499e-05
2.986507936507936556e+00,1.698271115372179845e-05,-7.680611637143047309e-06
2.987301587301587347e+00,8.268443813474810999e-06,-7.145249501099759832e-05
2.988095238095238138e+00,-6.401391377894284662e-07,-1.204750507762265675e-04
2.988888888888888928e+00,-7.410473830038759136e-06,-1.502865461886151869e-04
2.989682539682539719e+00,-9.933031719641154803e-06,-1.605452580720748070e-04
2.990476190476190510e+00,-6.941407134176273469e-06,-1.546959026215792002e-04
2.991269841269841301e+00,1.515275530935454807e-06,-1.387325941211950571e-04
2.992063492063492092e+00,1.390617556890921050e-05,-1.194398202398209356e-04
2.992857142857142883e+00,2.744257889772155735e-05,-1.026302465131953800e-04
2.993650793650793673e+00,3.866621196580126706e-05,-9.183503767161332377e-05
2.994444444444444464e+00,4.426862605539072629e-05,-8.770347273372323049e-05
2.995238095238095255e+00,4.193487211190160467e-05,-8.814854108179022332e-05
2.996031746031746046e+00,3.098555757867700497e-05,-8.910899663019064847e-05
2.996825396825396837e+00,1.263381873188279588e-05,-8.569996420290449713e-05
2.997619047619047628e+00,-1.022776759558989578e-05,-7.348161311718652056e-05
2.998412698412698418e+00,-3.366334731912217209e-05,-4.958352693430279415e-05
2.999206349206349209e+00,-5.358071119249286908e-05,-1.348112211897601188e-05
3.000000000000000000e+00,-6.662442480305330692e-05,3.268654776669878545e-05
3.000793650793650791e+00,-7.084103699379547291e-05,8.427676823869988663e-05
3.001587301587301582e+00,-6.596835382013958502e-05,1.347394500223369530e-04
3.002380952380952372e+00,-5.332274950683923097e-05,1.765778480227529312e-04
3.003174603174603163e+00,-3.536789361567728673e-05,2.025771262319981433e-04
3.003968253968253954e+00,-1.511253830363558247e-05,2.071610106949738279e-04
3.004761904761904745e+00,4.502523608752913788e-06,1.876696184519065301e-04
3.005555555555555536e+00,2.109551713468799783e-05,1.452817011421845747e-04
3.006349206349206327e+00,3.313168903220630330e-05,8.528052943457373365e-05
3.007142857142857117e+00,3.999114551977043863e-05,1.644192851934704960e-05
3.007936507936507908e+00,4.185961269879300066e-05,-5.047124114312074916e-05
3.008730158730158699e+00,3.951981112682247295e-05,-1.048423114602454765e-04
3.009523809523809490e+00,3.411741096336706145e-05,-1.384523370513833940e-04
3.010317460317460281e+00,2.694474687169220295e-05,-1.472464663466293829e-04
3.011111111111111072e+00,1.925441289795949470e-05,-1.321144676787311531e-04
3.011904761904761862e+00,1.210187627655811513e-05,-9.845543092256910393e-05
3.012698412698412653e+00,6.220151038868544007e-06,-5.465063547047169484e-05
3.013492063492063444e+00,1.938854708791419099e-06,-9.889079413484051876e-06
3.014285714285714235e+00,-8.348648351529380078e-07,2.803625861900684604e-05
3.015079365079365026e+00,-2.558861946769432867e-06,5.437496928123946400e-05
3.015873015873015817e+00,-3.918524237379699866e-06,6.812940232072992410e-05
3.016666666666666607e+00,-5.625004069195767711e-06,7.173704082317336798e-05
3.017460317460317398e+00,-8.189825791704747493e-06,6.990147824828985435e-05
3.018253968253968189e+00,-1.173893233073472371e-05,6.793627201172406640e-05
3.019047619047618980e+00,-1.593355880408722604e-05,7.007292204763322110e-05
3.019841269841269771e+00,-2.003860584256767947e-05,7.816690019984668216e-05
3.020634920634920562e+00,-2.312529718926884675e-05,9.112173905830298407e-05
3.021428571428571352e+00,-2.433892508255742492e-05,1.051677714045349534e-04
3.022222222222222143e+00,-2.313634472464498162e-05,1.149238191957801234e-04
3.023015873015872934e+00,-1.941700646003729561e-05,1.149803511618960978e-04
3.023809523809523725e+00,-1.352325171327511402e-05,1.016011196946095351e-04
3.024603174603174516e+00,-6.139121655118205677e-06,7.407592727560226157e-05
3.025396825396825307e+00,1.857273705557372244e-06,3.530955665873449189e-05
3.026190476190476097e+00,9.542651764336256901e-06,-8.577446169884508551e-06
3.026984126984126888e+00,1.608109509107188869e-05,-4.957437376964274225e-05
3.027777777777777679e+00,2.084109237894878227e-05,-7.969297296008578512e-05
3.028571428571428470e+00,2.349471324003280927e-05,-9.296051470940020053e-05
3.029365079365079261e+00,2.407944018296969907e-05,-8.697291029392023218e-05
3.030158730158730052e+00,2.299139077151503445e-05,-6.360890199874773862e-05
3.030952380952380842e+00,2.088913530283728273e-05,-2.871715527550161690e-05
3.031746031746031633e+00,1.852080774746647717e-05,9.162233391260237982e-06
3.032539682539682424e+00,1.652390418106502261e-05,4.074444793002864827e-05
3.033333333333333215e+00,1.526197041756336532e-05,5.814800652440064825e-05
3.034126984126984006e+00,1.474641055852372422e-05,5.671522996607190973e-05
3.034920634920634797e+00,1.465711085329492259e-05,3.604543600657850237e-05
3.035714285714285587e+00,1.444292450171920474e-05,-1.692967880669990181e-08
3.036507936507936378e+00,1.346597305509362731e-05,-4.440513427798552622e-05
3.037301587301587169e+00,1.115367444922412873e-05,-8.854626937798987382e-05
3.038095238095237960e+00,7.133435263311786772e-06,-1.242878117440927583e-04
3.038888888888888751e+00,1.338951043040929036e-06,-1.455540124337606955e-04
3.039682539682539542e+00,-5.915931670913985269e-06,-1.493852022486529181e-04
3.040476190476190332e+00,-1.390775481467525027e-05,-1.362055448004336356e-04
3.041269841269841123e+00,-2.154764431675248415e-05,-1.093595938467548865e-04
3.042063492063491914e+00,-2.753348598028979567e-05,-7.412060026425163644e-05
3.042857142857142705e+00,-3.061706848201032038e-05,-3.647123659987610840e-05
3.043650793650793496e+00,-2.993677288195793965e-05,-1.962214770606875004e-06
3.044444444444444287e+00,-2.531219094294011006e-05,2.513155154001769456e-05
3.045238095238095077e+00,-1.738480613387011130e-05,4.226924250260214420e-05
3.046031746031745868e+00,-7.536139225687584954e-06,4.874204367098954245e-05
3.046825396825396659e+00,2.400261298273708239e-06,4.548925484911290018e-05
3.047619047619047450e+00,1.054176056370123126e-05,3.471336048091737159e-05
3.048412698412698241e+00,1.535742660319935234e-05,1.936794151544473595e-05
3.049206349206349032e+00,1.597441945125185195e-05,2.604097327203651625e-06
3.049999999999999822e+00,1.234170704621086321e-05,-1.272441857356147783e-05
3.050793650793650613e+00,5.234461344812125012e-06,-2.441325266293985772e-05
3.051587301587301404e+00,-3.901313448642491325e-06,-3.108268869474727238e-05
3.052380952380952195e+00,-1.324484594326125897e-05,-3.219404999084465180e-05
3.053174603174602986e+00,-2.098435531288785728e-05,-2.795100552204942188e-05
3.053968253968253777e+00,-2.570035937466808013e-05,-1.913161332446204586e-05
3.054761904761904567e+00,-2.664972408109527892e-05,-6.892695738053117103e-06
3.055555555555555358e+00,-2.387913413884010057e-05,7.415985172631709355e-06
3.056349206349206149e+00,-1.815120722598009188e-05,2.239946952628871224e-05
3.057142857142856940e+00,-1.072114186093498075e-05,3.671627243443251540e-05
3.057936507936507731e+00,-3.033955333464149652e-06,4.913743666695717145e-05
3.058730158730158522e+00,3.583104096901753478e-06,5.858959410718826119e-05
3.059523809523809312e+00,8.171793828766508387e-06,6.420674889574786630e-05
3.060317460317460103e+00,1.029602185244352450e-05,6.540431517012879102e-05
3.061111111111110894e+00,1.007590681915032952e-05,6.197122129926049903e-05
3.061904761904761685e+00,8.104712072116137796e-06,5.415625302182273319e-05
3.062698412698412920e+00,5.274481321801410449e-06,4.270879249983158571e-05
3.063492063492063711e+00,2.554221900744705724e-06,2.883220673122874529e-05
3.064285714285714501e+00,7.695965830578074595e-07,1.402827312474322009e-05
3.065079365079365292e+00,4.251843645148925891e-07,-1.516582935811521883e-07
3.065873015873016083e+00,1.596932091100098709e-06,-1.239343357874262115e-05
3.066666666666666874e+00,3.911235288493151928e-06,-2.186349845180204742e-05
3.067460317460317665e+00,6.618658107818051309e-06,-2.832871408184424713e-05
3.068253968253968456e+00,8.758583618845464200e-06,-3.210689579076234172e-05
3.069047619047619246e+00,9.391725626631947359e-06,-3.386211897945881497e-05
3.069841269841270037e+00,7.854147544253009159e-06,-3.432003504645638847e-05
3.070634920634920828e+00,3.969592960391651044e-06,-3.401241831442498859e-05
3.071428571428571619e+00,-1.843057168107948458e-06,-3.314777061966177151e-05
3.072222222222222410e+00,-8.609187969809136234e-06,-3.164771248826751229e-05
3.073015873015873201e+00,-1.498819603472150238e-05,-2.931235573336063546e-05
3.073809523809523991e+00,-1.957202550234417865e-05,-2.601980792126050131e-05
3.074603174603174782e+00,-2.121449114072859526e-05,-2.185457898062310997e-05
3.075396825396825573e+00,-1.930066398644060974e-05,-1.709992669875578085e-05
3.076190476190476364e+00,-1.388422838753627746e-05,-1.209668795367153913e-05
3.076984126984127155e+00,-5.663996437094762653e-06,-7.032485984466170498e-06
3.077777777777777946e+00,4.180171755052087811e-06,-1.756198964472506600e-06
3.078571428571428736e+00,1.423632695010757075e-05,4.293313922778486317e-06
3.079365079365079527e+00,2.312610208394706119e-05,1.199081510525900032e-05
3.080158730158730318e+00,2.972781418875408761e-05,2.225896579971902759e-05
3.080952380952381109e+00,3.332000430917455799e-05,3.568464703712272569e-05
3.081746031746031900e+00,3.363450973041343334e-05,5.211088809148438632e-05
3.082539682539682691e+00,3.083028226953944922e-05,7.032276920841562680e-05
3.083333333333333481e+00,2.541363075246377070e-05,8.794841698614968954e-05
3.084126984126984272e+00,1.813646605687766126e-05,1.016685577262524458e-04
3.084920634920635063e+00,9.900178632368068090e-06,1.077621201885565111e-04
3.085714285714285854e+00,1.677920956108954119e-06,1.029172638228732198e-04
3.086507936507936645e+00,-5.553412480106731669e-06,8.513508746080668092e-05
3.087301587301587436e+00,-1.089630854241812684e-05,5.448745513018329894e-05
3.088095238095238226e+00,-1.365310537981646174e-05,1.349221961943862615e-05
3.088888888888889017e+00,-1.348094667019394266e-05,-3.305417837957740442e-05
3.089682539682539808e+00,-1.054084331592445138e-05,-7.881303574189108788e-05
3.090476190476190599e+00,-5.570868339463894453e-06,-1.170793748124456830e-04
3.091269841269841390e+00,1.857479342258130567e-07,-1.421347971480998399e-04
3.092063492063492181e+00,5.223218505423083559e-06,-1.504465134395031422e-04
3.092857142857142971e+00,8.137685540249474589e-06,-1.414095668510091934e-04
3.093650793650793762e+00,7.998981246852259071e-06,-1.174503551474948769e-04
3.094444444444444553e+00,4.600176779414064603e-06,-8.348139985070066830e-05
3.095238095238095344e+00,-1.497465866327843375e-06,-4.585741708507131927e-05
3.096031746031746135e+00,-9.125673151588921942e-06,-1.108439551168588455e-05
3.096825396825396925e+00,-1.680626646453965722e-05,1.543782866976870733e-05
3.097619047619047716e+00,-2.308067954036031156e-05,3.039308222031380103e-05
3.098412698412698507e+00,-2.677944968068231426e-05,3.307500272355411364e-05
3.099206349206349298e+00,-2.718166618019728569e-05,2.538262683142157878e-05
3.100000000000000089e+00,-2.406519186370059389e-05,1.130013393707691249e-05
3.100793650793650880e+00,-1.768569849579282969e-05,-4.035222636446361248e-06
3.101587301587301670e+00,-8.732889978010550353e-06,-1.549429636190154276e-05
3.102380952380952461e+00,1.706780815233799814e-06,-1.910920507369073845e-05
3.103174603174603252e+00,1.219037980361689484e-05,-1.296911359021815970e-05
3.103968253968254043e+00,2.100660461231615756e-05,2.348458651747864531e-06
3.104761904761904834e+00,2.636189658094019456e-05,2.392249744059860253e-05
3.105555555555555625e+00,2.668091122537479362e-05,4.718926223846746419e-05
3.106349206349206415e+00,2.098365576528498836e-05,6.704022501658602048e-05
3.107142857142857206e+00,9.257519829426770480e-06,7.905183253553734845e-05
3.107936507936507997e+00,-7.275307778613160039e-06,8.054213565006086142e-05
3.108730158730158788e+00,-2.609042879186188656e-05,7.119241928706610478e-05
3.109523809523809579e+00,-4.357404493755251255e-05,5.308464494025259952e-05
3.110317460317460370e+00,-5.556695670572874739e-05,3.015254559688383944e-05
3.111111111111111160e+00,-5.822584007499426108e-05,7.186906722224851876e-06
3.111904761904761951e+00,-4.907046681316549786e-05,-1.135406516360791152e-05
3.112698412698412742e+00,-2.794068378379163290e-05,-2.242018865563504443e-05
3.113492063492063533e+00,2.504399469391356524e-06,-2.503614513679482706e-05
3.114285714285714324e+00,3.705303560571956409e-05,-2.036836178561616338e-05
3.115079365079365115e+00,6.903806238026149100e-05,-1.118018540813683280e-05
3.115873015873015905e+00,9.199233241285789653e-05,-8.660472178160890526e-07
3.116666666666666696e+00,1.013342720968938199e-04,7.599824783819119262e-06
3.117460317460317487e+00,9.552377903714039337e-05,1.244427117320573324e-05
3.118253968253968278e+00,7.633291461027610567e-05,1.336740053270540220e-05
3.119047619047619069e+00,4.820183454158721121e-05,1.127185823120916909e-05
3.119841269841269860e+00,1.694592727052695853e-05,7.615789435380326158e-06
3.120634920634920650e+00,-1.175515137910054412e-05,3.675018622659276626e-06
3.121428571428571441e+00,-3.364465039371062748e-05,4.340759370647090672e-09
3.122222222222222232e+00,-4.662747537461562713e-05,-3.707086977764430006e-06
3.123015873015873023e+00,-5.083587113471611752e-05,-8.344867074068269293e-06
3.123809523809523814e+00,-4.811492771679323879e-05,-1.476574074059206577e-05
3.124603174603174605e+00,-4.118136089901040141e-05,-2.312723690194975196e-05
3.125396825396825395e+00,-3.276295680940843918e-05,-3.243363594985859628e-05
3.126190476190476186e+00,-2.497226311948615404e-05,-4.051452967149958464e-05
3.126984126984126977e+00,-1.904285896135524470e-05,-4.450468740016739252e-05
3.127777777777777768e+00,-1.540872513665283378e-05,-4.171611336193701658e-05
3.128571428571428559e+00,-1.398443662551964166e-05,-3.064006525255532379e-05
3.129365079365079350e+00,-1.444733357353763157e-05,-1.173546618412274001e-05
3.130158730158730140e+00,-1.635733101021399240e-05,1.231479064136579251e-05
3.130952380952380931e+00,-1.906656818096151866e-05,3.705485895242604665e-05
3.131746031746031722e+00,-2.151773974834999954e-05,5.735604168048698108e-05
3.132539682539682513e+00,-2.213007677226323255e-05,6.886055949795324505e-05
3.133333333333333304e+00,-1.896574403430744058e-05,6.930572504827496019e-05
3.134126984126984095e+00,-1.024931737509955548e-05,5.927314956015165051e-05
3.134920634920634885e+00,4.872128366223269515e-06,4.208420470214173793e-05
3.135714285714285676e+00,2.560861153068852769e-05,2.283872679457844639e-05
3.136507936507936467e+00,4.919176689270435987e-05,6.869346574430248895e-06
3.137301587301587258e+00,7.117648311691807746e-05,-1.926019778984878480e-06
3.138095238095238049e+00,8.639679711659421161e-05,-2.355756153002472530e-06
3.138888888888888840e+00,9.032047383428906868e-05,3.612356599469173806e-06
3.139682539682539630e+00,8.037604304934046389e-05,1.140785008519494777e-05
3.140476190476190421e+00,5.683539894591625372e-05,1.529881519536822144e-05
3.141269841269841212e+00,2.299245670570998265e-05,1.028536133044044267e-05
3.142063492063492003e+00,-1.541271384042929330e-05,-6.166305077733166560e-06
3.142857142857142794e+00,-5.139288958384910787e-05,-3.312855297349092282e-05
3.143650793650793585e+00,-7.827131701544702514e-05,-6.629511592354024542e-05
3.144444444444444375e+00,-9.124323358374757977e-05,-9.912328926974740329e-05
3.145238095238095166e+00,-8.855318247251380112e-05,-1.246673170024316195e-04
3.146031746031745957e+00,-7.196105523947310888e-05,-1.375087211440871528e-04
3.146825396825396748e+00,-4.634199336525177956e-05,-1.351643545421146156e-04
3.147619047619047539e+00,-1.850604611051042132e-05,-1.185468050130491406e-04
3.148412698412698330e+00,4.454535363119636559e-06,-9.139741349674413448e-05
3.149206349206349120e+00,1.685749526950735289e-05,-5.896932146062324771e-05
3.149999999999999911e+00,1.573249075980712560e-05,-2.646186710509282916e-05
3.150793650793650702e+00,1.422181697441561778e-06,2.274032952073756508e-06
3.151587301587301493e+00,-2.262995196512715266e-05,2.540335036767133185e-05
3.152380952380952284e+00,-5.079669409012945347e-05,4.304864818502992016e-05
3.153174603174603075e+00,-7.660374517296856243e-05,5.665622418397081318e-05
3.153968253968253865e+00,-9.412141148591466667e-05,6.809529884286521270e-05
3.154761904761904656e+00,-9.908455267442506658e-05,7.882671445671513748e-05
3.155555555555555447e+00,-8.954548430799663086e-05,8.938586315321554070e-05
3.156349206349206238e+00,-6.602886722745346295e-05,9.926931980020017073e-05
3.157142857142857029e+00,-3.127922855814464266e-05,1.071684330662399609e-04
3.157936507936507819e+00,1.027473141579856508e-05,1.114058799028565716e-04
3.158730158730158610e+00,5.324761842930613776e-05,1.104120090139062657e-04
3.159523809523809401e+00,9.215130991308101665e-05,1.031088880486101962e-04
3.160317460317460192e+00,1.222774309822190241e-04,8.912957551613489096e-05
3.161111111111110983e+00,1.404469994249305811e-04,6.886884887936279046e-05
3.161904761904761774e+00,1.454524137036143237e-04,4.341622796480131826e-05
3.162698412698412564e+00,1.380944114450488309e-04,1.443963710491623439e-05
3.163492063492063355e+00,1.208422905889063373e-04,-1.593586306188032718e-05
3.164285714285714146e+00,9.724332170148605140e-05,-4.525252949206305550e-05
3.165079365079364937e+00,7.123806172226484319e-05,-7.087699961609446569e-05
3.165873015873015728e+00,4.651592639937079395e-05,-9.022566068219830594e-05
3.166666666666666519e+00,2.600213424262362542e-05,-1.010783695038679024e-04
3.167460317460317309e+00,1.152216007137330021e-05,-1.019666096927598670e-04
3.168253968253968100e+00,3.649339794226775794e-06,-9.257299561493793981e-05
3.169047619047618891e+00,1.713965805863435069e-06,-7.402874486773518997e-05
3.169841269841269682e+00,3.949476072598572420e-06,-4.897158927096088681e-05
3.170634920634920473e+00,7.770834100531108106e-06,-2.125752316653292575e-05
3.171428571428571264e+00,1.019733938979178207e-05,4.682198521514368242e-06
3.172222222222222054e+00,8.413965738654741487e-06,2.470926699531140544e-05
3.173015873015872845e+00,3.985946289050684459e-07,3.583218978662884802e-05
3.173809523809523636e+00,-1.454430245578551288e-05,3.679175582281102292e-05
3.174603174603174427e+00,-3.554296741961389275e-05,2.821652576377111458e-05
3.175396825396825218e+00,-6.033989648277587149e-05,1.233693642916318884e-05
3.176190476190476009e+00,-8.585016542052352441e-05,-7.611611756266642557e-06
3.176984126984126799e+00,-1.088723916348808131e-04,-2.808102811272900363e-05
3.177777777777777590e+00,-1.266723899841852271e-04,-4.578240084655235833e-05
3.178571428571428381e+00,-1.372668816778212567e-04,-5.801323454842111939e-05
3.179365079365079172e+00,-1.394225475815710910e-04,-6.276261063400174372e-05
3.180158730158729963e+00,-1.325272854138415547e-04,-5.873787588205980312e-05
3.180952380952380754e+00,-1.165132580265162916e-04,-4.547196411038213109e-05
3.181746031746031544e+00,-9.192617824517677048e-05,-2.356374345062078629e-05
3.182539682539682335e+00,-6.010522915580528109e-05,5.057388031698001262e-06
3.183333333333333126e+00,-2.333775956911363769e-05,3.705792972223452368e-05
3.184126984126983917e+00,1.516534024973229565e-05,6.800972044905527773e-05
3.184920634920634708e+00,5.156165260410349143e-05,9.312747234961088634e-05
3.185714285714285499e+00,8.191914627276954456e-05,1.082843244029909832e-04
3.186507936507936289e+00,1.028972134884249508e-04,1.110081936804647784e-04
3.187301587301587080e+00,1.124016618207314340e-04,1.011315086325369450e-04
3.188095238095238315e+00,1.100409423406370377e-04,8.086591700536508050e-05
3.188888888888889106e+00,9.725393828347001597e-05,5.425712141495857120e-05
3.189682539682539897e+00,7.706484491740492717e-05,2.617203366218359844e-05
3.190476190476190688e+00,5.351836213989480466e-05,1.118992737485086470e-06
3.191269841269841478e+00,3.092256210170251794e-05,-1.774044478273353523e-05
3.192063492063492269e+00,1.305872402346649875e-05,-2.909010077866682205e-05
3.192857142857143060e+00,2.512116411978725370e-06,-3.334671725381492383e-05
3.193650793650793851e+00,2.496730394756302792e-07,-3.204822563472698263e-05
3.194444444444444642e+00,5.525700309222831972e-06,-2.703917250015381272e-05
3.195238095238095433e+00,1.612986133204649645e-05,-1.979975531617781238e-05
3.196031746031746223e+00,2.890611913722931168e-05,-1.116894971179012369e-05
3.196825396825397014e+00,4.039896340028608962e-05,-1.526932098549509358e-06
3.197619047619047805e+00,4.746769416471398946e-05,8.693323838626316197e-06
3.198412698412698596e+00,4.776109495131010554e-05,1.843355357209034594e-05
3.199206349206349387e+00,4.002411841850476716e-05,2.568245730298719453e-05
3.200000000000000178e+00,2.426178742115702250e-05,2.762035656609317623e-05
3.200793650793650968e+00,1.789192236612334895e-06,2.129132976666442488e-05
3.201587301587301759e+00,-2.483462475024313614e-05,4.644810726617161896e-06
3.202380952380952550e+00,-5.202127414472495570e-05,-2.239160234511539848e-05
3.203174603174603341e+00,-7.555047417208047254e-05,-5.722154191643499132e-05
3.203968253968254132e+00,-9.115851370780300462e-05,-9.461024438935959689e-05
3.204761904761904923e+00,-9.528707264144569908e-05,-1.275591173912217870e-04
3.205555555555555713e+00,-8.591210043255544711e-05,-1.488596286494332018e-04
3.206349206349206504e+00,-6.329906000495695443e-05,-1.529053712458091057e-04
3.207142857142857295e+00,-3.044675104844289903e-05,-1.372182917799781219e-04
3.207936507936508086e+00,7.047377089254226637e-06,-1.032147311043089610e-04
3.208730158730158877e+00,4.186545228942292789e-05,-5.598159331817785745e-05
3.209523809523809668e+00,6.651398142024871724e-05,-3.151741124908452926e-06
3.210317460317460458e+00,7.517046610603357148e-05,4.677591128599445125e-05
3.211111111111111249e+00,6.528161630023037311e-05,8.622239958724415470e-05
3.211904761904762040e+00,3.838811378043005697e-05,1.100163717606578330e-04
3.212698412698412831e+00,-1.129314471126871862e-07,1.163012654540131647e-04
3.213492063492063622e+00,-4.221381385685057529e-05,1.067123691865347817e-04
3.214285714285714413e+00,-7.918936337390414444e-05,8.579858889021046119e-05
3.215079365079365203e+00,-1.036092191372683122e-04,5.979643336911269182e-05
3.215873015873015994e+00,-1.109450653473136766e-04,3.501011243505795307e-05
3.216666666666666785e+00,-1.003961049166478443e-04,1.618161152651886601e-05
3.217460317460317576e+00,-7.478797943914017126e-05,5.293837859960297601e-06
3.218253968253968367e+00,-3.964763596713995463e-05,1.185988112587676145e-06
3.219047619047619158e+00,-1.755999424405042079e-06,1.510536240744805697e-07
3.219841269841269948e+00,3.241514359944722764e-05,-2.629239669779056827e-06
3.220634920634920739e+00,5.798993893767374896e-05,-1.126269166146011751e-05
3.221428571428571530e+00,7.243056247800080418e-05,-2.754399293276390030e-05
3.222222222222222321e+00,7.564936885934921314e-05,-5.010249999452590742e-05
3.223015873015873112e+00,6.957734854160669690e-05,-7.456446237334074577e-05
3.223809523809523903e+00,5.738396885259601971e-05,-9.465319192556824197e-05
3.224603174603174693e+00,4.258018049420970921e-05,-1.038633214706128705e-04
3.225396825396825484e+00,2.821816567253049703e-05,-9.719844697239975282e-05
3.226190476190476275e+00,1.634649526821721767e-05,-7.248972594049409501e-05
3.226984126984127066e+00,7.799760094995173643e-06,-3.098987839039352062e-05
3.227777777777777857e+00,2.313288941200529922e-06,2.282079245063635937e-05
3.228571428571428648e+00,-1.119407546602115787e-06,8.207185178215805211e-05
3.229365079365079438e+00,-3.766599236110202216e-06,1.387261338442000321e-04
3.230158730158730229e+00,-6.678378144430046887e-06,1.849142770268444422e-04
3.230952380952381020e+00,-1.031227955778556863e-05,2.141491847305392277e-04
3.231746031746031811e+00,-1.434552992164032528e-05,2.222562344811869028e-04
3.232539682539682602e+00,-1.772242070622025511e-05,2.079202913374874207e-04
3.233333333333333393e+00,-1.893847823397682735e-05,1.728036129082190155e-04
3.234126984126984183e+00,-1.650347671732582962e-05,1.212341403599237417e-04
3.234920634920634974e+00,-9.465691752837391597e-06,5.951435431595189664e-05
3.235714285714285765e+00,2.159568364685962911e-06,-5.038340480863842307e-06
