Timestamp,Flexor carpi radialis,Extensor digitorum
2.000000000000000000e+00,-2.945767490424767376e-06,-2.502517926116732010e-05
2.000793650793650791e+00,-2.024026834112243886e-06,-1.256384720931987303e-05
2.001587301587301582e+00,-1.241092781780450686e-06,3.076293273660584202e-06
2.002380952380952372e+00,-8.095712708272297574e-07,1.990967152015401956e-05
2.003174603174603163e+00,-8.368071164763707546e-07,3.581411665231604803e-05
2.003968253968253954e+00,-1.312786196498672711e-06,4.867379637663072375e-05
2.004761904761904745e+00,-2.124654868568955353e-06,5.656601968484082759e-05
2.005555555555555536e+00,-3.091544755935265615e-06,5.802591324482077041e-05
2.006349206349206327e+00,-4.009886099141123318e-06,5.234170158119105034e-05
2.007142857142857117e+00,-4.698437752296234873e-06,3.977633584491048908e-05
2.007936507936507908e+00,-5.033786106392035841e-06,2.161877245315717579e-05
2.008730158730158699e+00,-4.970362980786304764e-06,2.947658435453526143e-08
2.009523809523809490e+00,-4.542840901988238395e-06,-2.228362603335519085e-05
2.010317460317460281e+00,-3.852019477387463318e-06,-4.247727881054638016e-05
2.011111111111111072e+00,-3.037831945497654832e-06,-5.798248778410882153e-05
2.011904761904761862e+00,-2.245326715625892071e-06,-6.684143528187817460e-05
2.012698412698412653e+00,-1.591390558813163035e-06,-6.793799916717361035e-05
2.013492063492063444e+00,-1.140516053151259571e-06,-6.111501666710888244e-05
2.014285714285714235e+00,-8.958800861806242108e-07,-4.716947111889064590e-05
2.015079365079365026e+00,-8.073361625878700641e-07,-2.770774527710573309e-05
2.015873015873015817e+00,-7.920784128661167512e-07,-4.869367143686596700e-06
2.016666666666666607e+00,-7.591404418692280876e-07,1.901617068811758989e-05
2.017460317460317398e+00,-6.279111510282312462e-07,4.174340804029392588e-05
2.018253968253968189e+00,-3.344789581537457378e-07,6.143877811137321652e-05
2.019047619047618980e+00,1.733240278948892130e-07,7.663068736906997755e-05
2.019841269841269771e+00,9.438884487503155475e-07,8.620073606917018230e-05
2.020634920634920562e+00,2.020595435644101044e-06,8.928614167806359385e-05
2.021428571428571352e+00,3.421849298395182269e-06,8.523249563302596728e-05
2.022222222222222143e+00,5.102604526204804703e-06,7.367228675463592799e-05
2.023015873015872934e+00,6.911043035118048363e-06,5.473026696996884989e-05
2.023809523809523725e+00,8.564354072966129966e-06,2.927101953032713863e-05
2.024603174603174516e+00,9.667678183115660599e-06,-9.430140047044045542e-07
2.025396825396825307e+00,9.787290086888085367e-06,-3.329165370165784450e-05
2.026190476190476097e+00,8.567123556640660149e-06,-6.456379477369466322e-05
2.026984126984126888e+00,5.856400413917499385e-06,-9.139626326592768433e-05
2.027777777777777679e+00,1.805112153470585271e-06,-1.107862577942393987e-04
2.028571428571428470e+00,-3.111648975002175480e-06,-1.205716579659262715e-04
2.029365079365079261e+00,-8.160725822704420899e-06,-1.197848485450285575e-04
2.030158730158730052e+00,-1.250125948893638355e-05,-1.088152849752557761e-04
2.030952380952380842e+00,-1.538108392799710414e-05,-8.936331472085074423e-05
2.031746031746031633e+00,-1.632207887244091748e-05,-6.421131915738037326e-05
2.032539682539682424e+00,-1.523633922237207310e-05,-3.685472897976874412e-05
2.033333333333333215e+00,-1.243596788526570608e-05,-1.102772582868868478e-05
2.034126984126984006e+00,-8.535789222683483327e-06,9.847240313569141285e-06
2.034920634920634797e+00,-4.285111605804496984e-06,2.323823811253376956e-05
2.035714285714285587e+00,-3.857156476211281760e-07,2.802217225508875362e-05
2.036507936507936378e+00,2.649324852926941752e-06,2.481528400461692821e-05
2.037301587301587169e+00,4.563713182885438893e-06,1.598383247772473763e-05
2.038095238095237960e+00,5.350656196657666233e-06,5.255354180660796582e-06
2.038888888888888751e+00,5.192265157787171389e-06,-3.042876847161134563e-06
2.039682539682539542e+00,4.377661290727548369e-06,-4.970106067855134130e-06
2.040476190476190332e+00,3.227308854087958162e-06,2.048701736750683286e-06
2.041269841269841123e+00,2.038018172842244320e-06,1.849687167834044018e-05
2.042063492063491914e+00,1.049170462346874443e-06,4.248639485708353926e-05
2.042857142857142705e+00,4.224367488866337742e-07,7.001806533419990266e-05
2.043650793650793496e+00,2.275188844795738719e-07,9.575269250776631471e-05
2.044444444444444287e+00,4.329701371732409612e-07,1.141430007792056876e-04
2.045238095238095077e+00,9.079100741488526323e-07,1.206748931943815793e-04
2.046031746031745868e+00,1.442172913593676533e-06,1.129127820347583543e-04
2.046825396825396659e+00,1.787927550152266722e-06,9.107329586188428147e-05
2.047619047619047450e+00,1.717586507099010473e-06,5.798317657670751018e-05
2.048412698412698241e+00,1.084971281733910527e-06,1.846551335237754101e-05
2.049206349206349032e+00,-1.270424371226295165e-07,-2.165144671738246913e-05
2.049999999999999822e+00,-1.786965524971135433e-06,-5.665640271909973432e-05
2.050793650793650613e+00,-3.630453963793968646e-06,-8.198159518360290999e-05
2.051587301587301404e+00,-5.308973443515049211e-06,-9.494772669517076501e-05
2.052380952380952195e+00,-6.460129508902750867e-06,-9.509524416233879496e-05
2.053174603174602986e+00,-6.782926449097345698e-06,-8.405868451750643934e-05
2.053968253968253777e+00,-6.100833639934487242e-06,-6.505163360558019101e-05
2.054761904761904567e+00,-4.400291372433525516e-06,-4.211713488818168247e-05
2.055555555555555358e+00,-1.839418455065285749e-06,-1.932895558727964610e-05
2.056349206349206149e+00,1.272563482054176213e-06,-1.058909674230842398e-07
2.057142857142856940e+00,4.521608443738033642e-06,1.325147133614903236e-05
2.057936507936507731e+00,7.455103240107873769e-06,1.975227692590861967e-05
2.058730158730158522e+00,9.659065293350724765e-06,1.964327863855102230e-05
2.059523809523809312e+00,1.083286846182437558e-05,1.413120962705722448e-05
2.060317460317460103e+00,1.084517788239501717e-05,4.993365296258136488e-06
2.061111111111110894e+00,9.756532623032043217e-06,-5.818739021343331113e-06
2.061904761904761685e+00,7.801539926523948283e-06,-1.649584194671228695e-05
2.062698412698412920e+00,5.334428355741954022e-06,-2.556257344197772035e-05
2.063492063492063711e+00,2.751419697857917548e-06,-3.194957731159052281e-05
2.064285714285714501e+00,4.089850564009203581e-07,-3.499011275967824471e-05
2.065079365079365292e+00,-1.442381082756124008e-06,-3.439581134091831022e-05
2.065873015873016083e+00,-2.693534248430847818e-06,-3.024552632032876664e-05
2.066666666666666874e+00,-3.373996966820150255e-06,-2.298235956832042859e-05
2.067460317460317665e+00,-3.613891103201328986e-06,-1.338060553964551293e-05
2.068253968253968456e+00,-3.582372450387243991e-06,-2.437163861568859516e-06
2.069047619047619246e+00,-3.420995542647529659e-06,8.831352835881140382e-06
2.069841269841270037e+00,-3.192583567235880398e-06,1.965162653362088831e-05
2.070634920634920828e+00,-2.862667837429748769e-06,2.972612992498285426e-05
2.071428571428571619e+00,-2.321350807713388810e-06,3.931979062767417048e-05
2.072222222222222410e+00,-1.440214966262931803e-06,4.912402733977821350e-05
2.073015873015873201e+00,-1.451643293694634278e-07,5.991901009779906185e-05
2.073809523809523991e+00,1.523113806709284823e-06,7.215202519195699658e-05
2.074603174603174782e+00,3.388798079054374410e-06,8.557164791151874561e-05
2.075396825396825573e+00,5.175079091776468618e-06,9.900093675314282251e-05
2.076190476190476364e+00,6.583681341433235472e-06,1.102792598592430839e-04
2.076984126984127155e+00,7.387321260094201097e-06,1.164123339340039800e-04
2.077777777777777946e+00,7.494090256316832862e-06,1.140037603212443450e-04
2.078571428571428736e+00,6.957198569595419546e-06,1.000106851184676273e-04
2.079365079365079527e+00,5.933563823143361160e-06,7.273395168359840545e-05
2.080158730158730318e+00,4.620519861936824372e-06,3.277020146232831896e-05
2.080952380952381109e+00,3.204829945912107839e-06,-1.646703885625640151e-05
2.081746031746031900e+00,1.841788438970079176e-06,-6.899718699483581134e-05
2.082539682539682691e+00,6.585706844833815794e-07,-1.173826127179413342e-04
2.083333333333333481e+00,-2.383640819043206232e-07,-1.544410673696630513e-04
2.084126984126984272e+00,-7.694099128690167914e-07,-1.750260176483023084e-04
2.084920634920635063e+00,-9.041660026242587081e-07,-1.772665621259831106e-04
2.085714285714285854e+00,-6.873251027276544214e-07,-1.628317164503442825e-04
2.086507936507936645e+00,-2.496424396552894213e-07,-1.361490977679849111e-04
2.087301587301587436e+00,2.084114411332639955e-07,-1.029184090292424488e-04
2.088095238095238226e+00,4.596666688814759764e-07,-6.851928653019343754e-05
2.088888888888889017e+00,3.068465020179254288e-07,-3.688332504143817462e-05
2.089682539682539808e+00,-3.661326213213083318e-07,-1.011326613153338033e-05
2.090476190476190599e+00,-1.564213274821656760e-06,1.122503417396161731e-05
2.091269841269841390e+00,-3.179957838372630751e-06,2.744857359846563966e-05
2.092063492063492181e+00,-5.018704952031498698e-06,3.909785328616645112e-05
2.092857142857142971e+00,-6.840846718638104715e-06,4.652971493620604266e-05
2.093650793650793762e+00,-8.408737496575254932e-06,4.985328499222746121e-05
2.094444444444444553e+00,-9.525912141861819207e-06,4.913454262124184461e-05
2.095238095238095344e+00,-1.005956285662252278e-05,4.469358840868974022e-05
2.096031746031746135e+00,-9.943385654325241388e-06,3.731996018761493726e-05
2.096825396825396925e+00,-9.165494202305434675e-06,2.831159482383826666e-05
2.097619047619047716e+00,-7.751833029538055981e-06,1.933123983209331101e-05
2.098412698412698507e+00,-5.756225439340614500e-06,1.212103016023302448e-05
2.099206349206349298e+00,-3.263461538043770211e-06,8.130158865315671249e-06
2.100000000000000089e+00,-4.041773222257054120e-07,8.127121102262404215e-06
2.100793650793650880e+00,2.626997715183182602e-06,1.190160755835133084e-05
2.101587301587301670e+00,5.562711502627369903e-06,1.818982204169574239e-05
2.102380952380952461e+00,8.075575187308243878e-06,2.493720651834404361e-05
2.103174603174603252e+00,9.818885756553110525e-06,2.991072570154424380e-05
2.103968253968254043e+00,1.049382089703596259e-05,3.149971228359360229e-05
2.104761904761904834e+00,9.931532092387485028e-06,2.937749064432379094e-05
2.105555555555555625e+00,8.166965014954104946e-06,2.466363165391166157e-05
2.106349206349206415e+00,5.472846744457980215e-06,1.941710290476966362e-05
2.107142857142857206e+00,2.327233029073673011e-06,1.563769956440650796e-05
2.107936507936507997e+00,-6.888614430030021849e-07,1.424296568327073288e-05
2.108730158730158788e+00,-3.036091017389699485e-06,1.452518240461200458e-05
2.109523809523809579e+00,-4.355810476598164680e-06,1.435867425667773992e-05
2.110317460317460370e+00,-4.557869351780581000e-06,1.107240771833651297e-05
2.111111111111111160e+00,-3.832119878086347829e-06,2.619285391653738024e-06
2.111904761904761951e+00,-2.584625463932479020e-06,-1.142433574498933713e-05
2.112698412698412742e+00,-1.320402950758870369e-06,-2.940569842705842310e-05
2.113492063492063533e+00,-5.065147455190839794e-07,-4.785338265767321165e-05
2.114285714285714324e+00,-4.528530261129410971e-07,-6.235469471253608017e-05
2.115079365079365115e+00,-1.243023970594891486e-06,-6.875200714465549479e-05
2.115873015873015905e+00,-2.733316673307207384e-06,-6.427645338424306434e-05
2.116666666666666696e+00,-4.615527428374360688e-06,-4.830973720550700882e-05
2.117460317460317487e+00,-6.516917642002443334e-06,-2.262530653578582012e-05
2.118253968253968278e+00,-8.098465021021514326e-06,8.887513110547372541e-06
2.119047619047619069e+00,-9.117321464219248418e-06,4.091545271836946948e-05
2.119841269841269860e+00,-9.438197651549322636e-06,6.767868945801223219e-05
2.120634920634920650e+00,-9.001295447198460464e-06,8.398339474224306904e-05
2.121428571428571441e+00,-7.771287560431142533e-06,8.619856501463282208e-05
2.122222222222222232e+00,-5.697301484186468744e-06,7.299952882556845599e-05
2.123015873015873023e+00,-2.707742966365730335e-06,4.575204066922135265e-05
2.123809523809523814e+00,1.250268539802381637e-06,8.465596821877123903e-06
2.124603174603174605e+00,6.134003903452524307e-06,-3.268949418871539963e-05
2.125396825396825395e+00,1.171364575995700709e-05,-7.025155604074811543e-05
2.126190476190476186e+00,1.750068446313657482e-05,-9.663711607668327562e-05
2.126984126984126977e+00,2.273443026422903353e-05,-1.054934935420333877e-04
2.127777777777777768e+00,2.645668333852235570e-05,-9.307189499829806559e-05
2.128571428571428559e+00,2.768253907185667264e-05,-5.938468414595534089e-05
2.129365079365079350e+00,2.564236113857810059e-05,-8.820527304208476433e-06
2.130158730158730140e+00,2.003490769503051593e-05,5.014951006564762049e-05
2.130952380952380931e+00,1.120863386333010510e-05,1.064123574779321540e-04
2.131746031746031722e+00,1.930987952074335496e-07,1.486549505061585802e-04
2.132539682539682513e+00,-1.145699766762295871e-05,1.681517660675808273e-04
2.133333333333333304e+00,-2.197704522795486837e-05,1.609456786402813794e-04
2.134126984126984095e+00,-2.977744751153178825e-05,1.286586957512764705e-04
2.134920634920634885e+00,-3.378237788797650135e-05,7.774345174818813719e-05
2.135714285714285676e+00,-3.362761977877976591e-05,1.757788315629078913e-05
2.136507936507936467e+00,-2.967763160226454566e-05,-4.187747442839453196e-05
2.137301587301587258e+00,-2.288224386973307468e-05,-9.215024424874587977e-05
2.138095238095238049e+00,-1.453390760473320182e-05,-1.275827466027099392e-04
2.138888888888888840e+00,-5.997365447406941816e-06,-1.457676439117871060e-04
2.139682539682539630e+00,1.528869203888918805e-06,-1.472320638966115422e-04
2.140476190476190421e+00,7.182341896230600670e-06,-1.346689010317944017e-04
2.141269841269841212e+00,1.052279649129847191e-05,-1.120273732194679479e-04
2.142063492063492003e+00,1.153679734614720133e-05,-8.368584551788013919e-05
2.142857142857142794e+00,1.057494428950964215e-05,-5.380894204793430666e-05
2.143650793650793585e+00,8.242536736933908591e-06,-2.589827430568345833e-05
2.144444444444444375e+00,5.266947337239981803e-06,-2.509738633144015232e-06
2.145238095238095166e+00,2.364515830478288179e-06,1.487915384314884672e-05
2.146031746031745957e+00,1.269612362347988600e-07,2.584602032443265765e-05
2.146825396825396748e+00,-1.058013703934626022e-06,3.083829164139797384e-05
2.147619047619047539e+00,-1.044063671518074278e-06,3.085096208921745445e-05
2.148412698412698330e+00,7.980722337239975198e-08,2.703974134765628433e-05
2.149206349206349120e+00,2.034060636645055474e-06,2.038443363129067857e-05
2.149999999999999911e+00,4.421868904375521712e-06,1.153609770286371092e-05
2.150793650793650702e+00,6.814704359204768930e-06,9.442399219308693779e-07
2.151587301587301493e+00,8.830909731470607541e-06,-1.076649187865054559e-05
2.152380952380952284e+00,1.019014335425998024e-05,-2.238165189052378836e-05
2.153174603174603075e+00,1.073512979303762510e-05,-3.195179467776413095e-05
2.153968253968253865e+00,1.042366164123075456e-05,-3.710735521739431280e-05
2.154761904761904656e+00,9.302867419704705137e-06,-3.574827148387007690e-05
2.155555555555555447e+00,7.480612255605544796e-06,-2.680205129859126176e-05
2.156349206349206238e+00,5.105610305354672479e-06,-1.073171734755143923e-05
2.157142857142857029e+00,2.361498298895511750e-06,1.037848492386308790e-05
2.157936507936507819e+00,-5.259514179503708342e-07,3.317702251736991749e-05
2.158730158730158610e+00,-3.274154166793594801e-06,5.376260046849998031e-05
2.159523809523809401e+00,-5.532142415824407172e-06,6.861778739642353188e-05
2.160317460317460192e+00,-6.887775045683839706e-06,7.552835911708859109e-05
2.161111111111110983e+00,-6.910939113797821267e-06,7.421160542664616527e-05
2.161904761904761774e+00,-5.242563264902509519e-06,6.643725680012465022e-05
2.162698412698412564e+00,-1.722065760159264732e-06,5.558267291071760291e-05
2.163492063492063355e+00,3.475140729153740105e-06,4.573386102112553633e-05
2.164285714285714146e+00,9.734703848432335496e-06,4.055906835194467830e-05
2.165079365079364937e+00,1.598496451943179621e-05,4.223655325670193329e-05
2.165873015873015728e+00,2.080458133665702132e-05,5.072193904503020917e-05
2.166666666666666519e+00,2.267272487587276530e-05,6.358409968742805083e-05
2.167460317460317309e+00,2.033700963996541955e-05,7.651446057100667300e-05
2.168253968253968100e+00,1.322297518920143117e-05,8.443591820476101792e-05
2.169047619047618891e+00,1.765607704992403576e-06,8.293814441409640169e-05
2.169841269841269682e+00,-1.246744232885043174e-05,6.961369403230741298e-05
2.170634920634920473e+00,-2.695363636464185355e-05,4.485755010096368337e-05
2.171428571428571264e+00,-3.870453274087389060e-05,1.186385942850525666e-05
2.172222222222222054e+00,-4.497010988995368174e-05,-2.416536743758219481e-05
2.173015873015872845e+00,-4.396654411175266201e-05,-5.733365023495968170e-05
2.173809523809523636e+00,-3.539368386309015062e-05,-8.249790518796239322e-05
2.174603174603174427e+00,-2.055802018414016181e-05,-9.647882411685575156e-05
2.175396825396825218e+00,-2.053683575462063410e-06,-9.875989798693728561e-05
2.176190476190476009e+00,1.688135874941266686e-05,-9.152796394500415994e-05
2.176984126984126799e+00,3.310526160532962543e-05,-7.904732485084270855e-05
2.177777777777777590e+00,4.417350576305654249e-05,-6.651168042733990662e-05
2.178571428571428381e+00,4.865950420182927748e-05,-5.866175048272223135e-05
2.179365079365079172e+00,4.618776589565928874e-05,-5.854217866780632857e-05
2.180158730158729963e+00,3.727744730491154421e-05,-6.674807030175087630e-05
2.180952380952380754e+00,2.312550846724922783e-05,-8.135931224245998778e-05
2.181746031746031544e+00,5.420561027604985243e-06,-9.852042974525497825e-05
2.182539682539682335e+00,-1.379421959367982380e-05,-1.134051811626635950e-04
2.183333333333333126e+00,-3.225376267049701918e-05,-1.212343789281412231e-04
2.184126984126983917e+00,-4.766096225271281440e-05,-1.181261637157556606e-04
2.184920634920634708e+00,-5.796018166054777733e-05,-1.017367440502381322e-04
2.185714285714285499e+00,-6.166431836624116389e-05,-7.173261728942484068e-05
2.186507936507936289e+00,-5.816303012778490901e-05,-3.006797093627372163e-05
2.187301587301587080e+00,-4.792310658783384354e-05,1.907959722450650402e-05
2.188095238095238315e+00,-3.250131040188116577e-05,6.988355836291263638e-05
2.188888888888889106e+00,-1.432939084373354356e-05,1.159620519072540877e-04
2.189682539682539897e+00,3.706507259810072848e-06,1.517263912993583165e-04
2.190476190476190688e+00,1.880873610671539081e-05,1.735264349636884041e-04
2.191269841269841478e+00,2.881196233623766070e-05,1.801828019244931767e-04
2.192063492063492269e+00,3.259914530582390266e-05,1.727739189954916380e-04
2.192857142857143060e+00,3.028891119783166404e-05,1.538887247953026885e-04
2.193650793650793851e+00,2.315766085981034859e-05,1.267693102913570536e-04
2.194444444444444642e+00,1.333873424208875316e-05,9.473076199348142465e-05
2.195238095238095433e+00,3.394367235288196927e-06,6.098071389992360149e-05
2.196031746031746223e+00,-4.141977198750976853e-06,2.864975485888223230e-05
2.196825396825397014e+00,-7.191242902053106269e-06,7.086052711014853882e-07
2.197619047619047805e+00,-4.495050841852697308e-06,-2.042601426439438430e-05
2.198412698412698596e+00,4.101011783983820579e-06,-3.351484847689047028e-05
2.199206349206349387e+00,1.749683863168282881e-05,-3.902536248777552040e-05
2.200000000000000178e+00,3.340088665605960033e-05,-3.918970687921321795e-05
2.200793650793650968e+00,4.868767540154192805e-05,-3.739603954955175654e-05
2.201587301587301759e+00,6.006637427751913751e-05,-3.705972378994591818e-05
2.202380952380952550e+00,6.494733845119031869e-05,-4.043535147292469330e-05
2.203174603174603341e+00,6.225132328673400970e-05,-4.791190099371456208e-05
2.203968253968254132e+00,5.284193897616486528e-05,-5.811198870154117682e-05
2.204761904761904923e+00,3.934103657335480636e-05,-6.871889081481141715e-05
2.205555555555555713e+00,2.529745954090004855e-05,-7.760093581317711495e-05
2.206349206349206504e+00,1.393786523564727652e-05,-8.366207524902600405e-05
2.207142857142857295e+00,6.928429056197112156e-06,-8.698375399447365861e-05
2.207936507936508086e+00,3.637499123923427910e-06,-8.819212039449042333e-05
2.208730158730158877e+00,1.268447071007447930e-06,-8.742941804328348125e-05
2.209523809523809668e+00,-4.069842239658970453e-06,-8.358723133063204313e-05
2.210317460317460458e+00,-1.569052178999885694e-05,-7.436843007760405384e-05
2.211111111111111249e+00,-3.471740738435709676e-05,-5.729030522061152311e-05
2.211904761904762040e+00,-5.924688200820770281e-05,-3.118196499452184308e-05
2.212698412698412831e+00,-8.468785727063205644e-05,2.599806462213005084e-06
2.213492063492063622e+00,-1.051622058171026124e-04,3.993138346315179007e-05
2.214285714285714413e+00,-1.153940860686957632e-04,7.491730463920562712e-05
2.215079365079365203e+00,-1.123553422877758724e-04,1.017829939374044766e-04
2.215873015873015994e+00,-9.610017828536388039e-05,1.168429336417504900e-04
2.216666666666666785e+00,-6.958928746487301898e-05,1.196107164224500527e-04
2.217460317460317576e+00,-3.768698267183428309e-05,1.125088970659771797e-04
2.218253968253968367e+00,-5.760011935136648124e-06,9.936164671425383108e-05
2.219047619047619158e+00,2.165051880685613971e-05,8.349057826080926055e-05
2.219841269841269948e+00,4.173164261808565427e-05,6.640198831497577377e-05
2.220634920634920739e+00,5.370712874767841124e-05,4.767932371094315088e-05
2.221428571428571530e+00,5.855656714032621106e-05,2.602191826572128108e-05
2.222222222222222321e+00,5.828960824730217225e-05,7.772329369206412635e-07
2.223015873015873112e+00,5.503201555310297899e-05,-2.688870346028111584e-05
2.223809523809523903e+00,5.024239631373122653e-05,-5.376420980573887875e-05
2.224603174603174693e+00,4.434260192945319750e-05,-7.534907363253117015e-05
2.225396825396825484e+00,3.688728384336370405e-05,-8.718946297997387930e-05
2.226190476190476275e+00,2.716450818984149216e-05,-8.625688244166811343e-05
2.226984126984127066e+00,1.491823901322806840e-05,-7.197120967316110939e-05
2.227777777777777857e+00,8.289463433218869099e-07,-4.665746319046837256e-05
2.228571428571428648e+00,-1.347903154931231378e-05,-1.535986460223642407e-05
2.229365079365079438e+00,-2.588933970711246202e-05,1.496234363436987428e-05
2.230158730158730229e+00,-3.447485688443232215e-05,3.674691222054415549e-05
2.230952380952381020e+00,-3.810210932231328229e-05,4.348622841981453349e-05
2.231746031746031811e+00,-3.672603559471207405e-05,3.150307614648842678e-05
2.232539682539682602e+00,-3.129782262530008156e-05,1.460244356045274947e-06
2.233333333333333393e+00,-2.336413869826289535e-05,-4.094551074911020948e-05
2.234126984126984183e+00,-1.453329419041390491e-05,-8.559386187385297211e-05
2.234920634920634974e+00,-5.996594248052825840e-06,-1.199541288085299200e-04
2.235714285714285765e+00,1.764102254874064202e-06,-1.320692685891760047e-04
2.236507936507936556e+00,9.030102216444819928e-06,-1.137148984030263052e-04
2.237301587301587347e+00,1.666502810263165892e-05,-6.289621035919000318e-05
2.238095238095238138e+00,2.573613770931147885e-05,1.495496315235343987e-05
2.238888888888888928e+00,3.700785608093591053e-05,1.074512539554301561e-04
2.239682539682539719e+00,5.042338301747998437e-05,1.974626681264610585e-04
2.240476190476190510e+00,6.473146329170525245e-05,2.667447156317234421e-04
2.241269841269841301e+00,7.742191219983590689e-05,3.001810319249106364e-04
2.242063492063492092e+00,8.508402687437558246e-05,2.895246019525030221e-04
2.242857142857142883e+00,8.419395367795878642e-05,2.355779768487748004e-04
2.243650793650793673e+00,7.218564171175026695e-05,1.481803583803511463e-04
2.244444444444444464e+00,4.850146618862896886e-05,4.399834264549389539e-05
2.245238095238095255e+00,1.522349470317808018e-05,-5.728381008760532041e-05
2.246031746031746046e+00,-2.305181351009962651e-05,-1.374111020785252280e-04
2.246825396825396837e+00,-6.017489864300823644e-05,-1.836080073653609604e-04
2.247619047619047628e+00,-8.996622721686474758e-05,-1.913362025131876826e-04
2.248412698412698418e+00,-1.077783201489139139e-04,-1.651035960026370761e-04
2.249206349206349209e+00,-1.115720153648421653e-04,-1.170138290317390499e-04
2.250000000000000000e+00,-1.022046183028866049e-04,-6.327634161001099880e-05
2.250793650793650791e+00,-8.293291109902594781e-05,-1.957263444889638198e-05
2.251587301587301582e+00,-5.838027714091742688e-05,3.298003641853143857e-06
2.252380952380952372e+00,-3.333059977028024896e-05,2.063559284811973546e-06
2.253174603174603163e+00,-1.168923716484483020e-05,-1.889401189691864347e-05
2.253968253968253954e+00,4.163352791716511292e-06,-4.978015792587105101e-05
2.254761904761904745e+00,1.354710822726800604e-05,-7.901335282861359931e-05
2.255555555555555536e+00,1.723952722484978193e-05,-9.688647157558709941e-05
2.256349206349206327e+00,1.695478002478676002e-05,-9.809656394228717310e-05
2.257142857142857117e+00,1.472198342429638005e-05,-8.254303009485396245e-05
2.257936507936507908e+00,1.232972948818393840e-05,-5.447306879549027861e-05
2.258730158730158699e+00,1.095813482770971067e-05,-2.057975487317705612e-05
2.259523809523809490e+00,1.105317163972796260e-05,1.213451311013739631e-05
2.260317460317460281e+00,1.242645459387262889e-05,3.804741819514221532e-05
2.261111111111111072e+00,1.450399271447342620e-05,5.381850127693423307e-05
2.261904761904761862e+00,1.661710585414475874e-05,5.851842015364958793e-05
2.262698412698412653e+00,1.823708199091832893e-05,5.322698198610880998e-05
2.263492063492063444e+00,1.909514064312049433e-05,4.040797140320596937e-05
2.264285714285714235e+00,1.918062082039126944e-05,2.331613252037053336e-05
2.265079365079365026e+00,1.865211231357928476e-05,5.556587821921129754e-06
2.265873015873015817e+00,1.771669236169034017e-05,-9.263533150206057374e-06
2.266666666666666607e+00,1.652995656232747977e-05,-1.797833638117659201e-05
2.267460317460317398e+00,1.514955194244741310e-05,-1.852380353583280725e-05
2.268253968253968189e+00,1.354723935757411640e-05,-1.066784995329265497e-05
2.269047619047618980e+00,1.166072216435624887e-05,3.600690042067786542e-06
2.269841269841269771e+00,9.455221565714387480e-06,2.040799982461244155e-05
2.270634920634920562e+00,6.967706057619698262e-06,3.507848940038990214e-05
2.271428571428571352e+00,4.319030175554348702e-06,4.356145255723287748e-05
2.272222222222222143e+00,1.693945237787693291e-06,4.362759881875441015e-05
2.273015873015872934e+00,-6.997060479503894599e-07,3.542045802742247742e-05
2.273809523809523725e+00,-2.676307314673737377e-06,2.125815051665776734e-05
2.274603174603174516e+00,-4.107655330995122289e-06,4.845447271272791482e-06
2.275396825396825307e+00,-4.939715487083384747e-06,-9.802714307964989580e-06
2.276190476190476097e+00,-5.190420328678996372e-06,-1.939902101996576856e-05
2.276984126984126888e+00,-4.934139126633958166e-06,-2.212121321436150427e-05
2.277777777777777679e+00,-4.281187014882445162e-06,-1.791390206737489139e-05
2.278571428571428470e+00,-3.359783027114479416e-06,-8.355187292560987511e-06
2.279365079365079261e+00,-2.304256218008414326e-06,3.820264887143842159e-06
2.280158730158730052e+00,-1.248959921386781091e-06,1.541727239815531683e-05
2.280952380952380842e+00,-3.242455830960360926e-07,2.356099495334108157e-05
2.281746031746031633e+00,3.499504621185513288e-07,2.640478790607545282e-05
2.282539682539682424e+00,6.760094012834641028e-07,2.358569526842679742e-05
2.283333333333333215e+00,5.963803387803613487e-07,1.627904113179277004e-05
2.284126984126984006e+00,1.138309539265007283e-07,6.807989074467923705e-06
2.284920634920634797e+00,-6.931542651804531656e-07,-2.093082824322251434e-06
2.285714285714285587e+00,-1.669357503136489786e-06,-8.141439409068041108e-06
2.286507936507936378e+00,-2.603376552421204493e-06,-1.022136048561778412e-05
2.287301587301587169e+00,-3.269711777652721956e-06,-8.709165276992108742e-06
2.288095238095237960e+00,-3.483450865364130294e-06,-5.279066750830633409e-06
2.288888888888888751e+00,-3.152377422182359133e-06,-2.241439874686489980e-06
2.289682539682539542e+00,-2.310453911098181646e-06,-1.657560708591241704e-06
2.290476190476190332e+00,-1.121289493480725996e-06,-4.578828301509696317e-06
2.291269841269841123e+00,1.512409649538589948e-07,-1.069309997887163320e-05
2.292063492063491914e+00,1.198457568885214723e-06,-1.845856621535735782e-05
2.292857142857142705e+00,1.734382353146902733e-06,-2.560043766203964809e-05
2.293650793650793496e+00,1.558898445224890411e-06,-2.975069540065930574e-05
2.294444444444444287e+00,6.029695337185449367e-07,-2.903535520721776085e-05
2.295238095238095077e+00,-1.051976955706059129e-06,-2.249490629368746490e-05
2.296031746031745868e+00,-3.182832708809992940e-06,-1.030077116233682764e-05
2.296825396825396659e+00,-5.460040899911553617e-06,6.224626952861140302e-06
2.297619047619047450e+00,-7.504340703649577112e-06,2.476565886107239046e-05
2.298412698412698241e+00,-8.956598654595590713e-06,4.233668407592234163e-05
2.299206349206349032e+00,-9.548551041574602699e-06,5.575341860549439720e-05
2.299999999999999822e+00,-9.159437045767585857e-06,6.219894547228701272e-05
2.300793650793650613e+00,-7.843490979870818423e-06,5.977372249106785277e-05
2.301587301587301404e+00,-5.818137018471977413e-06,4.788586507519795128e-05
2.302380952380952195e+00,-3.412952244424022747e-06,2.737384872834333985e-05
2.303174603174602986e+00,-9.921645339668576069e-07,3.553677074825000683e-07
2.303968253968253777e+00,1.126871779996213634e-06,-3.010158079353625235e-05
2.304761904761904567e+00,2.735141950056326631e-06,-6.036105386682803125e-05
2.305555555555555358e+00,3.757026895120160550e-06,-8.658741650184590050e-05
2.306349206349206149e+00,4.236166572254425470e-06,-1.051138877853578638e-04
2.307142857142856940e+00,4.292407739965703948e-06,-1.128658733974408209e-04
2.307936507936507731e+00,4.067553804837801511e-06,-1.078641780782161773e-04
2.308730158730158522e+00,3.678059843536088960e-06,-8.974208595309844834e-05
2.309523809523809312e+00,3.187801815520903786e-06,-6.010001570708620937e-05
2.310317460317460103e+00,2.606258250710218383e-06,-2.247800173581116515e-05
2.311111111111110894e+00,1.909416890981212656e-06,1.817155789737888108e-05
2.311904761904761685e+00,1.074288055388874314e-06,5.640884892925541701e-05
2.312698412698412920e+00,1.141506814145072543e-07,8.733849065386607062e-05
2.313492063492063711e+00,-8.987359639653732767e-07,1.074371421983538082e-04
2.314285714285714501e+00,-1.832986627793213901e-06,1.150093036970421470e-04
2.315079365079365292e+00,-2.524143293689388605e-06,1.102796897270142101e-04
2.315873015873016083e+00,-2.822028348841803539e-06,9.521026734757405614e-05
2.316666666666666874e+00,-2.645564473982454782e-06,7.310006747453793490e-05
2.317460317460317665e+00,-2.025220696620997344e-06,4.798133433625156885e-05
2.318253968253968456e+00,-1.114338320145127401e-06,2.385434086447046459e-05
2.319047619047619246e+00,-1.602816720683956938e-07,3.892339729459982514e-06
2.319841269841270037e+00,5.589264779437674663e-07,-1.018353528698606100e-05
2.320634920634920828e+00,8.136004326735080951e-07,-1.837047865807694532e-05
2.321428571428571619e+00,4.916518062943712381e-07,-2.219357576945030482e-05
2.322222222222222410e+00,-3.650551496071202287e-07,-2.409658748136264068e-05
2.323015873015873201e+00,-1.570429312846929034e-06,-2.658203780381947283e-05
2.323809523809523991e+00,-2.848259840746204174e-06,-3.134775614344943208e-05
2.324603174603174782e+00,-3.913905175379519623e-06,-3.867077873570281502e-05
2.325396825396825573e+00,-4.556903702159845735e-06,-4.722110175224206982e-05
2.326190476190476364e+00,-4.697368994671407533e-06,-5.437109580069565570e-05
2.326984126984127155e+00,-4.398473484759920119e-06,-5.693512754309823065e-05
2.327777777777777946e+00,-3.832866839932648348e-06,-5.215853608336619960e-05
2.328571428571428736e+00,-3.216155787010699335e-06,-3.869369529334862941e-05
2.329365079365079527e+00,-2.729906145231776229e-06,-1.726710769357293741e-05
2.330158730158730318e+00,-2.457515082900805192e-06,9.217103387385675197e-06
2.330952380952381109e+00,-2.350132398151743999e-06,3.624379449311405086e-05
2.331746031746031900e+00,-2.230521946569635860e-06,5.879386800792559117e-05
2.332539682539682691e+00,-1.833933241560383567e-06,7.264097825624044079e-05
2.333333333333333481e+00,-8.777990628238197686e-07,7.540927616867501473e-05
2.334126984126984272e+00,8.541528829860148354e-07,6.707504676031215203e-05
2.334920634920635063e+00,3.432601983305260575e-06,4.982013309096416031e-05
2.335714285714285854e+00,6.728592560336105588e-06,2.735794228846179932e-05
2.336507936507936645e+00,1.040085848226103668e-05,3.975105396044489505e-06
2.337301587301587436e+00,1.393157413543889566e-05,-1.644138716119312706e-05
2.338095238095238226e+00,1.670711472416974724e-05,-3.116283844426916350e-05
2.338888888888889017e+00,1.813135107115163819e-05,-3.901830997411251774e-05
2.339682539682539808e+00,1.775201848191289151e-05,-4.039353228584436619e-05
2.340476190476190599e+00,1.537565626500959104e-05,-3.688654113884627645e-05
2.341269841269841390e+00,1.114471813875434863e-05,-3.075063771811949073e-05
2.342063492063492181e+00,5.554179214722623603e-06,-2.428881231938944603e-05
2.342857142857142971e+00,-6.042867896312614870e-07,-1.934842068821336229e-05
2.343650793650793762e+00,-6.366783785424582588e-06,-1.700694542627143933e-05
2.344444444444444553e+00,-1.077088179999366051e-05,-1.746630248663430388e-05
2.345238095238095344e+00,-1.304757559855341154e-05,-2.011835806844571581e-05
2.346031746031746135e+00,-1.279379873683051737e-05,-2.372921280921360301e-05
2.346825396825396925e+00,-1.008500373465575194e-05,-2.671013744068567375e-05
2.347619047619047716e+00,-5.491119448763330066e-06,-2.746677622600860767e-05
2.348412698412698507e+00,2.431179585224079409e-08,-2.480638989132433067e-05
2.349206349206349298e+00,5.310156949693866522e-06,-1.832913441575920367e-05
2.350000000000000089e+00,9.289046945512481889e-06,-8.674255946273502039e-06
2.350793650793650880e+00,1.119948464088954242e-05,2.510913829334520888e-06
2.351587301587301670e+00,1.074942553019244421e-05,1.293953639914174414e-05
2.352380952380952461e+00,8.146016618907225176e-06,2.032625184568046754e-05
2.353174603174603252e+00,4.009334897523579598e-06,2.310847820554929615e-05
2.353968253968254043e+00,-7.915072001571046327e-07,2.099038728363076040e-05
2.354761904761904834e+00,-5.332380892829162783e-06,1.508928271061151867e-05
2.355555555555555625e+00,-8.817345135620241768e-06,7.596624453674146653e-06
2.356349206349206415e+00,-1.072173751298508143e-05,1.042927079842619774e-06
2.357142857142857206e+00,-1.087563107106294498e-05,-2.581749293248061827e-06
2.357936507936507997e+00,-9.475457213345422433e-06,-2.503729886668548332e-06
2.358730158730158788e+00,-7.020417989198243487e-06,6.811278301596812500e-07
2.359523809523809579e+00,-4.184383954799656847e-06,5.495051878459691819e-06
2.360317460317460370e+00,-1.651480426116985969e-06,1.049774628797962004e-05
2.361111111111111160e+00,4.346872566466002909e-08,1.515771402349261180e-05
2.361904761904761951e+00,6.281602438067390236e-07,2.018050533819830549e-05
2.362698412698412742e+00,1.320996918739185828e-07,2.707333473403171508e-05
2.363492063492063533e+00,-1.153316929608354029e-06,3.712327398716195497e-05
2.364285714285714324e+00,-2.776847226472144036e-06,5.026632007229743830e-05
2.365079365079365115e+00,-4.258724045793317787e-06,6.440107142411836483e-05
2.365873015873015905e+00,-5.212908479339298151e-06,7.554700584004493279e-05
2.366666666666666696e+00,-5.427727171116778023e-06,7.891930344791528136e-05
2.367460317460317487e+00,-4.887651742906672836e-06,7.058666005142697202e-05
2.368253968253968278e+00,-3.738988398620888872e-06,4.906441619151507888e-05
2.369047619047619069e+00,-2.220111178518575835e-06,1.616687140030100478e-05
2.369841269841269860e+00,-5.859245941277946503e-07,-2.324651233352111485e-05
2.370634920634920650e+00,9.472554766485249267e-07,-6.251843603722516624e-05
2.371428571428571441e+00,2.224799200136679274e-06,-9.494118997833948131e-05
2.372222222222222232e+00,3.151874449990028849e-06,-1.153891667675937421e-04
2.373015873015873023e+00,3.686341617021531845e-06,-1.213554791219129266e-04
2.373809523809523814e+00,3.844970372028839061e-06,-1.131896260028403207e-04
2.374603174603174605e+00,3.725151463671596901e-06,-9.362167945745804710e-05
2.375396825396825395e+00,3.521807693098341959e-06,-6.685621916185026002e-05
2.376190476190476186e+00,3.507677804425497950e-06,-3.757262414950735864e-05
2.376984126984126977e+00,3.958274849936768889e-06,-1.008259555315303016e-05
2.377777777777777768e+00,5.037171855791747847e-06,1.225855382200595912e-05
2.378571428571428559e+00,6.690848804277590449e-06,2.740902787668727107e-05
2.379365079365079350e+00,8.609934690291783988e-06,3.480441657734273782e-05
2.380158730158730140e+00,1.028616463043322231e-05,3.530946104401888396e-05
2.380952380952380931e+00,1.114725533336622279e-05,3.090896069621245848e-05
2.381746031746031722e+00,1.071623851482952705e-05,2.415153708702218833e-05
2.382539682539682513e+00,8.739854697730215508e-06,1.747576815788347743e-05
2.383333333333333304e+00,5.256117056498862165e-06,1.262367126468982013e-05
2.384126984126984095e+00,5.982384199612275711e-07,1.032321429771263104e-05
2.384920634920634885e+00,-4.655977424510553588e-06,1.031072664776893822e-05
2.385714285714285676e+00,-9.778745490045209242e-06,1.162933399473949878e-05
2.386507936507936467e+00,-1.401754289695195387e-05,1.305460495902622690e-05
2.387301587301587258e+00,-1.673030443155622813e-05,1.349608574906667348e-05
2.388095238095238049e+00,-1.750387339019145280e-05,1.227735397781264234e-05
2.388888888888888840e+00,-1.623018029742043841e-05,9.259862237850177322e-06
2.389682539682539630e+00,-1.312365628898862812e-05,4.820255727952903016e-06
2.390476190476190421e+00,-8.676915028803141157e-06,-2.836145005891599620e-07
2.391269841269841212e+00,-3.565589105426089737e-06,-5.108300215681043614e-06
2.392063492063492003e+00,1.476174267819449620e-06,-8.726008631537239587e-06
2.392857142857142794e+00,5.783213982392797197e-06,-1.038103376566873229e-05
2.393650793650793585e+00,8.865043273620959422e-06,-9.572382097054658818e-06
2.394444444444444375e+00,1.047135985093749698e-05,-6.068267839335973823e-06
2.395238095238095166e+00,1.060823180803351678e-05,1.073430858471009492e-07
2.396031746031745957e+00,9.506024893913411219e-06,8.661107018769763862e-06
2.396825396825396748e+00,7.549568929895370521e-06,1.895287692249991056e-05
2.397619047619047539e+00,5.187687770589286543e-06,2.986843350400655918e-05
2.398412698412698330e+00,2.841605902878579475e-06,3.972467658113125011e-05
2.399206349206349120e+00,8.299398661261546214e-07,4.634149732026771290e-05
2.399999999999999911e+00,-6.768066617832606254e-07,4.739440658049170042e-05
2.400793650793650702e+00,-1.665722311552925672e-06,4.103629267027656844e-05
2.401587301587301493e+00,-2.255493432244038812e-06,2.659978009619574726e-05
2.402380952380952284e+00,-2.642601583249268493e-06,5.089963059321489142e-06
2.403174603174603075e+00,-3.033527005182344880e-06,-2.076406236094032495e-05
2.403968253968253865e+00,-3.580234896682163911e-06,-4.694854045764840038e-05
2.404761904761904656e+00,-4.335357804114011335e-06,-6.895690719271661384e-05
2.405555555555555447e+00,-5.238100232139999168e-06,-8.269802103061251353e-05
2.406349206349206238e+00,-6.133610336698620319e-06,-8.529725848816174945e-05
2.407142857142857029e+00,-6.819756228243490154e-06,-7.564576871487196095e-05
2.407936507936507819e+00,-7.107995772282029656e-06,-5.463527496282905021e-05
2.408730158730158610e+00,-6.881200360083545300e-06,-2.506371162247198907e-05
2.409523809523809401e+00,-6.132348020372940826e-06,8.782783519569935477e-06
2.410317460317460192e+00,-4.973840457106543442e-06,4.183591579410508193e-05
2.411111111111110983e+00,-3.615703947219904135e-06,6.913241668015801674e-05
2.411904761904761774e+00,-2.319176314167630800e-06,8.668584412424678025e-05
2.412698412698412564e+00,-1.337809587370522357e-06,9.212102148753280317e-05
2.413492063492063355e+00,-8.599507159448995250e-07,8.494306450903257248e-05
2.414285714285714146e+00,-9.642454720997980648e-07,6.646680742315876599e-05
2.415079365079364937e+00,-1.594922480135991127e-06,3.952597460639560616e-05
2.415873015873015728e+00,-2.558402734516093261e-06,8.066039554967893173e-06
2.416666666666666519e+00,-3.539819444129412014e-06,-2.334655323218685460e-05
2.417460317460317309e+00,-4.138690101333393286e-06,-5.011603490216463342e-05
2.418253968253968100e+00,-3.925897688582681641e-06,-6.831272550242253503e-05
2.419047619047618891e+00,-2.524820317261288341e-06,-7.539505751084004943e-05
2.419841269841269682e+00,2.874724738851739841e-07,-7.077683466864850251e-05
2.420634920634920473e+00,4.478566244761488272e-06,-5.600983379489440060e-05
2.421428571428571264e+00,9.694615353086003917e-06,-3.443265750982405101e-05
2.422222222222222054e+00,1.526938547835033274e-05,-1.033993792190246587e-05
2.423015873015872845e+00,2.032900297948336401e-05,1.206505877055436702e-05
2.423809523809523636e+00,2.397597412443903435e-05,2.959649433314065741e-05
2.424603174603174427e+00,2.550001251806334080e-05,4.063982628597836164e-05
2.425396825396825218e+00,2.454942666315888285e-05,4.523593985191278372e-05
2.426190476190476009e+00,2.121258897999010436e-05,4.472625255005545174e-05
2.426984126984126799e+00,1.599295054549776366e-05,4.108505799638145745e-05
2.427777777777777590e+00,9.694021607663365697e-06,3.614689979009673600e-05
2.428571428571428381e+00,3.250039307789461579e-06,3.098218641810559799e-05
2.429365079365079172e+00,-2.457455721512078400e-06,2.564127049978707346e-05
2.430158730158729963e+00,-6.761199316902243627e-06,1.936355108099064567e-05
2.430952380952380754e+00,-9.319079373889136296e-06,1.116506263007510071e-05
2.431746031746031544e+00,-1.015381916873106668e-05,5.440287861175913856e-07
2.432539682539682335e+00,-9.612913688574097333e-06,-1.202659651954272529e-05
2.433333333333333126e+00,-8.257311759789908730e-06,-2.505221896307360113e-05
2.434126984126983917e+00,-6.706522169502788093e-06,-3.642320271294479175e-05
2.434920634920634708e+00,-5.481638629228997480e-06,-4.407135227341813736e-05
2.435714285714285499e+00,-4.888661640223443972e-06,-4.659326566720806010e-05
2.436507936507936289e+00,-4.970738180369328933e-06,-4.362156137831976039e-05
2.437301587301587080e+00,-5.535379816688051666e-06,-3.586278093802291057e-05
2.438095238095238315e+00,-6.240573952602081579e-06,-2.485259905935783664e-05
2.438888888888889106e+00,-6.709313596261326662e-06,-1.255457417752698141e-05
2.439682539682539897e+00,-6.638694523271481047e-06,-9.363818576345361879e-07
2.440476190476190688e+00,-5.876638482953900796e-06,8.381007756494685522e-06
2.441269841269841478e+00,-4.452480900151850878e-06,1.435486561672250151e-05
2.442063492063492269e+00,-2.561533673139178973e-06,1.662211250844825461e-05
2.442857142857143060e+00,-5.140508298206418526e-07,1.547915403525227117e-05
2.443650793650793851e+00,1.335430497635052514e-06,1.176059744731215901e-05
2.444444444444444642e+00,2.661011705085593123e-06,6.646569022645253279e-06
2.445238095238095433e+00,3.225611040743117573e-06,1.433704864171708397e-06
2.446031746031746223e+00,2.919204718009551464e-06,-2.695102630877090597e-06
2.446825396825397014e+00,1.773286722681268109e-06,-4.871554941647181453e-06
2.447619047619047805e+00,-4.508053158298539249e-08,-4.689650281867536785e-06
2.448412698412698596e+00,-2.255746332399829827e-06,-2.283634242816256803e-06
2.449206349206349387e+00,-4.503446224861212189e-06,1.674609579231712156e-06
2.450000000000000178e+00,-6.411883671722295621e-06,6.064764913142274463e-06
2.450793650793650968e+00,-7.651168294232198075e-06,9.494036113869850420e-06
2.451587301587301759e+00,-8.007878941114062059e-06,1.055009541550531953e-05
2.452380952380952550e+00,-7.439291372224777676e-06,8.105339335369356546e-06
2.453174603174603341e+00,-6.091927184527565576e-06,1.626754773399893130e-06
2.453968253968254132e+00,-4.272481494595321185e-06,-8.571149125996041488e-06
2.454761904761904923e+00,-2.374023189308727204e-06,-2.119873567150640237e-05
2.455555555555555713e+00,-7.759113026764885566e-07,-3.404974850868188065e-05
2.456349206349206504e+00,2.543808445308319711e-07,-4.428570710536682036e-05
2.457142857142857295e+00,6.289666887392590192e-07,-4.894727479726588589e-05
2.457936507936508086e+00,4.568752361742425940e-07,-4.563318981860132280e-05
2.458730158730158877e+00,5.695535878123356123e-09,-3.321345831315484484e-05
2.459523809523809668e+00,-3.817133647693951465e-07,-1.238061378818304650e-05
2.460317460317460458e+00,-3.916581775437219954e-07,1.417348556150401715e-05
2.461111111111111249e+00,1.650437880623478757e-07,4.210093784495006267e-05
2.461904761904762040e+00,1.294707989144858663e-06,6.624997380305816498e-05
2.462698412698412831e+00,2.816046535906961955e-06,8.182675761014800966e-05
2.463492063492063622e+00,4.408736690358245525e-06,8.554757042246098782e-05
2.464285714285714413e+00,5.698593061135040857e-06,7.646759366531693657e-05
2.465079365079365203e+00,6.352853963351477760e-06,5.627669111486517385e-05
2.465873015873015994e+00,6.158724428308220992e-06,2.899271898158964036e-05
2.466666666666666785e+00,5.066627608628835671e-06,1.205805954340624304e-07
2.467460317460317576e+00,3.193109663095571130e-06,-2.453504336926713622e-05
2.468253968253968367e+00,7.914204641130808749e-07,-4.013665002694232370e-05
2.469047619047619158e+00,-1.795349833688368664e-06,-4.388213091719684006e-05
2.469841269841269948e+00,-4.185420236211044945e-06,-3.564971670923777883e-05
2.470634920634920739e+00,-6.007757413545118949e-06,-1.808226138954456181e-05
2.471428571428571530e+00,-6.950094352685033248e-06,3.937976688192305661e-06
2.472222222222222321e+00,-6.806460024717099586e-06,2.438120806672360908e-05
2.473015873015873112e+00,-5.520082660119721419e-06,3.755930735383220860e-05
2.473809523809523903e+00,-3.211148613302741966e-06,3.967553792670995973e-05
2.474603174603174693e+00,-1.768106853369961639e-07,2.996592790521797927e-05
2.475396825396825484e+00,3.144152284134098895e-06,1.099176310910305538e-05
2.476190476190476275e+00,6.239470055480974577e-06,-1.211108690779401717e-05
2.476984126984127066e+00,8.611533676984292333e-06,-3.323636944807239346e-05
2.477777777777777857e+00,9.866824747278985766e-06,-4.723120785507254542e-05
2.478571428571428648e+00,9.787406261431142563e-06,-5.147278835853451155e-05
2.479365079365079438e+00,8.369510520183719878e-06,-4.657241786337131971e-05
2.480158730158730229e+00,5.822169202125046427e-06,-3.600879064727898252e-05
2.480952380952381020e+00,2.528546606179840226e-06,-2.484596265972377268e-05
2.481746031746031811e+00,-1.019277816800166321e-06,-1.795604882850110321e-05
2.482539682539682602e+00,-4.298018170463565701e-06,-1.830304285166201177e-05
2.483333333333333393e+00,-6.830708036246337107e-06,-2.584004173521014996e-05
2.484126984126984183e+00,-8.254467265078159610e-06,-3.741188011085708225e-05
2.484920634920634974e+00,-8.371258031815088493e-06,-4.774815924686343516e-05
2.485714285714285765e+00,-7.175816201901048853e-06,-5.124804605303505075e-05
2.486507936507936556e+00,-4.856420260437292627e-06,-4.393079535407725056e-05
2.487301587301587347e+00,-1.766395568066424911e-06,-2.481808939197014302e-05
2.488095238095238138e+00,1.631970821689695871e-06,3.764492608364851811e-06
2.488888888888888928e+00,4.843814653560866048e-06,3.699954937599306444e-05
2.489682539682539719e+00,7.425215927058723459e-06,6.906533884628290453e-05
2.490476190476190510e+00,9.057347197594540559e-06,9.466331206151398390e-05
2.491269841269841301e+00,9.595543719422562455e-06,1.100703632781625379e-04
2.492063492063492092e+00,9.082407104786011001e-06,1.134950527306193197e-04
2.492857142857142883e+00,7.722209199754358609e-06,1.048342359494033730e-04
2.493650793650793673e+00,5.824241281295987406e-06,8.515982853576369483e-05
2.494444444444444464e+00,3.732433564983380088e-06,5.631667926112136365e-05
2.495238095238095255e+00,1.762912302158677475e-06,2.083428840038228461e-05
2.496031746031746046e+00,1.666499377432840206e-07,-1.795461815286519651e-05
2.496825396825396837e+00,-8.780516738450519869e-07,-5.591109867112708951e-05
2.497619047619047628e+00,-1.252873887185156466e-06,-8.847283299889321386e-05
2.498412698412698418e+00,-8.851322291741113525e-07,-1.114223311157784503e-04
2.499206349206349209e+00,2.503340185462536745e-07,-1.217731008690426119e-04
2.500000000000000000e+00,2.104671771962617929e-06,-1.184244762381964783e-04
2.500793650793650791e+00,4.510370340619147657e-06,-1.023501369032178687e-04
2.501587301587301582e+00,7.139597753017121933e-06,-7.628785079699197723e-05
2.502380952380952372e+00,9.494492230391142327e-06,-4.407447162839897835e-05
2.503174603174603163e+00,1.095362029579637452e-05,-9.859986501176581477e-06
2.503968253968253954e+00,1.088020291447389695e-05,2.257200525164804430e-05
2.504761904761904745e+00,8.770935400567361135e-06,5.023069467605600306e-05
2.505555555555555536e+00,4.401761228082012593e-06,7.105890378171821618e-05
2.506349206349206327e+00,-2.076879010816354110e-06,8.385726560210310300e-05
2.507142857142857117e+00,-1.012242679937085492e-05,8.811560111002614075e-05
2.507936507936507908e+00,-1.885433453715786606e-05,8.387364294088685171e-05
2.508730158730158699e+00,-2.715084410574402141e-05,7.168477537919109731e-05
2.509523809523809490e+00,-3.375901712736470510e-05,5.268514460797818109e-05
2.510317460317460281e+00,-3.740480339049891210e-05,2.870676213526123823e-05
2.511111111111111072e+00,-3.690889128667700368e-05,2.338863124397396330e-06
2.511904761904761862e+00,-3.132800642563109340e-05,-2.316191570041050763e-05
2.512698412698412653e+00,-2.014362015031755961e-05,-4.419127302555458188e-05
2.513492063492063444e+00,-3.501434601841710717e-06,-5.737052775580433724e-05
2.514285714285714235e+00,1.753554820612829651e-05,-6.029336408947087993e-05
2.515079365079365026e+00,4.080659100257444345e-05,-5.224093433001804571e-05
2.515873015873015817e+00,6.306754071803777958e-05,-3.459249758073134826e-05
2.516666666666666607e+00,8.031849251325398837e-05,-1.071791800582475122e-05
2.517460317460317398e+00,8.849330913798747424e-05,1.468436578176196271e-05
2.518253968253968189e+00,8.442004306497245412e-05,3.663322101574622490e-05
2.519047619047618980e+00,6.680388262655721332e-05,5.098979694346529015e-05
2.519841269841269771e+00,3.689966591446194627e-05,5.534733100231896202e-05
2.520634920634920562e+00,-1.406834668574755474e-06,4.946967608610086458e-05
2.521428571428571352e+00,-4.221588576720788037e-05,3.520951725825755593e-05
2.522222222222222143e+00,-7.881655124283752179e-05,1.597444158506364042e-05
2.523015873015872934e+00,-1.051758335215863147e-04,-4.094782136594616020e-06
2.523809523809523725e+00,-1.173122953678315701e-04,-2.102194679526954270e-05
2.524603174603174516e+00,-1.141674414478789228e-04,-3.176416590039390957e-05
2.525396825396825307e+00,-9.773019517058057154e-05,-3.471043437649026005e-05
2.526190476190476097e+00,-7.239774626756927047e-05,-2.986473411754964191e-05
2.526984126984126888e+00,-4.378243822585979047e-05,-1.874188556314520634e-05
2.527777777777777679e+00,-1.731410821509119221e-05,-4.021315708773528018e-06
2.528571428571428470e+00,2.996151766085508769e-06,1.100357675689949219e-05
2.529365079365079261e+00,1.535274736056890316e-05,2.311318616963603298e-05
2.530158730158730052e+00,2.039519978559739153e-05,2.984742561074932201e-05
2.530952380952380842e+00,2.083973305256961247e-05,3.000534445519144268e-05
2.531746031746031633e+00,2.064212425365449802e-05,2.381850443558251556e-05
2.532539682539682424e+00,2.384845164429632596e-05,1.277180553462497417e-05
2.533333333333333215e+00,3.335732972270784931e-05,-8.425036203886356398e-07
2.534126984126984006e+00,4.986797745869003313e-05,-1.449043588142962213e-05
2.534920634920634797e+00,7.130422364898293956e-05,-2.592672139010415559e-05
2.535714285714285587e+00,9.294869778131914029e-05,-3.356908328982379208e-05
2.536507936507936378e+00,1.083809957213497218e-04,-3.665897616540398968e-05
2.537301587301587169e+00,1.111038322546917544e-04,-3.522450352699842390e-05
2.538095238095237960e+00,9.650116370186718280e-05,-2.991307226962731773e-05
2.538888888888888751e+00,6.357548786722850903e-05,-2.177232463724897878e-05
2.539682539682539542e+00,1.586221484069762224e-05,-1.203510334918534389e-05
2.540476190476190332e+00,-3.890372383541980145e-05,-1.932285495741541469e-06
2.541269841269841123e+00,-9.041062463435748590e-05,7.461384687500656058e-06
2.542063492063491914e+00,-1.282728501039088651e-04,1.534031650326563180e-05
2.542857142857142705e+00,-1.446766165528827453e-04,2.121600902084826870e-05
2.543650793650793496e+00,-1.363685714911081457e-04,2.487140944996234492e-05
2.544444444444444287e+00,-1.054132691328986133e-04,2.622260254295438801e-05
2.545238095238095077e+00,-5.856229509874464088e-05,2.514974957987550121e-05
2.546031746031745868e+00,-5.509928392448919882e-06,2.141696106941610008e-05
2.546825396825396659e+00,4.340940360937465165e-05,1.480216550045916229e-05
2.547619047619047450e+00,7.947134681970388160e-05,5.458559191636620236e-06
2.548412698412698241e+00,9.727170921117094860e-05,-5.657756890838690905e-06
2.549206349206349032e+00,9.560239266565365157e-05,-1.661526030402283937e-05
2.549999999999999822e+00,7.738491337475338376e-05,-2.486684864944768429e-05
2.550793650793650613e+00,4.871546630889684768e-05,-2.813017910513514194e-05
2.551587301587301404e+00,1.723295468514080383e-05,-2.541781118165791059e-05
2.552380952380952195e+00,-9.824334360528438683e-06,-1.767725579920432171e-05
2.553174603174602986e+00,-2.739906371401301831e-05,-7.650423733885373113e-06
2.553968253968253777e+00,-3.375905920584902452e-05,1.045387658653872689e-06
2.554761904761904567e+00,-3.067842874174003408e-05,5.202249466492730509e-06
2.555555555555555358e+00,-2.259465828100192745e-05,3.089821829845364220e-06
2.556349206349206149e+00,-1.499201204226872549e-05,-5.094431989261078193e-06
2.557142857142856940e+00,-1.251962641624926534e-05,-1.742069508547846920e-05
2.557936507936507731e+00,-1.745743827202484840e-05,-3.082002797918957578e-05
2.558730158730158522e+00,-2.902979281451863812e-05,-4.180563430391469440e-05
2.559523809523809312e+00,-4.375951132606635980e-05,-4.719481559132879652e-05
2.560317460317460103e+00,-5.668118586478159532e-05,-4.481215939578622650e-05
2.561111111111110894e+00,-6.295349441640368370e-05,-3.411778008950922328e-05
2.561904761904761685e+00,-5.932764307525078168e-05,-1.657541386564628566e-05
2.562698412698412920e+00,-4.504259759974690261e-05,4.494705641903661291e-06
2.563492063492063711e+00,-2.195265209609537907e-05,2.470881598734055737e-05
2.564285714285714501e+00,6.052635260246626220e-06,3.987549488909680490e-05
2.565079365079365292e+00,3.408778630208182301e-05,4.723341819079102382e-05
2.565873015873016083e+00,5.744026278353982066e-05,4.616809826667016021e-05
2.566666666666666874e+00,7.256180290890828989e-05,3.820085063941890249e-05
2.567460317460317665e+00,7.767848910947766162e-05,2.640674747670112454e-05
2.568253968253968456e+00,7.296136671039274598e-05,1.456744417511928882e-05
2.569047619047619246e+00,6.032838831408705095e-05,6.273457617332512147e-06
2.569841269841270037e+00,4.300570138749013288e-05,4.060336326680911748e-06
2.570634920634920828e+00,2.495416864065956469e-05,8.659405030131502162e-06
2.571428571428571619e+00,1.021131808734185067e-05,1.853798645573857535e-05
2.572222222222222410e+00,2.169062900106453625e-06,2.995773955768129120e-05
2.573015873015873201e+00,2.836966470646453247e-06,3.769841219996520471e-05
2.573809523809523991e+00,1.222222128701681983e-05,3.638851126191188000e-05
2.574603174603174782e+00,2.804184339310497611e-05,2.214606647757735701e-05
2.575396825396825573e+00,4.599239750161144983e-05,-5.921195866484481023e-06
2.576190476190476364e+00,6.067312900938543629e-05,-4.480855159368963723e-05
2.576984126984127155e+00,6.699867375362252540e-05,-8.763274418080582240e-05
2.577777777777777946e+00,6.166567024177947590e-05,-1.247403249931211479e-04
2.578571428571428736e+00,4.413306335324596112e-05,-1.458405282059693330e-04
2.579365079365079527e+00,1.674745302298428977e-05,-1.427443193294087957e-04
2.580158730158730318e+00,-1.598281474372941597e-05,-1.119083284493656327e-04
2.580952380952381109e+00,-4.861388554592020652e-05,-5.585805992410837917e-05
2.581746031746031900e+00,-7.601878687604053891e-05,1.710289955448257590e-05
2.582539682539682691e+00,-9.431196345058981477e-05,9.483220684172857578e-05
2.583333333333333481e+00,-1.013186343909447997e-04,1.642409069952367685e-04
2.584126984126984272e+00,-9.664620177148181555e-05,2.141567750338952574e-04
2.584920634920635063e+00,-8.149467204456503351e-05,2.373361965155903867e-04
2.585714285714285854e+00,-5.833344651130679558e-05,2.312614553778718791e-04
2.586507936507936645e+00,-3.051977277913545925e-05,1.978468679712848551e-04
2.587301587301587436e+00,-1.883981518954489413e-06,1.424699416989046131e-04
2.588095238095238226e+00,2.371710380436530428e-05,7.277949021579615402e-05
2.588888888888889017e+00,4.287086501668363600e-05,-2.413963833071627308e-06
2.589682539682539808e+00,5.306850362632464530e-05,-7.406654210896748995e-05
2.590476190476190599e+00,5.308683050485393394e-05,-1.337183765508825255e-04
2.591269841269841390e+00,4.321082353688775359e-05,-1.743347254071428301e-04
2.592063492063492181e+00,2.523001957665550326e-05,-1.912209307195841140e-04
2.592857142857142971e+00,2.180091158891730029e-06,-1.828614249600683925e-04
2.593650793650793762e+00,-2.215027789179238140e-05,-1.513648795477814729e-04
2.594444444444444553e+00,-4.387492092911652870e-05,-1.022246232247491811e-04
2.595238095238095344e+00,-5.970557044708550861e-05,-4.334551979081317395e-05
2.596031746031746135e+00,-6.753376862038854640e-05,1.641469284802635971e-05
2.596825396825396925e+00,-6.675876869428568766e-05,6.878518660310412979e-05
2.597619047619047716e+00,-5.828424492784252007e-05,1.073456142829248703e-04
2.598412698412698507e+00,-4.419900549964335157e-05,1.283185787289388901e-04
2.599206349206349298e+00,-2.724183394321833354e-05,1.308436117436798628e-04
2.600000000000000089e+00,-1.019859427143642201e-05,1.167605234948023574e-04
2.600793650793650880e+00,4.620554843012207496e-06,8.997637871544784374e-05
2.601587301587301670e+00,1.571876372053768536e-05,5.556285041943814497e-05
2.602380952380952461e+00,2.252639955056764704e-05,1.879496488637499878e-05
2.603174603174603252e+00,2.531695013803692237e-05,-1.567980465197077962e-05
2.603968253968254043e+00,2.498938866716936217e-05,-4.444989277056033355e-05
2.604761904761904834e+00,2.278759589273908714e-05,-6.570292736500038620e-05
2.605555555555555625e+00,2.001258851767217760e-05,-7.931374483755719606e-05
2.606349206349206415e+00,1.776597757562716468e-05,-8.660719516967158146e-05
2.607142857142857206e+00,1.675360203969640960e-05,-8.979750459784416154e-05
2.607936507936507997e+00,1.717499761289298884e-05,-9.122312640670405062e-05
2.608730158730158788e+00,1.871965615407299188e-05,-9.259427442724980624e-05
2.609523809523809579e+00,2.067756803019222427e-05,-9.447499207313854116e-05
2.610317460317460370e+00,2.214666372145793574e-05,-9.613027916285321009e-05
2.611111111111111160e+00,2.228980716224364560e-05,-9.574511834552788868e-05
2.611904761904761951e+00,2.057329345879820045e-05,-9.093631533270168010e-05
2.612698412698412742e+00,1.692000195997639839e-05,-7.944552170536866654e-05
2.613492063492063533e+00,1.173482749283567514e-05,-5.988305651064109906e-05
2.614285714285714324e+00,5.798318888891922245e-06,-3.235715689282825326e-05
2.615079365079365115e+00,6.368043654984280044e-08,1.195348319339061423e-06
2.615873015873015905e+00,-4.578469858941331441e-06,3.710457127736307764e-05
2.616666666666666696e+00,-7.492868834265505123e-06,7.049159213981394769e-05
2.617460317460317487e+00,-8.392357233085267926e-06,9.611395997997321944e-05
2.618253968253968278e+00,-7.319145531150345845e-06,1.093942407533870647e-04
2.619047619047619069e+00,-4.557778944123319177e-06,1.074965642395269702e-04
2.619841269841269860e+00,-5.474582487849859879e-07,9.026594509441419098e-05
2.620634920634920650e+00,4.165973203049589438e-06,6.074229429795312241e-05
2.621428571428571441e+00,8.952585710076227558e-06,2.493262950432168727e-05
2.622222222222222232e+00,1.314082447218243510e-05,-9.307183720019219852e-06
2.623015873015873023e+00,1.610675917179112360e-05,-3.410210164467345178e-05
2.623809523809523814e+00,1.739059135614130243e-05,-4.360294986478268828e-05
2.624603174603174605e+00,1.679089645455811815e-05,-3.560195666710770136e-05
2.625396825396825395e+00,1.439621046501365467e-05,-1.216803963738744378e-05
2.626190476190476186e+00,1.054686686648257972e-05,2.091595954826998874e-05
2.626984126984126977e+00,5.748755362480608597e-06,5.568570444241482774e-05
2.627777777777777768e+00,5.708876388815868690e-07,8.394768625904350311e-05
2.628571428571428559e+00,-4.446087719300271176e-06,9.907678790063789243e-05
2.629365079365079350e+00,-8.854244561405530617e-06,9.729802045313238148e-05
2.630158730158730140e+00,-1.233068295602295963e-05,7.833280813877412921e-05
2.630952380952380931e+00,-1.468183852254594107e-05,4.541087725889877768e-05
2.631746031746031722e+00,-1.582979643680333857e-05,4.668308865784044318e-06
2.632539682539682513e+00,-1.579305568385705748e-05,-3.601534569870339407e-05
2.633333333333333304e+00,-1.467276979043178462e-05,-6.857821500855988575e-05
2.634126984126984095e+00,-1.265025541454834295e-05,-8.643295395934604876e-05
2.634920634920634885e+00,-9.993267644890529405e-06,-8.584148212960972094e-05
2.635714285714285676e+00,-7.059164873611141952e-06,-6.667088465091190275e-05
2.636507936507936467e+00,-4.276562520616901980e-06,-3.234032648718982117e-05
2.637301587301587258e+00,-2.088826486119457013e-06,1.101835031732515680e-05
2.638095238095238049e+00,-8.565476511717866786e-07,5.593088386421637628e-05
2.638888888888888840e+00,-7.395017427087127223e-07,9.504566285399968460e-05
2.639682539682539630e+00,-1.600975140433970798e-06,1.222425885627013422e-04
2.640476190476190421e+00,-2.984258782982140358e-06,1.331624559126877124e-04
2.641269841269841212e+00,-4.193507689665311348e-06,1.253037912227401070e-04
2.642063492063492003e+00,-4.473296463555736194e-06,9.807428585152396623e-05
2.642857142857142794e+00,-3.239271203156999983e-06,5.308621132929592024e-05
2.643650793650793585e+00,-2.848805585232935202e-07,-5.380157537885025110e-06
2.644444444444444375e+00,4.111054584923105732e-06,-7.016716678084763080e-05
2.645238095238095166e+00,9.221462940488395346e-06,-1.317732157866774944e-04
2.646031746031745957e+00,1.404843428830987505e-05,-1.798485986913111567e-04
2.646825396825396748e+00,1.758634889219935554e-05,-2.054200154206893244e-04
2.647619047619047539e+00,1.908666365468274605e-05,-2.032087904868107168e-04
2.648412698412698330e+00,1.824283380418297465e-05,-1.732414825065337006e-04
2.649206349206349120e+00,1.524524448708744119e-05,-1.210987065004222503e-04
2.649999999999999911e+00,1.070129776443972897e-05,-5.659277740731686864e-05
2.650793650793650702e+00,5.456794651208117873e-06,8.734649101703281617e-06
2.651587301587301493e+00,3.787556511189328340e-07,6.443345391599762824e-05
2.652380952380952284e+00,-3.837366199379597590e-06,1.033557827623714296e-04
2.653174603174603075e+00,-6.788881623679863648e-06,1.226800782724233848e-04
2.653968253968253865e+00,-8.395487114357029441e-06,1.236862579148583288e-04
2.654761904761904656e+00,-8.846344365027194212e-06,1.106145598087515956e-04
2.655555555555555447e+00,-8.495169461073953247e-06,8.910562164766252689e-05
2.656349206349206238e+00,-7.742340111816089029e-06,6.469003056831412106e-05
2.657142857142857029e+00,-6.938042089971615402e-06,4.165205633534569725e-05
2.657936507936507819e+00,-6.325911603888653310e-06,2.241977415175542971e-05
2.658730158730158610e+00,-6.028787361794784551e-06,7.499309584154984546e-06
2.659523809523809401e+00,-6.063957844508984486e-06,-4.113613902532670771e-06
2.660317460317460192e+00,-6.369852571850460673e-06,-1.418104331166090374e-05
2.661111111111110983e+00,-6.830392679023412080e-06,-2.433897215494249761e-05
2.661904761904761774e+00,-7.292988232661232854e-06,-3.533933163140852722e-05
2.662698412698412564e+00,-7.584699889611514070e-06,-4.664990263770475395e-05
2.663492063492063355e+00,-7.533597192878636745e-06,-5.654002560662247165e-05
2.664285714285714146e+00,-6.998663479532603078e-06,-6.263218515068595389e-05
2.665079365079364937e+00,-5.904922582092184251e-06,-6.275089631072408060e-05
2.665873015873015728e+00,-4.274511925692888476e-06,-5.578106080821930657e-05
2.666666666666666519e+00,-2.241910911584647510e-06,-4.220046471043983660e-05
2.667460317460317309e+00,-4.407783590176571131e-08,-2.404224209120598685e-05
2.668253968253968100e+00,2.016249811250328962e-06,-4.291756254790730728e-06
2.669047619047618891e+00,3.626484382462401023e-06,1.399135212695239852e-05
2.669841269841269682e+00,4.525687762941576227e-06,2.841165221153318669e-05
2.670634920634920473e+00,4.558272983795513844e-06,3.755349255399438797e-05
2.671428571428571264e+00,3.711146120921692485e-06,4.086810068794776861e-05
2.672222222222222054e+00,2.129759698531948599e-06,3.835485993394365949e-05
2.673015873015872845e+00,1.100166188473151175e-07,3.031127405325436528e-05
2.673809523809523636e+00,-1.936766370352715966e-06,1.730826671423848478e-05
2.674603174603174427e+00,-3.546691849512035904e-06,3.637062102265632960e-07
2.675396825396825218e+00,-4.289960397381974403e-06,-1.884376469400475180e-05
2.676190476190476009e+00,-3.870406681280742530e-06,-3.789857508742440663e-05
2.676984126984126799e+00,-2.218947398848698887e-06,-5.381970741962190580e-05
2.677777777777777590e+00,4.447413838411782934e-07,-6.349270648771275429e-05
2.678571428571428381e+00,3.609623358317336609e-06,-6.428951480566835752e-05
2.679365079365079172e+00,6.549112003361535822e-06,-5.473670601696795746e-05
2.680158730158729963e+00,8.475581784827959243e-06,-3.504574207510350150e-05
2.680952380952380754e+00,8.748255610156387981e-06,-7.316244017705759120e-06
2.681746031746031544e+00,7.086469498565676487e-06,2.470017107810903323e-05
2.682539682539682335e+00,3.729944475824125934e-06,5.624398818998428527e-05
2.683333333333333126e+00,-5.064839142596952492e-07,8.243634850399421247e-05
2.684126984126983917e+00,-4.316615450005180694e-06,9.920411248288052083e-05
2.684920634920634708e+00,-6.129928923616946138e-06,1.040669147233272917e-04
2.685714285714285499e+00,-4.455136042661968111e-06,9.665041829528486187e-05
2.686507936507936289e+00,1.717275203770126589e-06,7.879789260527200181e-05
2.687301587301587080e+00,1.253624209048572462e-05,5.417935908200917383e-05
2.688095238095238315e+00,2.703139004237160961e-05,2.741493033155627439e-05
2.688888888888889106e+00,4.306516856009150505e-05,2.921872159836507552e-06
2.689682539682539897e+00,5.755645205641021127e-05,-1.615340253232842567e-05
2.690476190476190688e+00,6.698202175772352887e-05,-2.856205788932614042e-05
2.691269841269841478e+00,6.809259960845098270e-05,-3.495172100408789305e-05
2.692063492063492269e+00,5.870937185882581227e-05,-3.728898719178269883e-05
2.692857142857143060e+00,3.841463284331882703e-05,-3.794721034547540018e-05
2.693650793650793851e+00,8.935336433217141286e-06,-3.878215674629298350e-05
2.694444444444444642e+00,-2.594569645535274601e-05,-4.049194319228897648e-05
2.695238095238095433e+00,-6.101745949162761705e-05,-4.245628926339078214e-05
2.696031746031746223e+00,-9.071052280545190182e-05,-4.310343215318075065e-05
2.696825396825397014e+00,-1.103325200955016731e-04,-4.068359045955484958e-05
2.697619047619047805e+00,-1.171012792997581963e-04,-3.416789961641993918e-05
2.698412698412698596e+00,-1.106755373050683508e-04,-2.390076436117082509e-05
2.699206349206349387e+00,-9.306972457221339889e-05,-1.168478398170130150e-05
2.700000000000000178e+00,-6.803520614740452086e-05,-2.005926647390266119e-07
2.700793650793650968e+00,-4.012145869483501503e-05,8.018659490991979973e-06
2.701587301587301759e+00,-1.368279350430841215e-05,1.160043962966740140e-05
2.702380952380952550e+00,7.925509407756634733e-06,1.086624973177285099e-05
2.703174603174603341e+00,2.280381062926267467e-05,7.644170648375284564e-06
2.703968253968254132e+00,3.057918449735124106e-05,4.458306778622764003e-06
2.704761904761904923e+00,3.215899071257762151e-05,3.482259043171765442e-06
2.705555555555555713e+00,2.929438385523207584e-05,5.742610306854298572e-06
2.706349206349206504e+00,2.408871013866626553e-05,1.090090191728654973e-05
2.707142857142857295e+00,1.855673978389022033e-05,1.761312301782091123e-05
2.707936507936508086e+00,1.429683868658473988e-05,2.417991401699729528e-05
2.708730158730158877e+00,1.229806235273177448e-05,2.913382980586552121e-05
2.709523809523809668e+00,1.287764432312389309e-05,3.155002250344740990e-05
2.710317460317460458e+00,1.573147855268646365e-05,3.106437064650425129e-05
2.711111111111111249e+00,2.007503683899993942e-05,2.771198754588816656e-05
2.711904761904762040e+00,2.484805505632689857e-05,2.173157097715531247e-05
2.712698412698412831e+00,2.894953260134375177e-05,1.344873425306809990e-05
2.713492063492063622e+00,3.146172428507840787e-05,3.289288735039557609e-06
2.714285714285714413e+00,3.181946875193059006e-05,-8.095877582742577752e-06
2.715079365079365203e+00,2.989110137639410146e-05,-1.967229143661377823e-05
2.715873015873015994e+00,2.595979812718533729e-05,-2.994074865092787334e-05
2.716666666666666785e+00,2.062160765929698668e-05,-3.703519979552128707e-05
2.717460317460317576e+00,1.463688705773810742e-05,-3.904394680864469564e-05
2.718253968253968367e+00,8.777371808511263404e-06,-3.450782761725682452e-05
2.719047619047619158e+00,3.702100676813919472e-06,-2.296048785663114099e-05
2.719841269841269948e+00,-1.212180101971178320e-07,-5.330024108877525708e-06
2.720634920634920739e+00,-2.449264541977561583e-06,1.595774640523593108e-05
2.721428571428571530e+00,-3.261492522727108971e-06,3.725579737306465876e-05
2.722222222222222321e+00,-2.737820332268147683e-06,5.433403812210251237e-05
2.723015873015873112e+00,-1.224901137705153564e-06,6.326996479246609940e-05
2.723809523809523903e+00,8.084201467212062913e-07,6.140360740942459169e-05
2.724603174603174693e+00,2.831842708092615067e-06,4.810624233821101151e-05
2.725396825396825484e+00,4.333739398366794582e-06,2.510663645613907984e-05
2.726190476190476275e+00,4.913387232623378659e-06,-3.783524252465957648e-06
2.726984126984127066e+00,4.365231906342002740e-06,-3.351168413672673283e-05
2.727777777777777857e+00,2.728894690564956833e-06,-5.895656873475581944e-05
2.728571428571428648e+00,2.848481295079151033e-07,-7.607620931259646542e-05
2.729365079365079438e+00,-2.507359957633531335e-06,-8.270111727136082811e-05
2.730158730158730229e+00,-5.112552246716571840e-06,-7.878691739019682259e-05
2.730952380952381020e+00,-7.037720320940955765e-06,-6.613422425872484507e-05
2.731746031746031811e+00,-7.935945038985173659e-06,-4.774096627916865203e-05
2.732539682539682602e+00,-7.675022201087739653e-06,-2.702143367235360018e-05
2.733333333333333393e+00,-6.359523259235225750e-06,-7.105523286519980785e-06
2.734126984126984183e+00,-4.305499946213762445e-06,9.644603070657181812e-06
2.734920634920634974e+00,-1.975958560794337583e-06,2.185319745383300716e-05
2.735714285714285765e+00,1.086443700535256750e-07,2.911143781837223396e-05
2.736507936507936556e+00,1.467733519784520521e-06,3.179048627610909334e-05
2.737301587301587347e+00,1.748976163691571206e-06,3.077232653688932767e-05
2.738095238095238138e+00,7.941365677731961623e-07,2.717504708166519262e-05
2.738888888888888928e+00,-1.326373996834637918e-06,2.212651594606267267e-05
2.739682539682539719e+00,-4.314835895812498615e-06,1.661346588947653532e-05
2.740476190476190510e+00,-7.685081057576392065e-06,1.141030028501707271e-05
2.741269841269841301e+00,-1.083755534257929876e-05,7.075709223157520145e-06
2.742063492063492092e+00,-1.316436747246729565e-05,3.992067731042445893e-06
2.742857142857142883e+00,-1.417050011314599120e-05,2.411759289828709037e-06
2.743650793650793673e+00,-1.358846192560332236e-05,2.473253793046337456e-06
2.744444444444444464e+00,-1.145699314616095413e-05,4.166327440861255309e-06
2.745238095238095255e+00,-8.134947010471362707e-06,7.257590965172150050e-06
2.746031746031746046e+00,-4.233932683593382473e-06,1.121908729425081974e-05
2.746825396825396837e+00,-4.783004743085584991e-07,1.521684434488486193e-05
2.747619047619047628e+00,2.469750355955205474e-06,1.820422313782054505e-05
2.748412698412698418e+00,4.164571683074544609e-06,1.912880802907067636e-05
2.749206349206349209e+00,4.462203282189350054e-06,1.721334559747694236e-05
2.750000000000000000e+00,3.516170139071198724e-06,1.223122567202970698e-05
2.750793650793650791e+00,1.698364640521586126e-06,4.686394762149120138e-06
2.751587301587301582e+00,-5.180149394897661370e-07,-4.168400794023682087e-06
2.752380952380952372e+00,-2.673202503052560891e-06,-1.250302799435401751e-05
2.753174603174603163e+00,-4.404648125135863363e-06,-1.826988744695694201e-05
2.753968253968253954e+00,-5.488469286623354226e-06,-1.971817113160742675e-05
2.754761904761904745e+00,-5.842171413208600610e-06,-1.595847047050273396e-05
2.755555555555555536e+00,-5.501118879777476427e-06,-7.387817789729717046e-06
2.756349206349206327e+00,-4.583730236652091530e-06,4.227771301685016263e-06
2.757142857142857117e+00,-3.257986833352397436e-06,1.609911573594643370e-05
2.757936507936507908e+00,-1.716509134404545786e-06,2.509109233111134462e-05
2.758730158730158699e+00,-1.610397133021822689e-07,2.851852233698569681e-05
2.759523809523809490e+00,1.208430363708685225e-06,2.485846036292328718e-05
2.760317460317460281e+00,2.207392501904777342e-06,1.424381376772613294e-05
2.761111111111111072e+00,2.689106756595876834e-06,-1.367045837684303454e-06
2.761904761904761862e+00,2.574949138061471995e-06,-1.845054947899251330e-05
2.762698412698412653e+00,1.884498242856710824e-06,-3.265706050913095898e-05
2.763492063492063444e+00,7.515810618919634342e-07,-3.992257603084792749e-05
2.764285714285714235e+00,-5.873426631247263846e-07,-3.765895061349822825e-05
2.765079365079365026e+00,-1.838856789701543751e-06,-2.562424645263445115e-05
2.765873015873015817e+00,-2.725801914036738543e-06,-6.135989590992556520e-06
2.766666666666666607e+00,-3.067813569421756838e-06,1.648430161639537954e-05
2.767460317460317398e+00,-2.841272580785691952e-06,3.705315766060628981e-05
2.768253968253968189e+00,-2.193770733738531092e-06,5.085743087216038365e-05
2.769047619047618980e+00,-1.402044192975151855e-06,5.475131755589309867e-05
2.769841269841269771e+00,-7.824806856773810883e-07,4.774346917336770487e-05
2.770634920634920562e+00,-5.822044286940707422e-07,3.102796457689263582e-05
2.771428571428571352e+00,-8.884864296231023709e-07,7.587589099934538595e-06
2.772222222222222143e+00,-1.589876101442625998e-06,-1.845597110814419106e-05
2.773015873015872934e+00,-2.404592076293170677e-06,-4.261653589933289839e-05
2.773809523809523725e+00,-2.966913268812793525e-06,-6.085436365729587649e-05
2.774603174603174516e+00,-2.940819031380651072e-06,-7.032344667858303488e-05
2.775396825396825307e+00,-2.121232562186733362e-06,-6.992635578342597583e-05
2.776190476190476097e+00,-4.903893334679344066e-07,-6.055141697314690496e-05
2.776984126984126888e+00,1.784093928182138333e-06,-4.491138182739589751e-05
2.777777777777777679e+00,4.400953621659661726e-06,-2.697154022947645535e-05
2.778571428571428470e+00,7.002497124268316771e-06,-1.104249361451006595e-05
2.779365079365079261e+00,9.248717268151044211e-06,-7.224024166550649332e-07
2.780158730158730052e+00,1.086742945898916449e-05,2.025416527366915233e-06
2.780952380952380842e+00,1.167432957195597577e-05,-2.636040378157631118e-06
2.781746031746031633e+00,1.157066649218336233e-05,-1.251474915705099744e-05
2.782539682539682424e+00,1.053271602460747813e-05,-2.401238873061845120e-05
2.783333333333333215e+00,8.605323864572465278e-06,-3.304622923045587399e-05
2.784126984126984006e+00,5.904690675843392117e-06,-3.601296856276662482e-05
2.784920634920634797e+00,2.627588122175681783e-06,-3.059191700522082729e-05
2.785714285714285587e+00,-9.415202379753438694e-07,-1.624725866355457358e-05
2.786507936507936378e+00,-4.435853348245583572e-06,5.662727239328156903e-06
2.787301587301587169e+00,-7.432557999971732713e-06,3.219677331297800580e-05
2.788095238095237960e+00,-9.503202384299923449e-06,5.948148000148139447e-05
2.788888888888888751e+00,-1.028484157705381002e-05,8.350373060668026069e-05
2.789682539682539542e+00,-9.559660639859494683e-06,1.008049220943190512e-04
2.790476190476190332e+00,-7.323464989832004259e-06,1.089218248964977031e-04
2.791269841269841123e+00,-3.819746295834682302e-06,1.065745332877903649e-04
2.792063492063491914e+00,4.793903225872430289e-07,9.371422944769167217e-05
2.792857142857142705e+00,4.950245585154794562e-06,7.153990605411642576e-05
2.793650793650793496e+00,8.937523169667058837e-06,4.249089601349742844e-05
2.794444444444444287e+00,1.188469967136175176e-05,1.010785935301008273e-05
2.795238095238095077e+00,1.343610137942809301e-05,-2.137019711859221822e-05
2.796031746031745868e+00,1.348234251458185607e-05,-4.770012046349983274e-05
2.796825396825396659e+00,1.214290238000791042e-05,-6.547397641398402374e-05
2.797619047619047450e+00,9.702096103707995647e-06,-7.283797776110943040e-05
2.798412698412698241e+00,6.527260016450475808e-06,-6.984296817800441542e-05
2.799206349206349032e+00,2.997157210732259847e-06,-5.831901605733933862e-05
2.799999999999999822e+00,-5.425445511274908773e-07,-4.134283270287727818e-05
2.800793650793650613e+00,-3.795048798479475989e-06,-2.248659344011944765e-05
2.801587301587301404e+00,-6.510338570306641276e-06,-5.059192419129066131e-06
2.802380952380952195e+00,-8.481137849180323541e-06,8.499575029794184715e-06
2.803174603174602986e+00,-9.549244097395484092e-06,1.697665725969667834e-05
2.803968253968253777e+00,-9.625576988370029483e-06,2.044579239901529152e-05
2.804761904761904567e+00,-8.718091810368056306e-06,2.002252623045011395e-05
2.805555555555555358e+00,-6.955664794154082217e-06,1.737219321304264062e-05
2.806349206349206149e+00,-4.594187365769260715e-06,1.410889169963933474e-05
2.807142857142856940e+00,-1.993838319979494139e-06,1.127688309309709364e-05
2.807936507936507731e+00,4.359687209662233153e-07,9.094155941541734586e-06
2.808730158730158522e+00,2.316311441464596784e-06,7.047984449997753914e-06
2.809523809523809312e+00,3.383826753279276147e-06,4.288178872582531973e-06
2.810317460317460103e+00,3.554798993715003686e-06,1.323980227857075691e-07
2.811111111111110894e+00,2.945267136791249259e-06,-5.541001564755558611e-06
2.811904761904761685e+00,1.838321439388223991e-06,-1.215830385815284322e-05
2.812698412698412920e+00,6.076303729466015328e-07,-1.858524909538831067e-05
2.813492063492063711e+00,-3.807506243297455905e-07,-2.344473398037164014e-05
2.814285714285714501e+00,-8.612043426648941655e-07,-2.550223579336653243e-05
2.815079365079365292e+00,-7.310436375772539840e-07,-2.401079125696995795e-05
2.815873015873016083e+00,-6.632193145316223411e-08,-1.892391065078576840e-05
2.816666666666666874e+00,9.114268322950873252e-07,-1.092422652069456195e-05
2.817460317460317665e+00,1.904798385127790936e-06,-1.279886479217663533e-06
2.818253968253968456e+00,2.623559250151782323e-06,8.408812947428097570e-06
2.819047619047619246e+00,2.856746607014539620e-06,1.650561570125211013e-05
2.819841269841270037e+00,2.515950900638497997e-06,2.163450212420059329e-05
2.820634920634920828e+00,1.642467173213081069e-06,2.294439745546486423e-05
2.821428571428571619e+00,3.817530590119240727e-07,2.029762781379282056e-05
2.822222222222222410e+00,-1.062945936680957315e-06,1.432595837428869903e-05
2.823015873015873201e+00,-2.481651254477606608e-06,6.316052062482097626e-06
2.823809523809523991e+00,-3.698548726560007547e-06,-2.067099790301942212e-06
2.824603174603174782e+00,-4.594631331868945120e-06,-9.157546070763438874e-06
2.825396825396825573e+00,-5.112929460083370414e-06,-1.366971519509774413e-05
2.826190476190476364e+00,-5.253477555815025876e-06,-1.498030523320832118e-05
2.826984126984127155e+00,-5.065999588036793479e-06,-1.323290867737733369e-05
2.827777777777777946e+00,-4.644631379885645764e-06,-9.241973886276236204e-06
2.828571428571428736e+00,-4.123895626271882790e-06,-4.239181539534479540e-06
2.829365079365079527e+00,-3.671058015485959899e-06,4.475376233589341315e-07
2.830158730158730318e+00,-3.468246474683522043e-06,3.688763598138792311e-06
2.830952380952381109e+00,-3.679560983230986223e-06,4.762150078919274139e-06
2.831746031746031900e+00,-4.404692000472217625e-06,3.455703159234067316e-06
2.832539682539682691e+00,-5.629800605958612860e-06,7.314803811887529693e-08
2.833333333333333481e+00,-7.193932929000303425e-06,-4.640796581191130321e-06
2.834126984126984272e+00,-8.789393454483908488e-06,-9.635870850996622637e-06
2.834920634920635063e+00,-1.000505541426177678e-05,-1.373475000905824073e-05
2.835714285714285854e+00,-1.040688767387734901e-05,-1.583800688869975109e-05
2.836507936507936645e+00,-9.637862795172854344e-06,-1.513699774750903171e-05
2.837301587301587436e+00,-7.513611886373802910e-06,-1.131004880960474643e-05
2.838095238095238226e+00,-4.088778819419134838e-06,-4.669344655319846642e-06
2.838888888888889017e+00,3.283764175492963191e-07,3.779276697745756639e-06
2.839682539682539808e+00,5.224409800664800039e-06,1.239898543696919490e-05
2.840476190476190599e+00,9.981993214679951088e-06,1.912970525826053315e-05
2.841269841269841390e+00,1.400132536885442988e-05,2.184033991732053229e-05
2.842063492063492181e+00,1.680080385755226130e-05,1.879300987261463222e-05
2.842857142857142971e+00,1.807042046405911309e-05,9.150465349842544814e-06
2.843650793650793762e+00,1.767896917373543248e-05,-6.576373518088704799e-06
2.844444444444444553e+00,1.565777091302139360e-05,-2.626720982373533937e-05
2.845238095238095344e+00,1.218627765552671013e-05,-4.624602265372765276e-05
2.846031746031746135e+00,7.591074208633473578e-06,-6.174667888602964217e-05
2.846825396825396925e+00,2.351424347360884278e-06,-6.781277085619781010e-05
2.847619047619047716e+00,-2.907793461769260739e-06,-6.053626810499448149e-05
2.848412698412698507e+00,-7.456740198864865985e-06,-3.839727618192865713e-05
2.849206349206349298e+00,-1.054750302828804435e-05,-3.336928391212775467e-06
2.850000000000000089e+00,-1.154405938019278107e-05,3.887028345702771910e-05
2.850793650793650880e+00,-1.007339445932307308e-05,7.931265485379127196e-05
2.851587301587301670e+00,-6.160428824721101889e-06,1.078153249680166180e-04
2.852380952380952461e+00,-3.039672179848758641e-07,1.156629533233468233e-04
2.853174603174603252e+00,6.541072415057251307e-06,9.838184468556675048e-05
2.853968253968254043e+00,1.309035440505859070e-05,5.757989915666490797e-05
2.854761904761904834e+00,1.795621762553826912e-05,1.074839688862308592e-06
2.855555555555555625e+00,1.994039718321030067e-05,-5.884140169740513092e-05
2.856349206349206415e+00,1.834231392495422647e-05,-1.084643708701845896e-04
2.857142857142857206e+00,1.321813931098437193e-05,-1.361091512035604763e-04
2.857936507936507997e+00,5.516701658954346866e-06,-1.349443927429002006e-04
2.858730158730158788e+00,-2.979404872979396353e-06,-1.045408289028631354e-04
2.859523809523809579e+00,-9.951660652974201324e-06,-5.083135518830414468e-05
2.860317460317460370e+00,-1.306559817539045736e-05,1.544025443738993416e-05
2.861111111111111160e+00,-1.061481152188848184e-05,8.134905968640341277e-05
2.861904761904761951e+00,-2.123246518238759350e-06,1.347742295081507595e-04
2.862698412698412742e+00,1.128099998531038963e-05,1.669196912948326761e-04
2.863492063492063533e+00,2.687040315387857577e-05,1.737507013494966489e-04
2.864285714285714324e+00,4.076747302547014355e-05,1.561522322407652796e-04
2.865079365079365115e+00,4.879298543795681077e-05,1.190360465240784029e-04
2.865873015873015905e+00,4.754496882997997728e-05,6.985012009751136663e-05
2.866666666666666696e+00,3.543307546139515978e-05,1.695051880787336963e-05
2.867460317460317487e+00,1.334245136239199511e-05,-3.183061699231623173e-05
2.868253968253968278e+00,-1.534024459153537879e-05,-7.024726801678889089e-05
2.869047619047619069e+00,-4.541964321617827726e-05,-9.428757315312709169e-05
2.869841269841269860e+00,-7.113038601424894500e-05,-1.024380809419418536e-04
2.870634920634920650e+00,-8.754875777924961010e-05,-9.562116234781714043e-05
2.871428571428571441e+00,-9.175496232783818750e-05,-7.685879957505350785e-05
2.872222222222222232e+00,-8.343202418402981616e-05,-5.069733385953964982e-05
2.873015873015873023e+00,-6.478443351268207300e-05,-2.241618088976475917e-05
2.873809523809523814e+00,-3.986166303170930552e-05,2.921970368087827804e-06
2.874603174603174605e+00,-1.351861884069937582e-05,2.142012346744747291e-05
2.875396825396825395e+00,9.692287840872218919e-06,3.102894506393034712e-05
2.876190476190476186e+00,2.642648965995491109e-05,3.171354674275562205e-05
2.876984126984126977e+00,3.506836574151019471e-05,2.505483455069743972e-05
2.877777777777777768e+00,3.580568925400231606e-05,1.349540852703906824e-05
2.878571428571428559e+00,3.030556840064928012e-05,-4.253849820911052571e-07
2.879365079365079350e+00,2.111521849633235545e-05,-1.456867156432639793e-05
2.880158730158730140e+00,1.094797208349790343e-05,-2.733414894073703198e-05
2.880952380952380931e+00,2.027619563420623218e-06,-3.752977189471852547e-05
2.881746031746031722e+00,-4.344397964584209732e-06,-4.416679171889239429e-05
2.882539682539682513e+00,-7.886014609032442548e-06,-4.638333686162085230e-05
2.883333333333333304e+00,-9.094818809600959376e-06,-4.362312306940332036e-05
2.884126984126984095e+00,-8.807642271073109835e-06,-3.604953322570671930e-05
2.884920634920634885e+00,-7.771571829235681450e-06,-2.500237281727021502e-05
2.885714285714285676e+00,-6.390741555496436415e-06,-1.318769623659449459e-05
2.886507936507936467e+00,-4.674499220233684550e-06,-4.321164850862356191e-06
2.887301587301587258e+00,-2.296044090479876112e-06,-2.151473191786667360e-06
2.888095238095238049e+00,1.330557036354040945e-06,-9.092133169222602895e-06
2.888888888888888840e+00,6.952692662846784136e-06,-2.493484248328405563e-05
2.889682539682539630e+00,1.528452228859855107e-05,-4.617887632594720954e-05
2.890476190476190421e+00,2.667674830679064385e-05,-6.635637812281250673e-05
2.891269841269841212e+00,4.073516193724838940e-05,-7.742207951834674637e-05
2.892063492063492003e+00,5.606978951154446719e-05,-7.191301355345797153e-05
2.892857142857142794e+00,7.034436843302119572e-05,-4.528213654629443109e-05
2.893650793650793585e+00,8.067858056754887211e-05,2.323841782296537170e-06
2.894444444444444375e+00,8.430381768034251190e-05,6.545347858792585247e-05
2.895238095238095166e+00,7.926598533012708166e-05,1.341485309809166014e-04
2.896031746031745957e+00,6.494830056274887250e-05,1.959262557255777248e-04
2.896825396825396748e+00,4.225125290234106997e-05,2.383883129431818885e-04
2.897619047619047539e+00,1.338979440903755368e-05,2.518171409097594922e-04
2.898412698412698330e+00,-1.858904885950478475e-05,2.312223817289132391e-04
2.899206349206349120e+00,-5.036135407668058099e-05,1.774591775339706072e-04
2.899999999999999911e+00,-7.875107999214435645e-05,9.721191660888474221e-05
2.900793650793650702e+00,-1.009483608960951636e-04,1.843888231268690303e-06
2.901587301587301493e+00,-1.146148407083268046e-04,-9.464555979883674728e-05
2.902380952380952284e+00,-1.180469354412915130e-04,-1.781021182341128452e-04
2.903174603174603075e+00,-1.104814639058080295e-04,-2.365829380139712851e-04
2.903968253968253865e+00,-9.244565083020742189e-05,-2.621226991577185316e-04
2.904761904761904656e+00,-6.593045003814815991e-05,-2.516361871380701914e-04
2.905555555555555447e+00,-3.421139860987891811e-05,-2.069904676991157321e-04
2.906349206349206238e+00,-1.324374180427067781e-06,-1.345100744672743181e-04
2.907142857142857029e+00,2.861929261013242156e-05,-4.420827528603674453e-05
2.907936507936507819e+00,5.205526819195708182e-05,5.115778959882810576e-05
2.908730158730158610e+00,6.640673362659988614e-05,1.373790986754784332e-04
2.909523809523809401e+00,7.035185456121784120e-05,2.006875075652459210e-04
2.910317460317460192e+00,6.396763090047511140e-05,2.302273005153893776e-04
2.911111111111110983e+00,4.875045012743844822e-05,2.205608031640704774e-04
2.911904761904761774e+00,2.746082398600988754e-05,1.732853901589244470e-04
2.912698412698412564e+00,3.751809905033472680e-06,9.698206003756964318e-05
2.913492063492063355e+00,-1.839042116631714528e-05,5.371776227941139388e-06
2.914285714285714146e+00,-3.529269388388181722e-05,-8.569906818297941145e-05
2.915079365079364937e+00,-4.419138306733371720e-05,-1.614583606702971880e-04
2.915873015873015728e+00,-4.365579178308066384e-05,-2.107617515493015350e-04
2.916666666666666519e+00,-3.376591258509000144e-05,-2.276168524461497035e-04
2.917460317460317309e+00,-1.604305709063536933e-05,-2.117034673211846952e-04
2.918253968253968100e+00,6.806988291216408649e-06,-1.680834327381552288e-04
2.919047619047618891e+00,3.125820317257015573e-05,-1.062313522324612224e-04
2.919841269841269682e+00,5.338550046266421451e-05,-3.839458792906257003e-05
2.920634920634920473e+00,6.934600093156856652e-05,2.268501826680116150e-05
2.921428571428571264e+00,7.595086855689464947e-05,6.640884926972451057e-05
2.922222222222222054e+00,7.131400804259415338e-05,8.671745033538643017e-05
2.923015873015872845e+00,5.544957813061067626e-05,8.350371160556230733e-05
2.923809523809523636e+00,3.057963811434444534e-05,6.250529495156887771e-05
2.924603174603174427e+00,9.162517789208472164e-07,3.362143167331873564e-05
2.925396825396825218e+00,-2.815308238048994831e-05,8.119803520029553634e-06
2.926190476190476009e+00,-5.129754176410150336e-05,-4.485633020280111905e-06
2.926984126984126799e+00,-6.452155687236088783e-05,9.351969250503672515e-07
2.927777777777777590e+00,-6.608539368742597680e-05,2.366961409973146116e-05
2.928571428571428381e+00,-5.679335369598554164e-05,5.731349395463306067e-05
2.929365079365079172e+00,-3.960177507987477577e-05,9.160856499891381914e-05
2.930158730158729963e+00,-1.872285222290346444e-05,1.155291485753487586e-04
2.930952380952380754e+00,1.468895924777379379e-06,1.206603574901081406e-04
2.931746031746031544e+00,1.741720971272928473e-05,1.036851573710606078e-04
2.932539682539682335e+00,2.703134468903582068e-05,6.710387166656756378e-05
2.933333333333333126e+00,2.990251380922095872e-05,1.805423473435159224e-05
2.934126984126983917e+00,2.710663136121605561e-05,-3.411110508938830824e-05
2.934920634920634708e+00,2.070124883794935804e-05,-8.040858642624567774e-05
2.935714285714285499e+00,1.308397276888369074e-05,-1.140065425395262231e-04
2.936507936507936289e+00,6.395667223080648363e-06,-1.308039329286790804e-04
2.937301587301587080e+00,2.113588915490391098e-06,-1.290911640154881362e-04
2.938095238095238315e+00,8.962760711904503994e-07,-1.090086597674946222e-04
2.938888888888889106e+00,2.649795440968097248e-06,-7.243551015603930023e-05
2.939682539682539897e+00,6.726635354895047250e-06,-2.340918319105610742e-05
2.940476190476190688e+00,1.216243929725428728e-05,3.142938314907458116e-05
2.941269841269841478e+00,1.788586334264681928e-05,8.310778799393049858e-05
2.942063492063492269e+00,2.287128628363298115e-05,1.217266882647084433e-04
2.942857142857143060e+00,2.622467628227788438e-05,1.387481402143378147e-04
2.943650793650793851e+00,2.720795097465628329e-05,1.293872413508921116e-04
2.944444444444444642e+00,2.523135435512466638e-05,9.423702006546878980e-05
2.945238095238095433e+00,1.986494630974213333e-05,3.955371718790356669e-05
2.946031746031746223e+00,1.090508149627891757e-05,-2.393006953734969728e-05
2.946825396825397014e+00,-1.524832380882389089e-06,-8.338198334611892184e-05
2.947619047619047805e+00,-1.690355610741813480e-05,-1.268173621204108487e-04
2.948412698412698596e+00,-3.431098195416280671e-05,-1.457958944933341347e-04
2.949206349206349387e+00,-5.246964407418726236e-05,-1.370863297182331258e-04
2.950000000000000178e+00,-6.977640301243744536e-05,-1.028639870159999179e-04
2.950793650793650968e+00,-8.432320460091803453e-05,-4.954255415257032203e-05
2.951587301587301759e+00,-9.397594556628826690e-05,1.418651313665489267e-05
2.952380952380952550e+00,-9.659465079866200784e-05,7.934790370237908091e-05
2.953174603174603341e+00,-9.042197816161464774e-05,1.381125954891181346e-04
2.953968253968254132e+00,-7.457803197466106771e-05,1.844609104756316615e-04
2.954761904761904923e+00,-4.951989850785190654e-05,2.142616899980975993e-04
2.955555555555555713e+00,-1.728438884390110788e-05,2.251169209373027943e-04
2.956349206349206504e+00,1.864244565122008469e-05,2.162370538482402487e-04
2.957142857142857295e+00,5.387865396457632711e-05,1.884218749506419714e-04
2.957936507936508086e+00,8.400232625059930345e-05,1.440806642346859068e-04
2.958730158730158877e+00,1.054353539212190421e-04,8.718050802429273393e-05
2.959523809523809668e+00,1.160471323212796611e-04,2.302535784247520918e-05
2.960317460317460458e+00,1.153014239463627424e-04,-4.219186918437886603e-05
2.961111111111111249e+00,1.039924784288227122e-04,-1.020536573908396611e-04
2.961904761904762040e+00,8.379672569491424460e-05,-1.507038199276740115e-04
2.962698412698412831e+00,5.690126168820297038e-05,-1.836136288956439274e-04
2.963492063492063622e+00,2.584612487832804189e-05,-1.982149797475307685e-04
2.964285714285714413e+00,-6.480400285841488172e-06,-1.943482607107262857e-04
2.965079365079365203e+00,-3.688584433088742265e-05,-1.744810981998113047e-04
2.965873015873015994e+00,-6.212125648589298678e-05,-1.435806061507959562e-04
2.966666666666666785e+00,-7.933992724297946769e-05,-1.084486693111326428e-04
2.967460317460317576e+00,-8.661694626447062845e-05,-7.640462320255936399e-05
2.968253968253968367e+00,-8.333387167308886243e-05,-5.349269141911858270e-05
2.969047619047619158e+00,-7.030844047724914910e-05,-4.276819329307025803e-05
2.969841269841269948e+00,-4.966602433657576592e-05,-4.339132126035434984e-05
2.970634920634920739e+00,-2.452168866793773394e-05,-5.103484501054702160e-05
2.971428571428571530e+00,1.456984747911788433e-06,-5.957221871947631893e-05
2.972222222222222321e+00,2.456838459159119153e-05,-6.344047515337462926e-05
2.973015873015873112e+00,4.164528122855560546e-05,-5.974480090704846144e-05
2.973809523809523903e+00,5.059699568394311945e-05,-4.922644170517841410e-05
2.974603174603174693e+00,5.079126057583727686e-05,-3.564366881886895749e-05
2.975396825396825484e+00,4.314069777668927023e-05,-2.377743607377805256e-05
2.976190476190476275e+00,2.984332030542925985e-05,-1.691144633642484201e-05
2.976984126984127066e+00,1.385062460919458614e-05,-1.494316318919200004e-05
2.977777777777777857e+00,-1.775170336420159610e-06,-1.404840761169128880e-05
2.978571428571428648e+00,-1.444231684905935098e-05,-8.103472487570641269e-06
2.979365079365079438e+00,-2.242922162956727651e-05,8.770024536282615039e-06
2.980158730158730229e+00,-2.505656704897689819e-05,3.966398033818187204e-05
2.980952380952381020e+00,-2.264647184526909747e-05,8.338265648471027071e-05
2.981746031746031811e+00,-1.631877588682999607e-05,1.344794508909931462e-04
2.982539682539682602e+00,-7.688549778264122764e-06,1.846750231138525233e-04
2.983333333333333393e+00,1.471797750404854777e-06,2.250234846285789701e-04
2.984126984126984183e+00,9.551428282482594097e-06,2.480443854370510356e-04
2.984920634920634974e+00,1.535629585388064653e-05,2.492127547712738134e-04
2.985714285714285765e+00,1.826344979325042361e-05,2.275587476906943980e-04
2.986507936507936556e+00,1.825005187759283815e-05,1.854726075133386284e-04
2.987301587301587347e+00,1.579944160402357761e-05,1.279952596286245857e-04
2.988095238095238138e+00,1.172028817904105128e-05,6.187838539161867580e-05
2.988888888888888928e+00,6.936264433072089307e-06,-5.408085846504046915e-06
2.989682539682539719e+00,2.300740759017734747e-06,-6.665604148337273341e-05
2.990476190476190510e+00,-1.530580682397455835e-06,-1.158514569147718186e-04
2.991269841269841301e+00,-4.161308843951873043e-06,-1.489515625658118642e-04
2.992063492063492092e+00,-5.459755364117331942e-06,-1.643278564184039951e-04
2.992857142857142883e+00,-5.524288946723041001e-06,-1.627561854627484149e-04
2.993650793650793673e+00,-4.624448931460219127e-06,-1.470094537175740924e-04
2.994444444444444464e+00,-3.130426353651999706e-06,-1.212278727671297225e-04
2.995238095238095255e+00,-1.440370807284775536e-06,-9.020778046740970653e-05
2.996031746031746046e+00,8.692335726631046885e-08,-5.866018403110337588e-05
2.996825396825396837e+00,1.186820414875852345e-06,-3.048761370924671591e-05
2.997619047619047628e+00,1.723709844304815220e-06,-8.214456049856695051e-06
2.998412698412698418e+00,1.699362978609641106e-06,7.239275585684584028e-06
2.999206349206349209e+00,1.232126365340572524e-06,1.632137885115003470e-05
3.000000000000000000e+00,5.114939360419375742e-07,2.020750232664035801e-05
3.000793650793650791e+00,-2.593070437189689020e-07,2.000981026356595343e-05
3.001587301587301582e+00,-9.152519278030537744e-07,1.618796704898768082e-05
3.002380952380952372e+00,-1.360481953363971759e-06,8.454443308127442753e-06
3.003174603174603163e+00,-1.571590775802567752e-06,-3.757344130345191125e-06
3.003968253968253954e+00,-1.577900932630348533e-06,-2.047434264385772885e-05
3.004761904761904745e+00,-1.431630196033784371e-06,-4.041093231289495717e-05
3.005555555555555536e+00,-1.182479249553221901e-06,-6.063541367137414447e-05
3.006349206349206327e+00,-8.663125599092462449e-07,-7.690240051881990879e-05
3.007142857142857117e+00,-5.091048534542770586e-07,-8.462808939825326227e-05
3.007936507936507908e+00,-1.395039484258941212e-07,-8.023733993936601496e-05
3.008730158730158699e+00,1.998878019887024526e-07,-6.243803994185321117e-05
3.009523809523809490e+00,4.499935571954465068e-07,-3.294375794749419589e-05
3.010317460317460281e+00,5.432780246780997007e-07,3.687142978040615730e-06
3.011111111111111072e+00,4.188773930703392262e-07,4.111312168764723384e-05
3.011904761904761862e+00,3.919605231554539470e-08,7.282145738251077146e-05
3.012698412698412653e+00,-5.969504647507519272e-07,9.371686503017775927e-05
3.013492063492063444e+00,-1.447586849510602855e-06,1.011767197149703550e-04
3.014285714285714235e+00,-2.428597059477205181e-06,9.535691849560316955e-05
3.015079365079365026e+00,-3.423057453023298091e-06,7.883823656873223439e-05
3.015873015873015817e+00,-4.298376360038115647e-06,5.584729710190749092e-05
3.016666666666666607e+00,-4.928568466960531426e-06,3.127482392373482018e-05
3.017460317460317398e+00,-5.216347578951348379e-06,9.661453438228313103e-06
3.018253968253968189e+00,-5.108573055292982637e-06,-5.693672694947372954e-06
3.019047619047618980e+00,-4.600351959171631681e-06,-1.333561065231143702e-05
3.019841269841269771e+00,-3.727105611574113414e-06,-1.381980078730143850e-05
3.020634920634920562e+00,-2.548256771283094308e-06,-9.375882924609010532e-06
3.021428571428571352e+00,-1.129635273120500496e-06,-3.137555424307199278e-06
3.022222222222222143e+00,4.664947711609903501e-07,1.855378128186894346e-06
3.023015873015872934e+00,2.176304898274852032e-06,3.593261833900288776e-06
3.023809523809523725e+00,3.912822708778882202e-06,1.690184497677240447e-06
3.024603174603174516e+00,5.535832232442567552e-06,-2.545819414190828219e-06
3.025396825396825307e+00,6.828590757216585871e-06,-6.591173089577780438e-06
3.026190476190476097e+00,7.497436705676794623e-06,-7.598138744784685478e-06
3.026984126984126888e+00,7.203507408689835831e-06,-3.436185780369230031e-06
3.027777777777777679e+00,5.624627725123389824e-06,6.445949026263556154e-06
3.028571428571428470e+00,2.535528699160912688e-06,2.063989805125245920e-05
3.029365079365079261e+00,-2.109233607405099122e-06,3.603973751469535667e-05
3.030158730158730052e+00,-8.102948128350415889e-06,4.868477616562821213e-05
3.030952380952380842e+00,-1.493621036095875376e-05,5.491064819087138049e-05
3.031746031746031633e+00,-2.178405517631378798e-05,5.242832686286204004e-05
3.032539682539682424e+00,-2.755549335345539179e-05,4.098204994907979283e-05
3.033333333333333215e+00,-3.103103630227127633e-05,2.238861807760344794e-05
3.034126984126984006e+00,-3.109445142018027968e-05,-2.448683182757910704e-08
3.034920634920634797e+00,-2.702415756357608899e-05,-2.236453882632695889e-05
3.035714285714285587e+00,-1.876281962641510967e-05,-4.117565490066290641e-05
3.036507936507936378e+00,-7.059309781405494280e-06,-5.418962280597755901e-05
3.037301587301587169e+00,6.599383212090857369e-06,-6.064081088533948837e-05
3.038095238095237960e+00,2.027549751219617238e-05,-6.112330277675587405e-05
3.038888888888888751e+00,3.200369666783830488e-05,-5.710970649134465229e-05
3.039682539682539542e+00,4.020549852831413533e-05,-5.033324129260339131e-05
3.040476190476190332e+00,4.395953317892701797e-05,-4.224035535576484238e-05
3.041269841269841123e+00,4.306763751502535486e-05,-3.365975369049927716e-05
3.042063492063491914e+00,3.795038028247240330e-05,-2.474496793653251943e-05
3.042857142857142705e+00,2.946207382892921365e-05,-1.517268965047818901e-05
3.043650793650793496e+00,1.871192203979363467e-05,-4.526980415219971729e-06
3.044444444444444287e+00,6.932992128672255085e-06,7.245381386797070858e-06
3.045238095238095077e+00,-4.608593009571100701e-06,1.946357014922954202e-05
3.046031746031745868e+00,-1.469724930898430332e-05,3.059039344093977049e-05
3.046825396825396659e+00,-2.227334136671895497e-05,3.846905343099542773e-05
3.047619047619047450e+00,-2.656709729475130452e-05,4.090374202090993761e-05
3.048412698412698241e+00,-2.723938549997006157e-05,3.642005172712723407e-05
3.049206349206349032e+00,-2.448290945876588215e-05,2.494869446854815773e-05
3.049999999999999822e+00,-1.902929660357755167e-05,8.190118465616979762e-06
3.050793650793650613e+00,-1.202881676641754656e-05,-1.048155500711501235e-05
3.051587301587301404e+00,-4.816169338241379079e-06,-2.658993794605717256e-05
3.052380952380952195e+00,1.375856855219404946e-06,-3.550861254531808382e-05
3.053174603174602986e+00,5.669854509686293797e-06,-3.361542838564321819e-05
3.053968253968253777e+00,7.692558126779746114e-06,-1.940281512751464483e-05
3.054761904761904567e+00,7.587121084158048296e-06,5.748717665465012336e-06
3.055555555555555358e+00,5.902929147576726748e-06,3.742673084914977140e-05
3.056349206349206149e+00,3.409472751777609779e-06,6.887381254681893504e-05
3.057142857142856940e+00,8.920676685244682206e-07,9.248616403492826801e-05
3.057936507936507731e+00,-1.020080237773971881e-06,1.017861145313037839e-04
3.058730158730158522e+00,-1.961200679361827051e-06,9.325902969893699055e-05
3.059523809523809312e+00,-1.860880938908492532e-06,6.741154726678795332e-05
3.060317460317460103e+00,-9.087142993935312619e-07,2.867811052578127172e-05
3.061111111111110894e+00,5.276094917046069553e-07,-1.576493110728419725e-05
3.061904761904761685e+00,2.005658332840278454e-06,-5.784590684901349085e-05
3.062698412698412920e+00,3.110924587949968285e-06,-9.050179680120796046e-05
3.063492063492063711e+00,3.543286282369197123e-06,-1.090982040927911069e-04
3.064285714285714501e+00,3.177366553023649973e-06,-1.120736842484802459e-04
3.065079365079365292e+00,2.089444258386513510e-06,-1.008251445489990024e-04
3.065873015873016083e+00,5.447838160969307553e-07,-7.904945109706631176e-05
3.066666666666666874e+00,-1.057350116352260170e-06,-5.177680593229970425e-05
3.067460317460317665e+00,-2.275838360324134213e-06,-2.427316777194681347e-05
3.068253968253968456e+00,-2.740311632293189969e-06,-9.841698313238670443e-07
3.069047619047619246e+00,-2.256819274826877767e-06,1.526274654228580846e-05
3.069841269841270037e+00,-8.754915697264815642e-07,2.360053202064025794e-05
3.070634920634920828e+00,1.104208120761518376e-06,2.494667361263593788e-05
3.071428571428571619e+00,3.199815502277900456e-06,2.142282204130403815e-05
3.072222222222222410e+00,4.873132112751817550e-06,1.559348097955095132e-05
3.073015873015873201e+00,5.686850941086316413e-06,9.754067839754842134e-06
3.073809523809523991e+00,5.442718651200231388e-06,5.433876147298739788e-06
3.074603174603174782e+00,4.251748959168466940e-06,3.190636233799056613e-06
3.075396825396825573e+00,2.506626532202146914e-06,2.691426442757571198e-06
3.076190476190476364e+00,7.614427291181925628e-07,3.013330850246857916e-06
3.076984126984127155e+00,-4.419125992597729570e-07,3.060731895258812985e-06
3.077777777777777946e+00,-7.425051918639208472e-07,1.984059083696623720e-06
3.078571428571428736e+00,-6.811767315329965566e-08,-5.052763541172046285e-07
3.079365079365079527e+00,1.352644599457849552e-06,-4.000182849683423645e-06
3.080158730158730318e+00,3.074116438665581600e-06,-7.476006153001647328e-06
3.080952380952381109e+00,4.578091377718839388e-06,-9.561798419231450866e-06
3.081746031746031900e+00,5.423266207197075075e-06,-8.934687049638067495e-06
3.082539682539682691e+00,5.348190855600560190e-06,-4.731039714367209918e-06
3.083333333333333481e+00,4.302988024075397683e-06,3.142973196524821600e-06
3.084126984126984272e+00,2.418090145453972303e-06,1.389789644394155195e-05
3.084920634920635063e+00,-6.058897315015109081e-08,2.598945215537504599e-05
3.085714285714285854e+00,-2.838524300226598324e-06,3.746457274087030030e-05
3.086507936507936645e+00,-5.621007519142112553e-06,4.643364026053885561e-05
3.087301587301587436e+00,-8.136861207983835930e-06,5.152927731321466266e-05
3.088095238095238226e+00,-1.014271445838717541e-05,5.219644892541620238e-05
3.088888888888889017e+00,-1.142024906835065645e-05,4.869531699161339225e-05
3.089682539682539808e+00,-1.178052985460600230e-05,4.180040771773430936e-05
3.090476190476190599e+00,-1.108486165853244914e-05,3.232377663476276180e-05
3.091269841269841390e+00,-9.281632574106936213e-06,2.070822967255140940e-05
3.092063492063492181e+00,-6.447430769754128263e-06,6.948940515946689107e-06
3.092857142857142971e+00,-2.813773947333409638e-06,-9.041017833878685003e-06
3.093650793650793762e+00,1.238099780825159273e-06,-2.677626253932645616e-05
3.094444444444444553e+00,5.222280773004555753e-06,-4.466571454920986777e-05
3.095238095238095344e+00,8.626329672623842261e-06,-6.003658940036166625e-05
3.096031746031746135e+00,1.100287814998199025e-05,-6.985119776057476773e-05
3.096825396825396925e+00,1.205035146353985949e-05,-7.179602125015631300e-05
3.097619047619047716e+00,1.166360247684950851e-05,-6.516057808395797418e-05
3.098412698412698507e+00,9.946183214508073279e-06,-5.107105664912867218e-05
3.099206349206349298e+00,7.186676074859253490e-06,-3.206679276499860672e-05
3.100000000000000089e+00,3.808032686560693449e-06,-1.135081277008363198e-05
3.100793650793650880e+00,3.006073011692776218e-07,7.920777296954243022e-06
3.101587301587301670e+00,-2.851708204667706603e-06,2.314060438922933981e-05
3.102380952380952461e+00,-5.244130831615366086e-06,3.255782238804241741e-05
3.103174603174603252e+00,-6.613396022319280853e-06,3.544791836673769943e-05
3.103968253968254043e+00,-6.879084412961920808e-06,3.214922020806920011e-05
3.104761904761904834e+00,-6.154198540222365295e-06,2.394071148703479275e-05
3.105555555555555625e+00,-4.721241132673561790e-06,1.276884770389935711e-05
3.106349206349206415e+00,-2.977854419104614329e-06,8.845520124562923696e-07
3.107142857142857206e+00,-1.361741914465263152e-06,-9.526741883947190552e-06
3.107936507936507997e+00,-2.668025161877445366e-07,-1.665791923812917158e-05
3.108730158730158788e+00,3.741660192415515682e-08,-1.930651852864446842e-05
3.109523809523809579e+00,-5.293906214497821518e-07,-1.701105674336955196e-05
3.110317460317460370e+00,-1.822688478914489231e-06,-1.010196672360358011e-05
3.111111111111111160e+00,-3.481366250119255887e-06,3.335204318509042185e-07
3.111904761904761951e+00,-4.991128559905288803e-06,1.258208829660530001e-05
3.112698412698412742e+00,-5.802674491862863409e-06,2.454172802107153608e-05
3.113492063492063533e+00,-5.484440146071914051e-06,3.406183492388917906e-05
3.114285714285714324e+00,-3.868110764310051273e-06,3.934790743297312448e-05
3.115079365079365115e+00,-1.134044754643483726e-06,3.935085267435705286e-05
3.115873015873015905e+00,2.205127808003970827e-06,3.403571117044181974e-05
3.116666666666666696e+00,5.429568647869269205e-06,2.443810056787161882e-05
3.117460317460317487e+00,7.808498387879182976e-06,1.246901749348270819e-05
3.118253968253968278e+00,8.800435388778243384e-06,4.974798553343431563e-07
3.119047619047619069e+00,8.191406530767779263e-06,-9.199528498909372463e-06
3.119841269841269860e+00,6.133894513409041259e-06,-1.499149743267619694e-05
3.120634920634920650e+00,3.086653089678860912e-06,-1.631019160837997832e-05
3.121428571428571441e+00,-3.165839868732950449e-07,-1.379882154237565861e-05
3.122222222222222232e+00,-3.429015892085500098e-06,-9.118090270547723331e-06
3.123015873015873023e+00,-5.741923671491728914e-06,-4.417475445135978674e-06
3.123809523809523814e+00,-6.989599615151254614e-06,-1.585699205119499083e-06
3.124603174603174605e+00,-7.184502870318885909e-06,-1.501989474565946032e-06
3.125396825396825395e+00,-6.577086978492106744e-06,-3.578780436303632633e-06
3.126190476190476186e+00,-5.555424567824959337e-06,-5.850536055654001934e-06
3.126984126984126977e+00,-4.516411978843968921e-06,-5.684478476678447783e-06
3.127777777777777768e+00,-3.747154574162198824e-06,-9.196048313641427501e-07
3.128571428571428559e+00,-3.350275856738132048e-06,8.995453208395047043e-06
3.129365079365079350e+00,-3.232461442240722176e-06,2.237738335910501909e-05
3.130158730158730140e+00,-3.155999601010062830e-06,3.556711467027460512e-05
3.130952380952380931e+00,-2.834009102583580371e-06,4.408828417184523009e-05
3.131746031746031722e+00,-2.037181067063074084e-06,4.428280445436207953e-05
3.132539682539682513e+00,-6.775257720965480661e-07,3.472762351373053652e-05
3.133333333333333304e+00,1.155926371262003668e-06,1.682259473709587773e-05
3.134126984126984095e+00,3.216453325567286787e-06,-5.660576566765564867e-06
3.134920634920634885e+00,5.162095844872629277e-06,-2.781870892712828486e-05
3.135714285714285676e+00,6.638421146567592638e-06,-4.512143213185924406e-05
3.136507936507936467e+00,7.359261996480244590e-06,-5.463960447265123747e-05
3.137301587301587258e+00,7.170418416931091530e-06,-5.564214883649796996e-05
3.138095238095238049e+00,6.087995277445467022e-06,-4.947551871511254640e-05
3.138888888888888840e+00,4.305921573935188691e-06,-3.888573632429913167e-05
3.139682539682539630e+00,2.168523492351634882e-06,-2.708371379021813622e-05
3.140476190476190421e+00,1.072038100384671516e-07,-1.686537199627699500e-05
3.141269841269841212e+00,-1.452863223323793583e-06,-1.001197798839764407e-05
3.142063492063492003e+00,-2.199191074522167932e-06,-7.070274392657197781e-06
3.142857142857142794e+00,-2.022375240267651267e-06,-7.490823182900117296e-06
3.143650793650793585e+00,-1.055325592181351831e-06,-1.001143393287508693e-05
3.144444444444444375e+00,3.632125176665264207e-07,-1.312847619055432799e-05
3.145238095238095166e+00,1.796543357119876887e-06,-1.551192367762345341e-05
3.146031746031745957e+00,2.850668313471845014e-06,-1.627591822984711029e-05
3.146825396825396748e+00,3.290404501508277365e-06,-1.508049213241903283e-05
3.147619047619047539e+00,3.084445927300206592e-06,-1.208388096698101178e-05
3.148412698412698330e+00,2.368361762557346037e-06,-7.785949352906723094e-06
3.149206349206349120e+00,1.354588297109926796e-06,-2.814101950348427809e-06
3.149999999999999911e+00,2.402116954958164657e-07,2.288929423079246623e-06
3.150793650793650702e+00,-8.442333709768857769e-07,7.215083748952414522e-06
3.151587301587301493e+00,-1.830761420938075575e-06,1.193185234072467858e-05
3.152380952380952284e+00,-2.671169044257702875e-06,1.659609844630779895e-05
3.153174603174603075e+00,-3.287797117803368098e-06,2.136155937067731842e-05
3.153968253968253865e+00,-3.548228323916967065e-06,2.613990320621962569e-05
3.154761904761904656e+00,-3.281477981795312594e-06,3.040354061459460495e-05
3.155555555555555447e+00,-2.336259373529756308e-06,3.312371765953539001e-05
3.156349206349206238e+00,-6.638795323326461265e-07,3.291075667282311487e-05
3.157142857142857029e+00,1.607506185158948649e-06,2.836598665329008903e-05
3.157936507936507819e+00,4.147071073788546234e-06,1.858172216730879259e-05
3.158730158730158610e+00,6.472911435453190130e-06,3.658901611409695273e-06
3.159523809523809401e+00,8.080846061112901762e-06,-1.492724263240874724e-05
3.160317460317460192e+00,8.613438045140152854e-06,-3.427805663715328651e-05
3.161111111111110983e+00,8.006564240212081391e-06,-5.044426807574750013e-05
3.161904761904761774e+00,6.551358519092890347e-06,-5.921795349396257005e-05
3.162698412698412564e+00,4.837397408100276385e-06,-5.720720212435200121e-05
3.163492063492063355e+00,3.585502389498146749e-06,-4.293046968769223331e-05
3.164285714285714146e+00,3.417440406546454754e-06,-1.758550063336693434e-05
3.165079365079364937e+00,4.632500422590473608e-06,1.483951450948670172e-05
3.165873015873015728e+00,7.062911179321874811e-06,4.828672412800815773e-05
3.166666666666666519e+00,1.006163894113057188e-05,7.606313141009133857e-05
3.167460317460317309e+00,1.264041139047971049e-05,9.256279271934035092e-05
3.168253968253968100e+00,1.373022547504987292e-05,9.469748310187498300e-05
3.169047619047618891e+00,1.249337532396022202e-05,8.255741977634938479e-05
3.169841269841269682e+00,8.589797266270321610e-06,5.913909075331253649e-05
3.170634920634920473e+00,2.304615603393469129e-06,2.935438308216301736e-05
3.171428571428571264e+00,-5.514387944628487840e-06,-1.218243411148067997e-06
3.172222222222222054e+00,-1.368915563014535459e-05,-2.739374572637373893e-05
3.173015873015872845e+00,-2.102298303745257343e-05,-4.504920882792081853e-05
3.173809523809523636e+00,-2.657151595177169740e-05,-5.148468021365081726e-05
3.174603174603174427e+00,-2.978373023741406810e-05,-4.568086933107688838e-05
3.175396825396825218e+00,-3.049470867231522049e-05,-2.855513551397302906e-05
3.176190476190476009e+00,-2.882149313574298202e-05,-3.104121459361570073e-06
3.176984126984126799e+00,-2.504445364475688712e-05,2.581924472616143590e-05
3.177777777777777590e+00,-1.953923150564203264e-05,5.229088173672895491e-05
3.178571428571428381e+00,-1.277570338267648383e-05,7.061031287253835954e-05
3.179365079365079172e+00,-5.351189873902200744e-06,7.674753152279514010e-05
3.180158730158729963e+00,1.998841839485464729e-06,6.941955331150628003e-05
3.180952380952380754e+00,8.458262584690410402e-06,5.036701380413901886e-05
3.181746031746031544e+00,1.326369049609012853e-05,2.370944286221799346e-05
3.182539682539682335e+00,1.587771606785532750e-05,-5.375936040025311816e-06
3.183333333333333126e+00,1.613952061011000017e-05,-3.215448138368193025e-05
3.184126984126983917e+00,1.433464779683978075e-05,-5.348314276997190683e-05
3.184920634920634708e+00,1.115511622189965191e-05,-6.826246137307973320e-05
3.185714285714285499e+00,7.557574116684663493e-06,-7.714430933751937735e-05
3.186507936507936289e+00,4.554118180015275003e-06,-8.171938750887791300e-05
3.187301587301587080e+00,2.982341352092627596e-06,-8.355488904945119815e-05
3.188095238095238315e+00,3.302083498597458258e-06,-8.345317536649411478e-05
3.188888888888889106e+00,5.461572589523051239e-06,-8.118577566582742884e-05
3.189682539682539897e+00,8.866840653141820785e-06,-7.576801857099417243e-05
3.190476190476190688e+00,1.247399465590642532e-05,-6.613449607735401423e-05
3.191269841269841478e+00,1.500267462300643439e-05,-5.192456030751715950e-05
3.192063492063492269e+00,1.524170866546206039e-05,-3.404733611002686282e-05
3.192857142857143060e+00,1.238803398269316565e-05,-1.477732555463328938e-05
3.193650793650793851e+00,6.333887666105323866e-06,2.702378121916432787e-06
3.194444444444444642e+00,-2.193246460602904074e-06,1.519793024633805130e-05
3.195238095238095433e+00,-1.171275321065374194e-05,2.056581142743140462e-05
3.196031746031746223e+00,-2.031027361993120037e-05,1.857489091855956363e-05
3.196825396825397014e+00,-2.612694988027080764e-05,1.124422550823187575e-05
3.197619047619047805e+00,-2.788225508308049742e-05,2.484862549059756599e-06
3.198412698412698596e+00,-2.527101994024409274e-05,-2.911517760337255950e-06
3.199206349206349387e+00,-1.910395280268004301e-05,-6.878154691004493220e-07
3.200000000000000178e+00,-1.112785768787175460e-05,1.145797451988785891e-05
3.200793650793650968e+00,-3.551990887643201794e-06,3.289930961782895207e-05
3.201587301587301759e+00,1.595714327842951532e-06,5.991955143403491591e-05
3.202380952380952550e+00,3.087269145793597297e-06,8.647682007697036490e-05
3.203174603174603341e+00,8.888310352784181362e-07,1.056734984343659273e-04
3.203968253968254132e+00,-3.792958257174470180e-06,1.114634225313211564e-04
3.204761904761904923e+00,-8.818884660936916070e-06,1.001117708846666114e-04
3.205555555555555713e+00,-1.168578678363933201e-05,7.109509624163835276e-05
3.206349206349206504e+00,-1.021072019160676062e-05,2.734030305522298858e-05
3.207142857142857295e+00,-3.175407378023652966e-06,-2.515722477488852461e-05
3.207936507936508086e+00,9.212427249547707749e-06,-7.823428960537979452e-05
3.208730158730158877e+00,2.515945330773943644e-05,-1.228521090288308673e-04
3.209523809523809668e+00,4.150583406293079862e-05,-1.506185364924108130e-04
3.210317460317460458e+00,5.433477064409592656e-05,-1.553186751864333941e-04
3.211111111111111249e+00,5.989483499115421500e-05,-1.341777745274912962e-04
3.211904761904762040e+00,5.565307599343727530e-05,-8.858818704514255765e-05
3.212698412698412831e+00,4.119971191286573165e-05,-2.412930383908944287e-05
3.213492063492063622e+00,1.867915542682614904e-05,5.014400149281544666e-05
3.214285714285714413e+00,-7.508778846689991058e-06,1.230460069639214378e-04
3.215079365079365203e+00,-3.177248614264909936e-05,1.830641677001931225e-04
3.215873015873015994e+00,-4.888170556823086369e-05,2.203762882103246301e-04
3.216666666666666785e+00,-5.549587858642291007e-05,2.287387900647719916e-04
3.217460317460317576e+00,-5.112889750861950299e-05,2.068365754112245103e-04
3.218253968253968367e+00,-3.821513458663096938e-05,1.587155458239401914e-04
3.219047619047619158e+00,-2.126472509652195723e-05,9.307298137760345539e-05
3.219841269841269948e+00,-5.399700922150226277e-06,2.145178072839683719e-05
3.220634920634920739e+00,5.247736448136078210e-06,-4.427536353746431110e-05
3.221428571428571530e+00,8.757832493952467641e-06,-9.446741584304141348e-05
3.222222222222222321e+00,5.875675658574067184e-06,-1.236059313184986318e-04
3.223015873015873112e+00,-4.354476883737665517e-07,-1.310303456328315434e-04
3.223809523809523903e+00,-6.151498922494081518e-06,-1.204322781864963012e-04
3.224603174603174693e+00,-7.623403825160099752e-06,-9.840207511674263030e-05
3.225396825396825484e+00,-2.791709800162250714e-06,-7.254074293802553254e-05
3.226190476190476275e+00,8.191829026650235973e-06,-4.967434700727617054e-05
3.226984126984127066e+00,2.306025943686577855e-05,-3.457422105009605185e-05
3.227777777777777857e+00,3.811857879199416705e-05,-2.936919591978649050e-05
3.228571428571428648e+00,4.924203644173113007e-05,-3.361587281527351589e-05
3.229365079365079438e+00,5.288856578197836868e-05,-4.483628260776413105e-05
3.230158730158730229e+00,4.691072978009022307e-05,-5.927607652336772023e-05
3.230952380952381020e+00,3.105330975750833516e-05,-7.267710902743482161e-05
3.231746031746031811e+00,7.081001839328673399e-06,-8.095595474108144101e-05
3.232539682539682602e+00,-2.149571141712189830e-05,-8.077906159447425193e-05
3.233333333333333393e+00,-5.008145626477604608e-05,-7.007725751819143638e-05
3.234126984126984183e+00,-7.392627454994518004e-05,-4.852056903184057780e-05
3.234920634920634974e+00,-8.909775219835255943e-05,-1.788497279113193973e-05
