Timestamp,Flexor carpi radialis,Extensor digitorum
2.000000000000000000e+00,1.099977328044521467e-05,-2.029024713219640790e-05
2.000793650793650791e+00,9.592907674906584210e-06,-1.674540598128988961e-05
2.001587301587301582e+00,8.035277028877019670e-06,-1.022843786983305968e-05
2.002380952380952372e+00,6.163543693034932846e-06,-2.641352596616684261e-06
2.003174603174603163e+00,3.702914150572057282e-06,4.149051311492077752e-06
2.003968253968253954e+00,4.270440066252524222e-07,8.807722069116362718e-06
2.004761904761904745e+00,-3.677697285009014292e-06,1.081283384163475663e-05
2.005555555555555536e+00,-8.306426102040417688e-06,1.046591431169790344e-05
2.006349206349206327e+00,-1.283491136464346368e-05,8.665461769970701450e-06
2.007142857142857117e+00,-1.643505336738556804e-05,6.541872278998302463e-06
2.007936507936507908e+00,-1.827804776155514125e-05,5.072658284451225063e-06
2.008730158730158699e+00,-1.776632202201881779e-05,4.784408986477690662e-06
2.009523809523809490e+00,-1.472365360374977291e-05,5.618012203183163830e-06
2.010317460317460281e+00,-9.482555749084422029e-06,6.993734410025215901e-06
2.011111111111111072e+00,-2.836586011279953124e-06,8.060828785080478815e-06
2.011904761904761862e+00,4.134933541747476522e-06,8.056314364468452699e-06
2.012698412698412653e+00,1.032266017188020605e-05,6.648564413881625501e-06
2.013492063492063444e+00,1.484920617344988578e-05,4.129912341326197288e-06
2.014285714285714235e+00,1.725915653123518700e-05,1.365699786156612128e-06
2.015079365079365026e+00,1.758291279429509047e-05,-5.027118614689532340e-07
2.015873015873015817e+00,1.626440632067337820e-05,-5.022135640597732156e-07
2.016666666666666607e+00,1.398716640685632574e-05,1.745522891081011271e-06
2.017460317460317398e+00,1.145861600955033151e-05,5.782946742677655665e-06
2.018253968253968189e+00,9.214633202501703327e-06,1.036909241448905583e-05
2.019047619047618980e+00,7.494016717634080529e-06,1.383447057981608274e-05
2.019841269841269771e+00,6.213295748383355795e-06,1.463953772024772475e-05
2.020634920634920562e+00,5.047399902688399785e-06,1.195609995932073340e-05
2.021428571428571352e+00,3.591713602828477270e-06,6.065220657060393282e-06
2.022222222222222143e+00,1.552731827724346278e-06,-1.590720027518575790e-06
2.023015873015872934e+00,-1.099901924582315921e-06,-8.759957333075763821e-06
2.023809523809523725e+00,-4.077039111190797760e-06,-1.306230324757481338e-05
2.024603174603174516e+00,-6.832034925536134094e-06,-1.280577349966516224e-05
2.025396825396825307e+00,-8.720377916519629635e-06,-7.682880607741341252e-06
2.026190476190476097e+00,-9.203845802555470440e-06,8.942014172306038779e-07
2.026984126984126888e+00,-8.035126421484659938e-06,9.970844498253041515e-06
2.027777777777777679e+00,-5.367047752245582835e-06,1.574909909381248216e-05
2.028571428571428470e+00,-1.751866066605274550e-06,1.465796770350880543e-05
2.029365079365079261e+00,1.974822891262498319e-06,4.509374353095135359e-06
2.030158730158730052e+00,4.900383080080982438e-06,-1.460700094457337620e-05
2.030952380952380842e+00,6.280665968374635118e-06,-3.999608898558117300e-05
2.031746031746031633e+00,5.757092454626964740e-06,-6.676376023312142072e-05
2.032539682539682424e+00,3.476257368599067449e-06,-8.891420027405789962e-05
2.033333333333333215e+00,6.547057249074553189e-08,-1.008651811718806567e-04
2.034126984126984006e+00,-3.536596719132978039e-06,-9.894020148993069516e-05
2.034920634920634797e+00,-6.343763182658607713e-06,-8.238308538674353400e-05
2.035714285714285587e+00,-7.598360244282397560e-06,-5.360557983705311334e-05
2.036507936507936378e+00,-6.976924582212751469e-06,-1.763508660944437462e-05
2.037301587301587169e+00,-4.668825880493344125e-06,1.905015704716084128e-05
2.038095238095237960e+00,-1.309494652824773341e-06,4.999144931645765975e-05
2.038888888888888751e+00,2.209331215964158557e-06,7.018272234990408087e-05
2.039682539682539542e+00,4.994693613882641607e-06,7.714088965467345415e-05
2.040476190476190332e+00,6.395316991954729698e-06,7.135986941960528491e-05
2.041269841269841123e+00,6.159697466993341365e-06,5.603301484366255775e-05
2.042063492063491914e+00,4.467396644430887245e-06,3.611379550515491114e-05
2.042857142857142705e+00,1.836131966536167835e-06,1.696175814206685542e-05
2.043650793650793496e+00,-1.053615567086922727e-06,2.933457264733502937e-06
2.044444444444444287e+00,-3.556080546992630373e-06,-3.704508005345341248e-06
2.045238095238095077e+00,-5.223390480308853647e-06,-3.244188807597112013e-06
2.046031746031745868e+00,-5.896307809136347359e-06,1.746216405685394720e-06
2.046825396825396659e+00,-5.707076575262972606e-06,7.377749929022961223e-06
2.047619047619047450e+00,-5.001210485007211103e-06,9.785522436525910284e-06
2.048412698412698241e+00,-4.205268072256009365e-06,6.446947693176247391e-06
2.049206349206349032e+00,-3.681938228037307174e-06,-2.946976790065841345e-06
2.049999999999999822e+00,-3.616387892893119086e-06,-1.634900989480715398e-05
2.050793650793650613e+00,-3.966590466152159511e-06,-2.998353419755759883e-05
2.051587301587301404e+00,-4.489149928759675677e-06,-3.953088065881894315e-05
2.052380952380952195e+00,-4.828520793197473826e-06,-4.147544361947407346e-05
2.053174603174602986e+00,-4.639411455514682359e-06,-3.418903574344289459e-05
2.053968253968253777e+00,-3.704965028887166088e-06,-1.843441060448305525e-05
2.054761904761904567e+00,-2.017291826840887233e-06,2.821070478578139620e-06
2.055555555555555358e+00,2.021326964483169729e-07,2.518182131114633928e-05
2.056349206349206149e+00,2.550529571565428997e-06,4.394155566629016668e-05
2.057142857142856940e+00,4.551678653564786682e-06,5.522981179861803587e-05
2.057936507936507731e+00,5.795984638030657973e-06,5.689639753660584621e-05
2.058730158730158522e+00,6.070331648128651345e-06,4.893246101496415108e-05
2.059523809523809312e+00,5.433604366059908006e-06,3.335678317360880700e-05
2.060317460317460103e+00,4.209392144845062931e-06,1.362992120747025670e-05
2.061111111111110894e+00,2.895171719427294921e-06,-6.232699509021962159e-06
2.061904761904761685e+00,2.015426590479149075e-06,-2.261290557535903392e-05
2.062698412698412920e+00,1.963738373899989984e-06,-3.306293439469696146e-05
2.063492063492063711e+00,2.881037058693052089e-06,-3.671075601091343735e-05
2.064285714285714501e+00,4.605340543188075177e-06,-3.421780112015163609e-05
2.065079365079365292e+00,6.707214143083990177e-06,-2.734027229339696958e-05
2.065873015873016083e+00,8.600760348041500844e-06,-1.825631355191703148e-05
2.066666666666666874e+00,9.698635174665904793e-06,-8.879290575775774670e-06
2.067460317460317665e+00,9.567358056850277479e-06,-3.671854634105872047e-07
2.068253968253968456e+00,8.039763987984573733e-06,7.034911461023490070e-06
2.069047619047619246e+00,5.254958999419273377e-06,1.379437838912152283e-05
2.069841269841270037e+00,1.618515903012355277e-06,2.062545207935512836e-05
2.070634920634920828e+00,-2.301046078043153935e-06,2.793985994630698180e-05
2.071428571428571619e+00,-5.907975604893804448e-06,3.542680958988925091e-05
2.072222222222222410e+00,-8.712074243020008444e-06,4.193715552025636993e-05
2.073015873015873201e+00,-1.042864803964553468e-05,4.574827157656154197e-05
2.073809523809523991e+00,-1.102441759361164041e-05,4.515609565002883771e-05
2.074603174603174782e+00,-1.069893727047614777e-05,3.921408605285396436e-05
2.075396825396825573e+00,-9.805622669527398017e-06,2.835454080276677885e-05
2.076190476190476364e+00,-8.733926897065855948e-06,1.462543321148274532e-05
2.076984126984127155e+00,-7.788593141232677259e-06,1.375214907049197953e-06
2.077777777777777946e+00,-7.105406844235232514e-06,-7.602840156241035773e-06
2.078571428571428736e+00,-6.631006944058642958e-06,-9.255523383918412791e-06
2.079365079365079527e+00,-6.170203563761186293e-06,-2.424960370676407156e-06
2.080158730158730318e+00,-5.478782370847570135e-06,1.142037060010627133e-05
2.080952380952381109e+00,-4.365579190340999662e-06,2.817570502393901689e-05
2.081746031746031900e+00,-2.770118562091924413e-06,4.190793210192865828e-05
2.082539682539682691e+00,-7.958877725142864098e-07,4.634150129780334639e-05
2.083333333333333481e+00,1.306267534810489046e-06,3.667174599488472306e-05
2.084126984126984272e+00,3.200666091653000186e-06,1.121857641541760433e-05
2.084920634920635063e+00,4.562835214153946342e-06,-2.758814795561599769e-05
2.085714285714285854e+00,5.183888486709408291e-06,-7.328134873563648375e-05
2.086507936507936645e+00,5.045906760010309453e-06,-1.166199918959022762e-04
2.087301587301587436e+00,4.333170183691695805e-06,-1.478172259147087723e-04
2.088095238095238226e+00,3.367096703685444392e-06,-1.591445636623905319e-04
2.088888888888889017e+00,2.486253757796843799e-06,-1.471145709772911923e-04
2.089682539682539808e+00,1.917828775932275344e-06,-1.135323825156515421e-04
2.090476190476190599e+00,1.690898008060671654e-06,-6.508478358620888786e-05
2.091269841269841390e+00,1.625304615674319370e-06,-1.162552125160462485e-05
2.092063492063492181e+00,1.402360525129975476e-06,3.630215919101072787e-05
2.092857142857142971e+00,6.954568086533481403e-07,7.000490711803060938e-05
2.093650793650793762e+00,-6.823584152020398552e-07,8.459305532363798578e-05
2.094444444444444553e+00,-2.665675342540570784e-06,7.990055631036278383e-05
2.095238095238095344e+00,-4.903966382291336343e-06,6.019851563375388387e-05
2.096031746031746135e+00,-6.830576640971669025e-06,3.282585042807895575e-05
2.096825396825396925e+00,-7.820542130988323190e-06,6.125908328347117288e-06
2.097619047619047716e+00,-7.390047632758482815e-06,-1.274737670812810772e-05
2.098412698412698507e+00,-5.370857010323533782e-06,-1.956588698073384895e-05
2.099206349206349298e+00,-1.997810586768727956e-06,-1.386505549902821982e-05
2.100000000000000089e+00,2.124580822069462684e-06,1.288944980766219611e-06
2.100793650793650880e+00,6.170597905087286080e-06,2.047604721534879629e-05
2.101587301587301670e+00,9.314255239763921082e-06,3.767360472604416600e-05
2.102380952380952461e+00,1.095791423399547971e-05,4.807278769047265194e-05
2.103174603174603252e+00,1.090101768148489543e-05,4.943652302691339752e-05
2.103968253968254043e+00,9.397589446328320632e-06,4.259676613884323394e-05
2.104761904761904834e+00,7.081711827944341911e-06,3.093482467341319525e-05
2.105555555555555625e+00,4.777681777169287453e-06,1.900909524818220224e-05
2.106349206349206415e+00,3.246419317804814747e-06,1.079269686442382445e-05
2.107142857142857206e+00,2.941804186018861395e-06,8.138139578960740613e-06
2.107936507936507997e+00,3.852055534238316733e-06,1.001738262212506004e-05
2.108730158730158788e+00,5.479868159949646806e-06,1.281660595447418644e-05
2.109523809523809579e+00,6.975903228623970897e-06,1.161052259197790838e-05
2.110317460317460370e+00,7.394231544678511025e-06,2.028170226731856486e-06
2.111111111111111160e+00,5.998678691717877941e-06,-1.786886329946760378e-05
2.111904761904761951e+00,2.528002089644514185e-06,-4.630795471347897747e-05
2.112698412698412742e+00,-2.666606436930998121e-06,-7.760527362932972495e-05
2.113492063492063533e+00,-8.665189216269906532e-06,-1.032430950554437551e-04
2.114285714285714324e+00,-1.420403710337790914e-05,-1.140533465710594761e-04
2.115079365079365115e+00,-1.802320129006012398e-05,-1.029616107216491073e-04
2.115873015873015905e+00,-1.923304618392197572e-05,-6.748811791807848794e-05
2.116666666666666696e+00,-1.758503826841324757e-05,-1.118793267745897827e-05
2.117460317460317487e+00,-1.356015082961297533e-05,5.651113670405277632e-05
2.118253968253968278e+00,-8.244317877084691797e-06,1.221404747498735480e-04
2.119047619047619069e+00,-3.023103800658297627e-06,1.712686453802028663e-04
2.119841269841269860e+00,8.205564147412196844e-07,1.920464824283446114e-04
2.120634920634920650e+00,2.491445215465259308e-06,1.782958707631049583e-04
2.121428571428571441e+00,1.933876186591410300e-06,1.313017316818924105e-04
2.122222222222222232e+00,-1.355523073849552957e-07,5.976318451015748859e-05
2.123015873015873023e+00,-2.440234485314536365e-06,-2.217334693847343273e-05
2.123809523809523814e+00,-3.550618213151365465e-06,-9.832894783614873140e-05
2.124603174603174605e+00,-2.365738183233450095e-06,-1.544158717329601816e-04
2.125396825396825395e+00,1.488382596854693074e-06,-1.813431375607999787e-04
2.126190476190476186e+00,7.485722545776930918e-06,-1.769924644458576162e-04
2.126984126984126977e+00,1.432600994893097456e-05,-1.460857142736804394e-04
2.127777777777777768e+00,2.033177336444569035e-05,-9.836376070401851423e-05
2.128571428571428559e+00,2.399218542559260499e-05,-4.572995522509552390e-05
2.129365079365079350e+00,2.447182253153375585e-05,8.106916187177350701e-07
2.130158730158730140e+00,2.190681181306176439e-05,3.363927534391569172e-05
2.130952380952380931e+00,1.737543396520223587e-05,4.988266976416934491e-05
2.131746031746031722e+00,1.253326251246379659e-05,5.141146309445497441e-05
2.132539682539682513e+00,9.015164037386897103e-06,4.359438101757963206e-05
2.133333333333333304e+00,7.797758527330329425e-06,3.324238705159944789e-05
2.134126984126984095e+00,8.753125134081845413e-06,2.637843027554889806e-05
2.134920634920634885e+00,1.058075972905989234e-05,2.648429548782199814e-05
2.135714285714285676e+00,1.118242506918846659e-05,3.368333086534497822e-05
2.136507936507936467e+00,8.385562174229004701e-06,4.499629665896440986e-05
2.137301587301587258e+00,7.878718506059837429e-07,5.549343657552728803e-05
2.138095238095238049e+00,-1.156041169196648031e-05,5.995552180162603471e-05
2.138888888888888840e+00,-2.688043719937371613e-05,5.456868748090948400e-05
2.139682539682539630e+00,-4.191979386340517142e-05,3.819340024161332854e-05
2.140476190476190421e+00,-5.270606294849174915e-05,1.285393611321297447e-05
2.141269841269841212e+00,-5.561739624122190811e-05,-1.671080599151987111e-05
2.142063492063492003e+00,-4.848677304599795902e-05,-4.432791529306369675e-05
2.142857142857142794e+00,-3.142444798013492406e-05,-6.412252100438147666e-05
2.143650793650793585e+00,-7.091420160514040426e-06,-7.215667926874699540e-05
2.144444444444444375e+00,1.971540645926927429e-05,-6.746537487006153870e-05
2.145238095238095166e+00,4.311925638051754939e-05,-5.220013386213182330e-05
2.146031746031745957e+00,5.761539415874117841e-05,-3.088630792892022524e-05
2.146825396825396748e+00,5.952837948881471112e-05,-9.054691023773633350e-06
2.147619047619047539e+00,4.805135136689471113e-05,8.339667676226660106e-06
2.148412698412698330e+00,2.554702222616550292e-05,1.826377087139763734e-05
2.149206349206349120e+00,-3.001097336404236334e-06,2.034895877866970372e-05
2.149999999999999911e+00,-3.125150423274064711e-05,1.683379308219898644e-05
2.150793650793650702e+00,-5.313316990065437135e-05,1.173939178531036468e-05
2.151587301587301493e+00,-6.437453950101816385e-05,9.526246142867269664e-06
2.152380952380952284e+00,-6.349023877401682476e-05,1.362503817431740503e-05
2.153174603174603075e+00,-5.195069181380622240e-05,2.526502195303678987e-05
2.153968253968253865e+00,-3.352262177909854740e-05,4.293912493198174862e-05
2.154761904761904656e+00,-1.302756960256981691e-05,6.267407858904628477e-05
2.155555555555555447e+00,5.075609010064570613e-06,7.906387620978034853e-05
2.156349206349206238e+00,1.786414984373846477e-05,8.682150237650953411e-05
2.157142857142857029e+00,2.457163282384032242e-05,8.244092457481681671e-05
2.157936507936507819e+00,2.652687110691470334e-05,6.547313900932121304e-05
2.158730158730158610e+00,2.647585119739956911e-05,3.895834094641923838e-05
2.159523809523809401e+00,2.751114322370938638e-05,8.767880690539583269e-06
2.160317460317460192e+00,3.193142321187187493e-05,-1.802834383444126289e-05
2.161111111111110983e+00,4.037265780814740235e-05,-3.527540065164518518e-05
2.161904761904761774e+00,5.148367005481755424e-05,-3.962962413296083848e-05
2.162698412698412564e+00,6.226782885275050465e-05,-3.161608884118897989e-05
2.163492063492063355e+00,6.901011885644387064e-05,-1.552276138006677324e-05
2.164285714285714146e+00,6.851336338810675504e-05,1.834145105629406440e-06
2.165079365079364937e+00,5.924885400796970117e-05,1.313630322778123021e-05
2.165873015873015728e+00,4.203570127687227253e-05,1.283275970934583385e-05
2.166666666666666519e+00,2.000278497656017917e-05,-9.970148082980866465e-07
2.167460317460317309e+00,-2.191590817294144418e-06,-2.578676508095279149e-05
2.168253968253968100e+00,-1.967754217676783850e-05,-5.499715426631628969e-05
2.169047619047618891e+00,-2.885042142505019777e-05,-7.996149866055236020e-05
2.169841269841269682e+00,-2.855587678381687583e-05,-9.256855445217372007e-05
2.170634920634920473e+00,-2.059052754954339147e-05,-8.794970782135662921e-05
2.171428571428571264e+00,-9.312931510931800165e-06,-6.627739806355248690e-05
2.172222222222222054e+00,-4.274189791710748743e-07,-3.303921332140318505e-05
2.173015873015872845e+00,7.333354553211828279e-07,2.369711819935968590e-06
2.173809523809523636e+00,-9.071946412021773541e-06,2.936057931142657825e-05
2.174603174603174427e+00,-2.979591617333625402e-05,3.936927051109736348e-05
2.175396825396825218e+00,-5.781759065452031493e-05,2.858375370348554227e-05
2.176190476190476009e+00,-8.670111326706325878e-05,-7.043834866048309743e-07
2.176984126984126799e+00,-1.088285003551947317e-04,-4.060700895489637372e-05
2.177777777777777590e+00,-1.174803620643771843e-04,-7.989878991287184724e-05
2.178571428571428381e+00,-1.087942385492491362e-04,-1.073274316930871721e-04
2.179365079365079172e+00,-8.303650442184016276e-05,-1.148936546112794071e-04
2.180158730158729963e+00,-4.479114500007876922e-05,-1.000347243234979341e-04
2.180952380952380754e+00,-1.966143888568709856e-06,-6.606837836511773865e-05
2.181746031746031544e+00,3.613649455978249137e-05,-2.088447292729483804e-05
2.182539682539682335e+00,6.116110325929229041e-05,2.557705819219391829e-05
2.183333333333333126e+00,6.780459993625470388e-05,6.423204200797129749e-05
2.184126984126983917e+00,5.512232685329755910e-05,8.929386936724095737e-05
2.184920634920634708e+00,2.670486224410169028e-05,9.958855849586006925e-05
2.185714285714285499e+00,-1.028993302757221649e-05,9.840322000875093597e-05
2.186507936507936289e+00,-4.696737178571803566e-05,9.193675780429224015e-05
2.187301587301587080e+00,-7.489298405970518297e-05,8.683915661495586718e-05
2.188095238095238315e+00,-8.807688577325311404e-05,8.763218876896644517e-05
2.188888888888889106e+00,-8.423715393872628166e-05,9.487490510272223571e-05
2.189682539682539897e+00,-6.504889649706927987e-05,1.047161554274350604e-04
2.190476190476190688e+00,-3.538416465600862753e-05,1.100271716789684949e-04
2.191269841269841478e+00,-1.829424967312679510e-06,1.027885903665204734e-04
2.192063492063492269e+00,2.906166697115923254e-05,7.699336728581357881e-05
2.192857142857143060e+00,5.230322670626193497e-05,3.114531330242029008e-05
2.193650793650793851e+00,6.543685745101396095e-05,-3.046749731932258594e-05
2.194444444444444642e+00,6.874580721274972021e-05,-9.819514433022327358e-05
2.195238095238095433e+00,6.476150552685271805e-05,-1.591149711007941469e-04
2.196031746031746223e+00,5.727109252401380154e-05,-2.002470940543204527e-04
2.196825396825397014e+00,5.013323372900547900e-05,-2.119830262094105165e-04
2.197619047619047805e+00,4.622193994898385084e-05,-1.907194165575337209e-04
2.198412698412698596e+00,4.675015021193394021e-05,-1.399365389920080994e-04
2.199206349206349387e+00,5.110219865949097712e-05,-6.945780836024315942e-05
2.200000000000000178e+00,5.716499421031537645e-05,6.843979060729679804e-06
2.200793650793650968e+00,6.202780755119932643e-05,7.425276624078954769e-05
2.201587301587301759e+00,6.284424347067105675e-05,1.205244719188862526e-04
2.202380952380952550e+00,5.762868587042239835e-05,1.385298661929444122e-04
2.203174603174603341e+00,4.579256456390447407e-05,1.276151030112030057e-04
2.203968253968254132e+00,2.830125060262620780e-05,9.337075593278537102e-05
2.204761904761904923e+00,7.431399713904031307e-06,4.589339070173500533e-05
2.205555555555555713e+00,-1.378974531640457082e-05,-2.970793664217429855e-06
2.206349206349206504e+00,-3.230003037645129914e-05,-4.261783208307685390e-05
2.207142857142857295e+00,-4.567287125998603810e-05,-6.607965418043920485e-05
2.207936507936508086e+00,-5.256576828422936261e-05,-7.121727461523749778e-05
2.208730158730158877e+00,-5.284779754000937994e-05,-6.052011933500529362e-05
2.209523809523809668e+00,-4.740944562705557390e-05,-3.972506672715504122e-05
2.210317460317460458e+00,-3.774917821493013211e-05,-1.575071012332510248e-05
2.211111111111111249e+00,-2.548623220768928119e-05,5.432056244859777549e-06
2.211904761904762040e+00,-1.195881540179631857e-05,2.039704089538901208e-05
2.212698412698412831e+00,1.969026092596258158e-06,2.889898033564370112e-05
2.213492063492063622e+00,1.584276169919563183e-05,3.340542611044719571e-05
2.214285714285714413e+00,2.933983904706535171e-05,3.771867613837165081e-05
2.215079365079365203e+00,4.190861145943511307e-05,4.517419248635423965e-05
2.215873015873015994e+00,5.249567525281310161e-05,5.704377071720485539e-05
2.216666666666666785e+00,5.951278600700444631e-05,7.170197496301121355e-05
2.217460317460317576e+00,6.111198905247105877e-05,8.485460406346668452e-05
2.218253968253968367e+00,5.571972295705475610e-05,9.077638153342322200e-05
2.219047619047619158e+00,4.266875059772875909e-05,8.418210270870262824e-05
2.219841269841269948e+00,2.270315098861510033e-05,6.215159451248322394e-05
2.220634920634920739e+00,-1.854575266105361430e-06,2.549224525764457917e-05
2.221428571428571530e+00,-2.739176848480449460e-05,-2.093421720817538578e-05
2.222222222222222321e+00,-4.972241284054663627e-05,-6.909849798726387410e-05
2.223015873015873112e+00,-6.505816038661415906e-05,-1.097047491370564708e-04
2.223809523809523903e+00,-7.095830414332244586e-05,-1.345609073529822853e-04
2.224603174603174693e+00,-6.696889476020998855e-05,-1.386962961415117324e-04
2.225396825396825484e+00,-5.474804015073495537e-05,-1.215916126120680432e-04
2.226190476190476275e+00,-3.763537939121831935e-05,-8.720593439856006172e-05
2.226984126984127066e+00,-1.979440652614889221e-05,-4.287847719751351088e-05
2.227777777777777857e+00,-5.172216868495264395e-06,2.517177819131826194e-06
2.228571428571428648e+00,3.446493399631513290e-06,4.065048389073678447e-05
2.229365079365079438e+00,5.057226333698339028e-06,6.553174787914279058e-05
2.230158730158730229e+00,5.845718002642478801e-07,7.462743567483990281e-05
2.230952380952381020e+00,-7.461291492471849110e-06,6.907189433358227823e-05
2.231746031746031811e+00,-1.572699194484408945e-05,5.297930284501875872e-05
2.232539682539682602e+00,-2.096758146091599401e-05,3.208612023818508779e-05
2.233333333333333393e+00,-2.096004003683199645e-05,1.212777465451399814e-05
2.234126984126984183e+00,-1.512977013327841670e-05,-2.587787920427096709e-06
2.234920634920634974e+00,-4.707417471852486549e-06,-1.003956051736887291e-05
2.235714285714285765e+00,7.640552947818807109e-06,-1.062645030910604671e-05
2.236507936507936556e+00,1.861121190203869668e-05,-6.644624441399171814e-06
2.237301587301587347e+00,2.526514711549397740e-05,-1.338817409756933780e-06
2.238095238095238138e+00,2.592775416063702713e-05,2.179999011488900851e-06
2.238888888888888928e+00,2.071187373114014791e-05,1.865331134498339578e-06
2.239682539682539719e+00,1.149000818513238833e-05,-2.718659372832229688e-06
2.240476190476190510e+00,1.311279977867996532e-06,-1.037289110050595368e-05
2.241269841269841301e+00,-6.565215226588731324e-06,-1.875562310665698947e-05
2.242063492063492092e+00,-9.717477614584492577e-06,-2.521948694300050597e-05
2.242857142857142883e+00,-7.347351190901275587e-06,-2.769833845335494666e-05
2.243650793650793673e+00,-5.469387879457115376e-07,-2.534044013956681296e-05
2.244444444444444464e+00,8.039854690676143684e-06,-1.869950265837523514e-05
2.245238095238095255e+00,1.504387834445246836e-05,-9.465218769696933022e-06
2.246031746031746046e+00,1.741812269786893616e-05,1.442086661586064666e-07
2.246825396825396837e+00,1.338382933936721281e-05,8.129882872066549254e-06
2.247619047619047628e+00,2.997809377030901395e-06,1.338176151886231500e-05
2.248412698412698418e+00,-1.181595523465650565e-05,1.606751600053537429e-05
2.249206349206349209e+00,-2.776860644108384562e-05,1.759532354681214830e-05
2.250000000000000000e+00,-4.108902714449110140e-05,2.011445103540515175e-05
2.250793650793650791e+00,-4.853098764318024288e-05,2.566674773020413363e-05
2.251587301587301582e+00,-4.822321151217330424e-05,3.524376278087534300e-05
2.252380952380952372e+00,-4.013458532846326897e-05,4.807703722688661983e-05
2.253174603174603163e+00,-2.604126473733269623e-05,6.145304190198129740e-05
2.253968253968253954e+00,-9.023639826939444810e-06,7.119948080144469912e-05
2.254761904761904745e+00,7.351225744371373360e-06,7.277638753255092643e-05
2.255555555555555536e+00,1.992775620863124070e-05,6.268935479126389553e-05
2.256349206349206327e+00,2.669784048260417388e-05,3.979437095111548604e-05
2.257142857142857117e+00,2.719056616433664038e-05,6.042974757637093513e-06
2.257936507936507908e+00,2.243637926884343623e-05,-3.364731209887620748e-05
2.258730158730158699e+00,1.454537642710569175e-05,-7.244049965671368625e-05
2.259523809523809490e+00,6.041742870157779345e-06,-1.032692711180269852e-04
2.260317460317460281e+00,-8.434625784774117422e-07,-1.206416932950131135e-04
2.261111111111111072e+00,-4.718286937939203412e-06,-1.219994282936718314e-04
2.261904761904761862e+00,-5.272286758216285564e-06,-1.082316218774864242e-04
2.262698412698412653e+00,-3.173926701882559193e-06,-8.325305151219800103e-05
2.263492063492063444e+00,3.132309422132808667e-07,-5.284669491748346962e-05
2.264285714285714235e+00,3.855006854214787250e-06,-2.314487828354726311e-05
2.265079365079365026e+00,6.540535437383383212e-06,8.400854956521128954e-07
2.265873015873015817e+00,8.192676066476487089e-06,1.628926830330849104e-05
2.266666666666666607e+00,9.401278221832418849e-06,2.302955990265369274e-05
2.267460317460317398e+00,1.126967716328982262e-05,2.328957221272707123e-05
2.268253968253968189e+00,1.495179323531262616e-05,2.084235573886902772e-05
2.269047619047618980e+00,2.112487249850530845e-05,1.976434227687767718e-05
2.269841269841269771e+00,2.957119079648407590e-05,2.313920341851029395e-05
2.270634920634920562e+00,3.901803751120393253e-05,3.205587469136413585e-05
2.271428571428571352e+00,4.731194654124363407e-05,4.518209540436497258e-05
2.272222222222222143e+00,5.190225690173566896e-05,5.905425159230178204e-05
2.273015873015872934e+00,5.051227356747452094e-05,6.904086566809062610e-05
2.273809523809523725e+00,4.181286900806294318e-05,7.074711833693360082e-05
2.274603174603174516e+00,2.590325681419861236e-05,6.147581555879152440e-05
2.275396825396825307e+00,4.451671396255078976e-06,4.129722197834187079e-05
2.276190476190476097e+00,-1.955951553099081499e-05,1.334906128075905244e-05
2.276984126984126888e+00,-4.243129030970238524e-05,-1.680172691653681837e-05
2.277777777777777679e+00,-6.053872152909742395e-05,-4.259962456137752004e-05
2.278571428571428470e+00,-7.110783948649249619e-05,-5.831722344607472372e-05
2.279365079365079261e+00,-7.277544312641240202e-05,-6.067464383609996883e-05
2.280158730158730052e+00,-6.579870652218410985e-05,-4.975900563557818148e-05
2.280952380952380842e+00,-5.189183203123340241e-05,-2.899008842861978207e-05
2.281746031746031633e+00,-3.377167897143677148e-05,-4.181912325040518946e-06
2.282539682539682424e+00,-1.455516959225069107e-05,1.800727249149256131e-05
2.283333333333333215e+00,2.842143704272014891e-06,3.181213929933754034e-05
2.284126984126984006e+00,1.618936295302605656e-05,3.383762775128158827e-05
2.284920634920634797e+00,2.423546628826939712e-05,2.390317835494932080e-05
2.285714285714285587e+00,2.679142416096104551e-05,5.038322362327771382e-06
2.286507936507936378e+00,2.461240637676290254e-05,-1.737015837936263518e-05
2.287301587301587169e+00,1.912595104996853571e-05,-3.705686651736971764e-05
2.288095238095237960e+00,1.207614770348219576e-05,-4.859170248354046371e-05
2.288888888888888751e+00,5.161939775555218711e-06,-4.887038019408314354e-05
2.289682539682539542e+00,-2.638012141135710011e-07,-3.797201313578429818e-05
2.290476190476190332e+00,-3.391228593412649562e-06,-1.913177445027314420e-05
2.291269841269841123e+00,-4.026198829106138709e-06,2.190677154051872694e-06
2.292063492063491914e+00,-2.535334216796681205e-06,1.991253918772510625e-05
2.292857142857142705e+00,3.237675246851930735e-07,2.915658228914819021e-05
2.293650793650793496e+00,3.652594025043806223e-06,2.776831366541583439e-05
2.294444444444444287e+00,6.681822825973457085e-06,1.704063446089473363e-05
2.295238095238095077e+00,8.984350281793924265e-06,1.379086853043398490e-06
2.296031746031745868e+00,1.056231041119362267e-05,-1.303825223423118357e-05
2.296825396825396659e+00,1.177818404152751282e-05,-2.022151752784358299e-05
2.297619047619047450e+00,1.315522585653330681e-05,-1.634469528230273806e-05
2.298412698412698241e+00,1.511731065880255906e-05,-1.106057799324886901e-06
2.299206349206349032e+00,1.775560430751895458e-05,2.197667626719951479e-05
2.299999999999999822e+00,2.069952236536682573e-05,4.646913104805412741e-05
2.300793650793650613e+00,2.314071731904297256e-05,6.489498418535902941e-05
2.301587301587301404e+00,2.401778419347921353e-05,7.104747099141729401e-05
2.302380952380952195e+00,2.232173647083180376e-05,6.202732757286315659e-05
2.303174603174602986e+00,1.743874245662820904e-05,3.932997983051958636e-05
2.303968253968253777e+00,9.422682514979820927e-06,8.573963624683217369e-06
2.304761904761904567e+00,-9.001712876853190083e-07,-2.209656082503088197e-05
2.305555555555555358e+00,-1.204556767363167087e-05,-4.444457849147319969e-05
2.306349206349206149e+00,-2.218698156165988086e-05,-5.262619586420291568e-05
2.307142857142856940e+00,-2.958963152849010387e-05,-4.494270701110815778e-05
2.307936507936507731e+00,-3.304236968888075836e-05,-2.434045536430441730e-05
2.308730158730158522e+00,-3.216766492583094023e-05,2.451311997159108299e-06
2.309523809523809312e+00,-2.752488491695134380e-05,2.686472386840864365e-05
2.310317460317460103e+00,-2.047853098527685161e-05,4.096198388977958165e-05
2.311111111111110894e+00,-1.286459295446009146e-05,3.973612235127422696e-05
2.311904761904761685e+00,-6.539113748417632240e-06,2.258255986412202070e-05
2.312698412698412920e+00,-2.921624357658758548e-06,-6.503084874778790488e-06
2.313492063492063711e+00,-2.646251187635841839e-06,-4.007210093578813463e-05
2.314285714285714501e+00,-5.405498096409355815e-06,-6.936310874921607333e-05
2.315079365079365292e+00,-1.002413028955306461e-05,-8.677002014029299543e-05
2.315873015873016083e+00,-1.474748737230289155e-05,-8.789467192490107701e-05
2.316666666666666874e+00,-1.768268603853431821e-05,-7.261890163551219779e-05
2.317460317460317665e+00,-1.729709889316540951e-05,-4.496279407329909330e-05
2.318253968253968456e+00,-1.285655060631470455e-05,-1.184391507887216703e-05
2.319047619047619246e+00,-4.682214956320077950e-06,1.887815972943834958e-05
2.319841269841270037e+00,5.865928101545721521e-06,4.053455502636953839e-05
2.320634920634920828e+00,1.670181279265593187e-05,4.939212751319150429e-05
2.321428571428571619e+00,2.554903759899543217e-05,4.554599515830143894e-05
2.322222222222222410e+00,3.054287166598747044e-05,3.271522999125188116e-05
2.323015873015873201e+00,3.071338673025531148e-05,1.700286376332757414e-05
2.323809523809523991e+00,2.620801075466207429e-05,4.989217466754907166e-06
2.324603174603174782e+00,1.820447217488791077e-05,1.726247186587777072e-06
2.325396825396825573e+00,8.563455910397183688e-06,9.214789205610841169e-06
2.326190476190476364e+00,-6.618170778123504066e-07,2.578847084133831097e-05
2.326984126984127155e+00,-7.718760920332458117e-06,4.657179723099634592e-05
2.327777777777777946e+00,-1.152824134133727237e-05,6.489643188167119653e-05
2.328571428571428736e+00,-1.185861777675931798e-05,7.429619732543644875e-05
2.329365079365079527e+00,-9.280681570336018595e-06,7.050995613707805284e-05
2.330158730158730318e+00,-4.940325634961713981e-06,5.287258669703184973e-05
2.330952380952381109e+00,-2.271799694574660241e-07,2.462318115168841832e-05
2.331746031746031900e+00,3.568466887726265598e-06,-8.004043368950069978e-06
2.332539682539682691e+00,5.532687878021899883e-06,-3.761969524161025419e-05
2.333333333333333481e+00,5.291989851767117119e-06,-5.783050784863927459e-05
2.334126984126984272e+00,3.047216251243138264e-06,-6.499566635285319600e-05
2.334920634920635063e+00,-5.186537925068773203e-07,-5.907474647394345314e-05
2.335714285714285854e+00,-4.435405052524908046e-06,-4.340274680520802853e-05
2.336507936507936645e+00,-7.697282620641847722e-06,-2.355678625144220765e-05
2.337301587301587436e+00,-9.507438048036919386e-06,-5.689678667862382600e-06
2.338095238095238226e+00,-9.450194251598853314e-06,5.207195429926636392e-06
2.338888888888889017e+00,-7.548054645634715143e-06,6.661965696644636954e-06
2.339682539682539808e+00,-4.198978229835350309e-06,-6.488487126030302073e-07
2.340476190476190599e+00,-2.970107501747680415e-08,-1.317402230869851802e-05
2.341269841269841390e+00,4.275626838314628201e-06,-2.560613100982290572e-05
2.342063492063492181e+00,8.115947778536645318e-06,-3.254761543285532451e-05
2.342857142857142971e+00,1.105173458276689673e-05,-3.024827770160166279e-05
2.343650793650793762e+00,1.281812429648623352e-05,-1.788954975564602330e-05
2.344444444444444553e+00,1.328996925899917859e-05,1.996202862327532024e-06
2.345238095238095344e+00,1.242825661374031964e-05,2.413648151398129637e-05
2.346031746031746135e+00,1.024186307034528982e-05,4.201603915000293377e-05
2.346825396825396925e+00,6.791562956508799348e-06,4.983432365472423471e-05
2.347619047619047716e+00,2.241619065104631307e-06,4.432473357728147106e-05
2.348412698412698507e+00,-3.066506799904933562e-06,2.584516801927595956e-05
2.349206349206349298e+00,-8.568209551302257776e-06,-1.637594948880134244e-06
2.350000000000000089e+00,-1.350694097714718140e-05,-3.167586490345066863e-05
2.350793650793650880e+00,-1.706015228121324960e-05,-5.719138547243711386e-05
2.351587301587301670e+00,-1.852988424812725300e-05,-7.241408803295291789e-05
2.352380952380952461e+00,-1.753204866396909214e-05,-7.429808505604636594e-05
2.353174603174603252e+00,-1.411429905252950408e-05,-6.305768296491562211e-05
2.353968253968254043e+00,-8.759587139757139029e-06,-4.179611082264547808e-05
2.354761904761904834e+00,-2.273505902540644552e-06,-1.545508877867291368e-05
2.355555555555555625e+00,4.412764370197933441e-06,1.056457446332228147e-05
2.356349206349206415e+00,1.047540115596914266e-05,3.175034154947229092e-05
2.357142857142857206e+00,1.541208398140715648e-05,4.548510829072515115e-05
2.357936507936507997e+00,1.917690972038618418e-05,5.149330547717799369e-05
2.358730158730158788e+00,2.217570069687632177e-05,5.162702137225559445e-05
2.359523809523809579e+00,2.508678721717809524e-05,4.905319713353070379e-05
2.360317460317460370e+00,2.853201653362804052e-05,4.707209013985040353e-05
2.361111111111111160e+00,3.269628310876832830e-05,4.791575492941179423e-05
2.361904761904761951e+00,3.704287321763038098e-05,5.189233678468326163e-05
2.362698412698412742e+00,4.026565487913373809e-05,5.714962892036518625e-05
2.363492063492063533e+00,4.055096249098439064e-05,6.016133383781875317e-05
2.364285714285714324e+00,3.611140853018176373e-05,5.683609433837554724e-05
2.365079365079365115e+00,2.584013684713751038e-05,4.395567223803255514e-05
2.365873015873015905e+00,9.863001207362150722e-06,2.051205001072535435e-05
2.366666666666666696e+00,-1.022871991847715530e-05,-1.151490325324951421e-05
2.367460317460317487e+00,-3.159394551260336607e-05,-4.727672378043144163e-05
2.368253968253968278e+00,-5.078445934515862380e-05,-8.013658149341050432e-05
2.369047619047619069e+00,-6.463029929598144085e-05,-1.034201851341356922e-04
2.369841269841269860e+00,-7.107585102706315760e-05,-1.122693332387701204e-04
2.370634920634920650e+00,-6.968120423976911207e-05,-1.049848868359305070e-04
2.371428571428571441e+00,-6.163063681820909123e-05,-8.345722080507730390e-05
2.372222222222222232e+00,-4.927649595103673598e-05,-5.261842330300853428e-05
2.373015873015873023e+00,-3.540113678123151875e-05,-1.914372286480852103e-05
2.373809523809523814e+00,-2.244268363779741642e-05,1.020537255577639487e-05
2.374603174603174605e+00,-1.190330721289160333e-05,3.016179584147270394e-05
2.375396825396825395e+00,-4.081642261344537331e-06,3.807245383037286956e-05
2.376190476190476186e+00,1.818552432491562941e-06,3.429776500143385035e-05
2.376984126984126977e+00,7.241222138590862086e-06,2.182653969352044165e-05
2.377777777777777768e+00,1.362052618638942106e-05,5.263667560218866702e-06
2.378571428571428559e+00,2.171646518232740497e-05,-1.047744716439285159e-05
2.379365079365079350e+00,3.116968402749707842e-05,-2.138807106261028014e-05
2.380158730158730140e+00,4.044234730916186149e-05,-2.516989117798739886e-05
2.380952380952380931e+00,4.718294887117910184e-05,-2.148779779084125549e-05
2.381746031746031722e+00,4.890646671607704277e-05,-1.170453851185560996e-05
2.382539682539682513e+00,4.377780031666763755e-05,1.742580144109772105e-06
2.383333333333333304e+00,3.126081565118032051e-05,1.611336014925215655e-05
2.384126984126984095e+00,1.244493634938419264e-05,2.907897021343416454e-05
2.384920634920634885e+00,-1.004414906233423877e-05,3.920295152208513851e-05
2.385714285714285676e+00,-3.253718994688884896e-05,4.606927583663923074e-05
2.386507936507936467e+00,-5.110599279123362158e-05,5.003612713232251879e-05
2.387301587301587258e+00,-6.244700119347849638e-05,5.172465200801528134e-05
2.388095238095238049e+00,-6.463131836404726780e-05,5.145959055924240769e-05
2.388888888888888840e+00,-5.752113394041353633e-05,4.890157186656032302e-05
2.389682539682539630e+00,-4.275628827022264270e-05,4.303613377463396121e-05
2.390476190476190421e+00,-2.334383494102537586e-05,3.255403855361997298e-05
2.391269841269841212e+00,-2.980098564745680309e-06,1.652320626967179816e-05
2.392063492063492003e+00,1.472739628487549101e-05,-4.855649262597462223e-06
2.392857142857142794e+00,2.697769082618993659e-05,-2.968230757447529319e-05
2.393650793650793585e+00,3.229785232083587690e-05,-5.424832927004730339e-05
2.394444444444444375e+00,3.076416361276451656e-05,-7.355859252508084231e-05
2.395238095238095166e+00,2.387159199657465134e-05,-8.246495105642311096e-05
2.396031746031745957e+00,1.408276236545856652e-05,-7.715315582630589053e-05
2.396825396825396748e+00,4.179147700903606448e-06,-5.652517920528287462e-05
2.397619047619047539e+00,-3.406795189867555660e-06,-2.297545532003404247e-05
2.398412698412698330e+00,-7.108122384435579557e-06,1.777311311168558672e-05
2.399206349206349120e+00,-6.480270425578288238e-06,5.779683938323083652e-05
2.399999999999999911e+00,-2.170813399754359962e-06,8.877821540606576961e-05
2.400793650793650702e+00,4.356004398169430685e-06,1.040150840659667523e-04
2.401587301587301493e+00,1.125203494744929237e-05,1.001054778255359111e-04
2.402380952380952284e+00,1.676509227092747050e-05,7.785651127213199325e-05
2.403174603174603075e+00,1.965481781460916310e-05,4.214534696954597365e-05
2.403968253968253865e+00,1.945231942799807622e-05,7.240380309439671505e-07
2.404761904761904656e+00,1.650971942152274524e-05,-3.774075239756792245e-05
2.405555555555555447e+00,1.183961601209432237e-05,-6.585652590474214607e-05
2.406349206349206238e+00,6.799697012533352137e-06,-7.929509866578778520e-05
2.407142857142857029e+00,2.714868730280269129e-06,-7.767696968331890407e-05
2.407936507936507819e+00,5.373467223500066115e-07,-6.433501522304542605e-05
2.408730158730158610e+00,6.272774004324709696e-07,-4.508855490777432509e-05
2.409523809523809401e+00,2.702455401781302198e-06,-2.643012714351541140e-05
2.410317460317460192e+00,5.964412114155662337e-06,-1.365230576527718495e-05
2.411111111111110983e+00,9.365372036713421903e-06,-9.416600640042141127e-06
2.411904761904761774e+00,1.194058133280193534e-05,-1.312460347006508747e-05
2.412698412698412564e+00,1.310208841327544716e-05,-2.123670289977111755e-05
2.413492063492063355e+00,1.279130049512351819e-05,-2.844015622898968100e-05
2.414285714285714146e+00,1.143386687231766956e-05,-2.934310305037620900e-05
2.415079365079364937e+00,9.720326668240397789e-06,-2.021915377552079400e-05
2.415873015873015728e+00,8.308634847254632762e-06,-3.017621321417074225e-07
2.416666666666666519e+00,7.569970658893826879e-06,2.775231231844384720e-05
2.417460317460317309e+00,7.469416206835730702e-06,5.838278453736075346e-05
2.418253968253968100e+00,7.613063356608118474e-06,8.451705965335734475e-05
2.419047619047618891e+00,7.434377974440540419e-06,9.948899517432420730e-05
2.419841269841269682e+00,6.451725090521279910e-06,9.898549809749552922e-05
2.420634920634920473e+00,4.507862619622219072e-06,8.247012735908889345e-05
2.421428571428571264e+00,1.901501991224202259e-06,5.361476971515675689e-05
2.422222222222222054e+00,-6.538885220476238711e-07,1.950684762112068441e-05
2.423015873015872845e+00,-2.254904882923414067e-06,-1.123573112348464195e-05
2.423809523809523636e+00,-2.155955906846786159e-06,-3.092551747492862960e-05
2.424603174603174427e+00,-1.184154828698780678e-07,-3.508702221789794989e-05
2.425396825396825218e+00,3.378981389369169465e-06,-2.383429288068444606e-05
2.426190476190476009e+00,7.171467919842695353e-06,-1.911876302130085702e-06
2.426984126984126799e+00,9.703867133102701535e-06,2.261804313261720441e-05
2.427777777777777590e+00,9.518353016612894437e-06,4.067756812957474053e-05
2.428571428571428381e+00,5.784299799213516306e-06,4.483754134530026312e-05
2.429365079365079172e+00,-1.314238932847600921e-06,3.160500755414939701e-05
2.430158730158729963e+00,-1.049145482447956536e-05,2.651599599894652373e-06
2.430952380952380754e+00,-1.964376326659670699e-05,-3.545292141408742291e-05
2.431746031746031544e+00,-2.644908498448365699e-05,-7.302217934219673958e-05
2.432539682539682335e+00,-2.910193603863417067e-05,-1.000789113824471444e-04
2.433333333333333126e+00,-2.693494068982707254e-05,-1.093646870594822292e-04
2.434126984126983917e+00,-2.070013512744494076e-05,-9.857562145223142862e-05
2.434920634920634708e+00,-1.239806134921066325e-05,-7.112196267497235670e-05
2.435714285714285499e+00,-4.701367932844337404e-06,-3.519178043050329879e-05
2.436507936507936289e+00,-1.549121681933150258e-07,-1.402872406853667128e-06
2.437301587301587080e+00,-3.988867352413777169e-07,2.028686144106047127e-05
2.438095238095238315e+00,-5.645453983517200045e-06,2.353318099031558597e-05
2.438888888888889106e+00,-1.456049815792161903e-05,7.560376305101085319e-06
2.439682539682539897e+00,-2.458933955025039553e-05,-2.248668324364231830e-05
2.440476190476190688e+00,-3.264675510047475423e-05,-5.693728742008382070e-05
2.441269841269841478e+00,-3.598901896979878528e-05,-8.434697162888160865e-05
2.442063492063492269e+00,-3.301955966604564130e-05,-9.479062348789010653e-05
2.442857142857143060e+00,-2.377746606640369773e-05,-8.272266674443547196e-05
2.443650793650793851e+00,-9.940295580893941625e-06,-4.859661554934151972e-05
2.444444444444444642e+00,5.674488736404804940e-06,1.165746524021239891e-06
2.445238095238095433e+00,1.995720671345244541e-05,5.580327904555729850e-05
2.446031746031746223e+00,3.043445274174669780e-05,1.029949163367903110e-04
2.446825396825397014e+00,3.598600441539371393e-05,1.320694988934433337e-04
2.447619047619047805e+00,3.712637838943631710e-05,1.368027303078692147e-04
2.448412698412698596e+00,3.576004300658104700e-05,1.170236914057854561e-04
2.449206349206349387e+00,3.447469507345764835e-05,7.854115550965588529e-05
2.450000000000000178e+00,3.557514675586642195e-05,3.137992842545150087e-05
2.450793650793650968e+00,4.015018398594257697e-05,-1.314095631438471959e-05
2.451587301587301759e+00,4.748053919392973202e-05,-4.556045235417616846e-05
2.452380952380952550e+00,5.501876484821215671e-05,-6.066649138938907032e-05
2.453174603174603341e+00,5.900684131680191416e-05,-5.844184229240929370e-05
2.453968253968254132e+00,5.559021379304042855e-05,-4.341075867704721048e-05
2.454761904761904923e+00,4.211017399373888592e-05,-2.274519371071458642e-05
2.455555555555555713e+00,1.817645141512571493e-05,-3.807702388775754876e-06
2.456349206349206504e+00,-1.383098865445024284e-05,8.115253378123237480e-06
2.457142857142857295e+00,-4.902622848093222068e-05,1.125670348222297705e-05
2.457936507936508086e+00,-8.103323901778742286e-05,7.612235731243961432e-06
2.458730158730158877e+00,-1.035299579644751518e-04,1.949373205711283659e-06
2.459523809523809668e+00,-1.119282862787815538e-04,-7.754659305178507194e-08
2.460317460317460458e+00,-1.047112892213102796e-04,5.924773245036297737e-06
2.461111111111111249e+00,-8.399793109950229764e-05,2.139186902904134061e-05
2.461904761904762040e+00,-5.510964184732097625e-05,4.409022964522049621e-05
2.462698412698412831e+00,-2.521693254844949988e-05,6.857640013308053414e-05
2.463492063492063622e+00,-1.436389025240961203e-06,8.765761496058322030e-05
2.464285714285714413e+00,1.107953873042180638e-05,9.443473373794843519e-05
2.465079365079365203e+00,1.051864516882267135e-05,8.437492221812399878e-05
2.465873015873015994e+00,-1.131159825735217742e-06,5.683609903679612101e-05
2.466666666666666785e+00,-1.866455670481545180e-05,1.556960139384861632e-05
2.467460317460317576e+00,-3.513108008045645288e-05,-3.201676056770916777e-05
2.468253968253968367e+00,-4.380447757666952493e-05,-7.668341945443399310e-05
2.469047619047619158e+00,-4.011126466823115459e-05,-1.097500052187101732e-04
2.469841269841269948e+00,-2.297513257108132294e-05,-1.253177691270644797e-04
2.470634920634920739e+00,4.813040819075064342e-06,-1.216488223413421144e-04
2.471428571428571530e+00,3.731277055941689696e-05,-1.013436920135924070e-04
2.472222222222222321e+00,6.703644878192710694e-05,-7.036956606506160859e-05
2.473015873015873112e+00,8.698018729129305395e-05,-3.630910386356861865e-05
2.473809523809523903e+00,9.251204638454016828e-05,-6.339244894390658183e-06
2.474603174603174693e+00,8.260015212993689147e-05,1.455643516708794941e-05
2.475396825396825484e+00,6.005660176576103687e-05,2.472280588663011822e-05
2.476190476190476275e+00,3.074121250282872469e-05,2.603288128772081976e-05
2.476984126984127066e+00,1.944019855031344524e-06,2.307312475054802058e-05
2.477777777777777857e+00,-1.961054488191434514e-05,2.150666445138786926e-05
2.478571428571428648e+00,-2.957787608315974441e-05,2.607584540405720122e-05
2.479365079365079438e+00,-2.710390864552155772e-05,3.885620160648196517e-05
2.480158730158730229e+00,-1.491067000913034500e-05,5.832733575191943683e-05
2.480952380952381020e+00,1.657466358498344372e-06,7.959464539071338970e-05
2.481746031746031811e+00,1.632691052668181893e-05,9.575829908777994700e-05
2.482539682539682602e+00,2.381102538035944152e-05,1.000758335874555113e-04
2.483333333333333393e+00,2.138088751441692735e-05,8.829176477827384371e-05
2.484126984126984183e+00,9.642072142530634307e-06,6.039810528725099756e-05
2.484920634920634974e+00,-7.687472033631618246e-06,2.120241629084752515e-05
2.485714285714285765e+00,-2.491513953941883246e-05,-2.059206945535662248e-05
2.486507936507936556e+00,-3.608969043405334026e-05,-5.462938155769872750e-05
2.487301587301587347e+00,-3.680010539717313970e-05,-7.185065296922088724e-05
2.488095238095238138e+00,-2.553943778541352229e-05,-6.726079094566501861e-05
2.488888888888888928e+00,-4.239848793977215043e-06,-4.164863027103081239e-05
2.489682539682539719e+00,2.217586050983851893e-05,-1.715218580316932160e-06
2.490476190476190510e+00,4.709754163688529931e-05,4.146705578951433304e-05
2.491269841269841301e+00,6.401516967770117298e-05,7.528807703339196879e-05
2.492063492063492092e+00,6.828807047479998067e-05,8.900859164702808093e-05
2.492857142857142883e+00,5.840451044397334282e-05,7.684074661209582685e-05
2.493650793650793673e+00,3.638631520475864311e-05,3.980991343235451232e-05
2.494444444444444464e+00,7.232283687071016931e-06,-1.423546974114753847e-05
2.495238095238095255e+00,-2.243648014985209833e-05,-7.259416099416380436e-05
2.496031746031746046e+00,-4.613761996474435243e-05,-1.211517180848063448e-04
2.496825396825396837e+00,-5.918532983373645781e-05,-1.482514320974299266e-04
2.497619047619047628e+00,-5.977611162553867852e-05,-1.478019484731749760e-04
2.498412698412698418e+00,-4.922727498562284263e-05,-1.207228300831347703e-04
2.499206349206349209e+00,-3.136643843931906828e-05,-7.441301807384643617e-05
2.500000000000000000e+00,-1.131714151347613221e-05,-2.052548395944958664e-05
2.500793650793650791e+00,5.935102494719545259e-06,2.824684695656629911e-05
2.501587301587301582e+00,1.680079557077963619e-05,6.147547761106224816e-05
2.502380952380952372e+00,1.986247800712178676e-05,7.351135092068063800e-05
2.503174603174603163e+00,1.601166966857328294e-05,6.455122779388245660e-05
2.503968253968253954e+00,7.960410636539950563e-06,4.000766531547945824e-05
2.504761904761904745e+00,-7.009643513487771504e-07,8.458071566136522173e-06
2.505555555555555536e+00,-6.617261845711011869e-06,-2.109931949125405591e-05
2.506349206349206327e+00,-7.635203780504881530e-06,-4.177842021482497148e-05
2.507142857142857117e+00,-3.359202156286457804e-06,-5.039848119887052554e-05
2.507936507936507908e+00,4.838235811386858684e-06,-4.781228018729627248e-05
2.508730158730158699e+00,1.432005692239198454e-05,-3.805879655286933949e-05
2.509523809523809490e+00,2.202384005701871084e-05,-2.671593184472747699e-05
2.510317460317460281e+00,2.537509312080971858e-05,-1.897087039277619736e-05
2.511111111111111072e+00,2.301235750139715087e-05,-1.795077535525179728e-05
2.511904761904761862e+00,1.513383601241720230e-05,-2.377059611995263667e-05
2.512698412698412653e+00,3.391561301864720237e-06,-3.355808600562075629e-05
2.513492063492063444e+00,-9.613086870516371121e-06,-4.243755986345002759e-05
2.514285714285714235e+00,-2.106846784305253922e-05,-4.516208254596247557e-05
2.515079365079365026e+00,-2.869838991982615520e-05,-3.787597291436532211e-05
2.515873015873015817e+00,-3.129412926542405064e-05,-1.945147181225552851e-05
2.516666666666666607e+00,-2.889400791185547135e-05,8.006091042593561514e-06
2.517460317460317398e+00,-2.259467862240707939e-05,3.961723061483294532e-05
2.518253968253968189e+00,-1.409211243847411965e-05,6.899661466537251615e-05
2.519047619047618980e+00,-5.117261284836095069e-06,8.996288258266629671e-05
2.519841269841269771e+00,3.058541912489356785e-06,9.821991035765391430e-05
2.520634920634920562e+00,9.909142471013003789e-06,9.254857845925762178e-05
2.521428571428571352e+00,1.565553449460657581e-05,7.516525560349663672e-05
2.522222222222222143e+00,2.098992131840916945e-05,5.112204398456150637e-05
2.523015873015872934e+00,2.661116689681867136e-05,2.690324884903726589e-05
2.523809523809523725e+00,3.272982324360491636e-05,8.624808289448980710e-06
2.524603174603174516e+00,3.872926444859682463e-05,3.691616041709358545e-07
2.525396825396825307e+00,4.313516805698502151e-05,3.133641949190675557e-06
2.526190476190476097e+00,4.394806188983186213e-05,1.466417526042608105e-05
2.526984126984126888e+00,3.926279203195699220e-05,3.017915775675351914e-05
2.527777777777777679e+00,2.798517131730492358e-05,4.375447120396741405e-05
2.528571428571428470e+00,1.040594228933693378e-05,4.998991534864283525e-05
2.529365079365079261e+00,-1.157682499292235607e-05,4.552005794193727709e-05
2.530158730158730052e+00,-3.469825938782785914e-05,2.996747848916959126e-05
2.530952380952380842e+00,-5.500654786288328965e-05,6.065927347047832811e-06
2.531746031746031633e+00,-6.881688143839013137e-05,-2.110185663453671264e-05
2.532539682539682424e+00,-7.366597179574030786e-05,-4.554260906449686765e-05
2.533333333333333215e+00,-6.896944777795188024e-05,-6.203129045515671462e-05
2.534126984126984006e+00,-5.617290742659417595e-05,-6.750699482242539283e-05
2.534920634920634797e+00,-3.835779443326030444e-05,-6.177113123473915580e-05
2.535714285714285587e+00,-1.943720786747534882e-05,-4.732979030093487657e-05
2.536507936507936378e+00,-3.184094610131841386e-06,-2.850342125467723327e-05
2.537301587301587169e+00,7.646463888462630605e-06,-1.012369510154145318e-05
2.538095238095237960e+00,1.188976552143454976e-05,3.786731764365708719e-06
2.538888888888888751e+00,1.012027884181171264e-05,1.098786462906282167e-05
2.539682539682539542e+00,4.368165756917854042e-06,1.140354400965729083e-05
2.540476190476190332e+00,-2.501281130107219586e-06,6.842459450875077571e-06
2.541269841269841123e+00,-7.574371735949562390e-06,1.886444156859422112e-07
2.542063492063491914e+00,-8.638702763167496472e-06,-5.651471067128882192e-06
2.542857142857142705e+00,-4.711217518921002759e-06,-8.698427095398744301e-06
2.543650793650793496e+00,3.774047320856001241e-06,-8.457578218184975586e-06
2.544444444444444287e+00,1.514365893209913171e-05,-5.942446078508784446e-06
2.545238095238095077e+00,2.696148372049779484e-05,-3.189117696384850179e-06
2.546031746031745868e+00,3.667229979217909543e-05,-2.430063076366832318e-06
2.546825396825396659e+00,4.225002782039844097e-05,-5.188178545070236114e-06
2.547619047619047450e+00,4.269293824942057061e-05,-1.157858658803617385e-05
2.548412698412698241e+00,3.824414616763995093e-05,-2.005559913726347006e-05
2.549206349206349032e+00,3.027899846305547404e-05,-2.771826661234974904e-05
2.549999999999999822e+00,2.088524327095816791e-05,-3.111646982218266874e-05
2.550793650793650613e+00,1.225094727074276705e-05,-2.733195655361839128e-05
2.551587301587301404e+00,6.039160655881299481e-06,-1.500799272513486618e-05
2.552380952380952195e+00,2.937290537266799816e-06,4.991532028633334278e-06
2.553174603174602986e+00,2.514739683183189396e-06,2.950598714121581458e-05
2.553968253968253777e+00,3.424869201356668636e-06,5.363743874507069189e-05
2.554761904761904567e+00,3.882495116385975294e-06,7.183395089508938210e-05
2.555555555555555358e+00,2.269400825357167702e-06,7.924918648470014536e-05
2.556349206349206149e+00,-2.312269464333271102e-06,7.304396032309971268e-05
2.557142857142856940e+00,-9.701815662874655827e-06,5.327504486782275536e-05
2.557936507936507731e+00,-1.866124924312540594e-05,2.308396480267073446e-05
2.558730158730158522e+00,-2.719193229438813432e-05,-1.193026744946279331e-05
2.559523809523809312e+00,-3.310198774903713769e-05,-4.502187624641699988e-05
2.560317460317460103e+00,-3.465604206864690746e-05,-6.992463396897836460e-05
2.561111111111110894e+00,-3.110634628389133540e-05,-8.231675125186968902e-05
2.561904761904761685e+00,-2.294177835211187836e-05,-8.071929724644826443e-05
2.562698412698412920e+00,-1.178439211015919789e-05,-6.663251529641690016e-05
2.563492063492063711e+00,2.735444389653734471e-08,-4.395353096646006013e-05
2.564285714285714501e+00,1.004342599643223002e-05,-1.789267519966171585e-05
2.565079365079365292e+00,1.632824273228049010e-05,6.315705927263879087e-06
2.565873015873016083e+00,1.794490777678488038e-05,2.460290677954125795e-05
2.566666666666666874e+00,1.517323298146911559e-05,3.488217580970683562e-05
2.567460317460317665e+00,9.399849356955210152e-06,3.729334644899959201e-05
2.568253968253968456e+00,2.699542737114596431e-06,3.381736447351701215e-05
2.569047619047619246e+00,-2.784285148813114447e-06,2.739390086549867758e-05
2.569841269841270037e+00,-5.481782871771547900e-06,2.084820864192504387e-05
2.570634920634920828e+00,-4.865176637908576114e-06,1.599665888610049265e-05
2.571428571428571619e+00,-1.596748084042473447e-06,1.321520054317295743e-05
2.572222222222222410e+00,2.691941683547670030e-06,1.157057023774978695e-05
2.573015873015873201e+00,5.926307355918352288e-06,9.422700400401078761e-06
2.573809523809523991e+00,6.265615972471255792e-06,5.270779184535759652e-06
2.574603174603174782e+00,2.726266082386689223e-06,-1.451154760359370645e-06
2.575396825396825573e+00,-4.445039389424318883e-06,-9.918792996784749148e-06
2.576190476190476364e+00,-1.377612388545268770e-05,-1.800166403297549642e-05
2.576984126984127155e+00,-2.296454024075877080e-05,-2.290227826150085218e-05
2.577777777777777946e+00,-2.954622331904896413e-05,-2.213637099710989752e-05
2.578571428571428736e+00,-3.162382717560051538e-05,-1.448069939404222484e-05
2.579365079365079527e+00,-2.841910111956624224e-05,-5.320391812422790427e-07
2.580158730158730318e+00,-2.047981982930713142e-05,1.729540549073395304e-05
2.580952380952381109e+00,-9.495258690667755279e-06,3.528686953104197109e-05
2.581746031746031900e+00,2.201076143983391644e-06,4.927651028500030394e-05
2.582539682539682691e+00,1.228043608395206832e-05,5.561411303146247191e-05
2.583333333333333481e+00,1.903133606065986847e-05,5.204356093405470142e-05
2.584126984126984272e+00,2.176856698874261363e-05,3.830275214687443289e-05
2.584920634920635063e+00,2.093083459241504583e-05,1.628612428377388140e-05
2.585714285714285854e+00,1.784564624884192187e-05,-1.031139063179208726e-05
2.586507936507936645e+00,1.423845682050078768e-05,-3.681799467294105514e-05
2.587301587301587436e+00,1.164674847575298306e-05,-5.867296910884319233e-05
2.588095238095238226e+00,1.093360837332125038e-05,-7.247191240780512982e-05
2.588888888888889017e+00,1.205691209963191588e-05,-7.666769142672154454e-05
2.589682539682539808e+00,1.415315920786674871e-05,-7.174358476554655313e-05
2.590476190476190599e+00,1.588557145562682503e-05,-5.984666485489554649e-05
2.591269841269841390e+00,1.592966473580008510e-05,-4.402179021471379079e-05
2.592063492063492181e+00,1.344327429064528602e-05,-2.728109249482778802e-05
2.592857142857142971e+00,8.384508814876834889e-06,-1.177657998000059699e-05
2.593650793650793762e+00,1.587212289354241912e-06,1.682491308813095096e-06
2.594444444444444553e+00,-5.431259508761482685e-06,1.361399073927948528e-05
2.595238095238095344e+00,-1.088173262128212634e-05,2.534380203718101095e-05
2.596031746031746135e+00,-1.322008792491514847e-05,3.815407938252378259e-05
2.596825396825396925e+00,-1.161717615106800988e-05,5.240264501701930608e-05
2.597619047619047716e+00,-6.238702356026465283e-06,6.693692874638119039e-05
2.598412698412698507e+00,1.750957986760084701e-06,7.902590419244893765e-05
2.599206349206349298e+00,1.046400639634671431e-05,8.487448581650685654e-05
2.600000000000000089e+00,1.776723537136990733e-05,8.062563035974416067e-05
2.600793650793650880e+00,2.183122678278553183e-05,6.361305789515706813e-05
2.601587301587301670e+00,2.159804735739379947e-05,3.351392293409542994e-05
2.602380952380952461e+00,1.703413713061753011e-05,-6.989824464102422581e-06
2.603174603174603252e+00,9.094734649437727299e-06,-5.234636162326574576e-05
2.603968253968254043e+00,-5.866278286608431032e-07,-9.514462361789771433e-05
2.604761904761904834e+00,-1.017995051672251954e-05,-1.277730016360968549e-04
2.605555555555555625e+00,-1.814798510893091918e-05,-1.442328945190231413e-04
2.606349206349206415e+00,-2.357976330197800258e-05,-1.415319130452801129e-04
2.607142857142857206e+00,-2.627520248957808860e-05,-1.202486358917254701e-04
2.607936507936507997e+00,-2.659297742064999700e-05,-8.419015092390497070e-05
2.608730158730158788e+00,-2.515829041766366771e-05,-3.936898422126809753e-05
2.609523809523809579e+00,-2.255469113765024152e-05,7.329231934262502359e-06
2.610317460317460370e+00,-1.910089526254271891e-05,4.943743545039246763e-05
2.611111111111111160e+00,-1.476870831879126646e-05,8.191828791508939077e-05
2.611904761904761951e+00,-9.253997245554980116e-06,1.017770185263270228e-04
2.612698412698412742e+00,-2.175537644907313676e-06,1.082548044382351788e-04
2.613492063492063533e+00,6.654312641927614135e-06,1.026474973919163454e-04
2.614285714285714324e+00,1.696646794771284936e-05,8.783452634376140834e-05
2.615079365079365115e+00,2.786862861552327368e-05,6.761983788323942530e-05
2.615873015873015905e+00,3.785297089784419341e-05,4.598875123084539431e-05
2.616666666666666696e+00,4.501850815551555193e-05,2.638863100515629091e-05
2.617460317460317487e+00,4.749069061198695087e-05,1.115596762288741871e-05
2.618253968253968278e+00,4.395445893872951455e-05,1.218038201042291937e-06
2.619047619047619069e+00,3.416018331955297663e-05,-3.842608466968866212e-06
2.619841269841269860e+00,1.923639211193876411e-05,-5.371580581707446283e-06
2.620634920634920650e+00,1.667303764322828400e-06,-5.010428835656745317e-06
2.621428571428571441e+00,-1.512912004408892066e-05,-4.075860696379143759e-06
2.622222222222222232e+00,-2.757013680102533696e-05,-3.177803942496533671e-06
2.623015873015873023e+00,-3.284648346116281046e-05,-2.200954695646337658e-06
2.623809523809523814e+00,-2.976260818828102512e-05,-6.169856894680814712e-07
2.624603174603174605e+00,-1.920350234931836493e-05,2.034286224602115224e-06
2.625396825396825395e+00,-4.045533104624438908e-06,5.701837841962157144e-06
2.626190476190476186e+00,1.150573324121882461e-05,9.593093328681559176e-06
2.626984126984126977e+00,2.299023470449019260e-05,1.225436710932601277e-05
2.627777777777777768e+00,2.688975321673895254e-05,1.196046424869257140e-05
2.628571428571428559e+00,2.160829471219494606e-05,7.303797242714638530e-06
2.629365079365079350e+00,7.948982490371547878e-06,-2.210896385863595188e-06
2.630158730158730140e+00,-1.106375605798458941e-05,-1.578237638893574798e-05
2.630952380952380931e+00,-3.098056684813194859e-05,-3.129990352206032380e-05
2.631746031746031722e+00,-4.712061593344423155e-05,-4.574471271159449533e-05
2.632539682539682513e+00,-5.581554081052761336e-05,-5.590873740297853023e-05
2.633333333333333304e+00,-5.534002936970743990e-05,-5.922047957634080323e-05
2.634126984126984095e+00,-4.627023285025537615e-05,-5.442945155769902569e-05
2.634920634920634885e+00,-3.120237683498828000e-05,-4.195407215508571746e-05
2.635714285714285676e+00,-1.396338283588676609e-05,-2.381435226994686825e-05
2.636507936507936467e+00,1.423411822649847387e-06,-3.191799076042280619e-06
2.637301587301587258e+00,1.172392588033398124e-05,1.625946709703802109e-05
2.638095238095238049e+00,1.519179302430449063e-05,3.118932491412791305e-05
2.638888888888888840e+00,1.184407743559372967e-05,3.924596369377956285e-05
2.639682539682539630e+00,3.294911423140543130e-06,3.953197943282334929e-05
2.640476190476190421e+00,-7.768110382114907614e-06,3.271658197455101899e-05
2.641269841269841212e+00,-1.830492633144784048e-05,2.078799420077877394e-05
2.642063492063492003e+00,-2.564929474323778618e-05,6.527682674232393471e-06
2.642857142857142794e+00,-2.806735556279594621e-05,-7.152762543205353517e-06
2.643650793650793585e+00,-2.503959599157473844e-05,-1.786245253879274075e-05
2.644444444444444375e+00,-1.724167410146390511e-05,-2.423299046033200094e-05
2.645238095238095166e+00,-6.273120769405903671e-06,-2.614956665774904730e-05
2.646031746031745957e+00,5.773138266247378032e-06,-2.462772296187091449e-05
2.646825396825396748e+00,1.679377060179298168e-05,-2.134027673588879129e-05
2.647619047619047539e+00,2.511043996661844045e-05,-1.792199966474816318e-05
2.648412698412698330e+00,2.977532112080879590e-05,-1.528174117773617446e-05
2.649206349206349120e+00,3.069095242888079776e-05,-1.317820262844699887e-05
2.649999999999999911e+00,2.852620041811940811e-05,-1.024653155728178762e-05
2.650793650793650702e+00,2.445763670424320221e-05,-4.517268521534436694e-06
2.651587301587301493e+00,1.981172190232446235e-05,5.706530251786683607e-06
2.652380952380952284e+00,1.570966136519018097e-05,2.089543828676091431e-05
2.653174603174603075e+00,1.281123295218067419e-05,3.961030391032442551e-05
2.653968253968253865e+00,1.121868629214650164e-05,5.838992081682637964e-05
2.654761904761904656e+00,1.055164792747016153e-05,7.235323914153127429e-05
2.655555555555555447e+00,1.015583668158308965e-05,7.642980269048090620e-05
2.656349206349206238e+00,9.373917143618864484e-06,6.689558364803146421e-05
2.657142857142857029e+00,7.791756062303076594e-06,4.273109040662732193e-05
2.657936507936507819e+00,5.381235700440683021e-06,6.313139599568447971e-06
2.658730158730158610e+00,2.493571224782536418e-06,-3.686215415033819903e-05
2.659523809523809401e+00,-2.905188121650130977e-07,-7.939528165379079305e-05
2.660317460317460192e+00,-2.393294223153019816e-06,-1.137644079519495554e-04
2.661111111111110983e+00,-3.463333797910158964e-06,-1.341058742408034253e-04
2.661904761904761774e+00,-3.504574483844179456e-06,-1.374715356022105175e-04
2.662698412698412564e+00,-2.865043958969946000e-06,-1.242631514768520570e-04
2.663492063492063355e+00,-2.090849291164594311e-06,-9.781552380828312297e-05
2.664285714285714146e+00,-1.695350223205732298e-06,-6.332233586175124002e-05
2.665079365079364937e+00,-1.920692397428384308e-06,-2.643975884601805165e-05
2.665873015873015728e+00,-2.576675923911650810e-06,8.041699338806277479e-06
2.666666666666666519e+00,-3.028638636087187294e-06,3.710448618896007935e-05
2.667460317460317309e+00,-2.368477394430653798e-06,5.977236519953376391e-05
2.668253968253968100e+00,2.571595658675743613e-07,7.672742526496252602e-05
2.669047619047618891e+00,5.254918248232315295e-06,8.947324480494592942e-05
2.669841269841269682e+00,1.226886420918965877e-05,9.937313478650583497e-05
2.670634920634920473e+00,2.007783448800771141e-05,1.068979622467888850e-04
2.671428571428571264e+00,2.678257948287021955e-05,1.113148916199176397e-04
2.672222222222222054e+00,3.026068993257335419e-05,1.108950743209627832e-04
2.673015873015872845e+00,2.876926517891354164e-05,1.035674930452241613e-04
2.673809523809523636e+00,2.151448440885247152e-05,8.782196717223513416e-05
2.674603174603174427e+00,9.004188980052810342e-06,6.357736700332221422e-05
2.675396825396825218e+00,-6.944856925346785149e-06,3.270306407597103237e-05
2.676190476190476009e+00,-2.357411504555796135e-05,-1.050390856309751696e-06
2.676984126984126799e+00,-3.783656727054629352e-05,-3.277048140380867537e-05
2.677777777777777590e+00,-4.714794521378001579e-05,-5.755729427304793718e-05
2.678571428571428381e+00,-5.000709288297896805e-05,-7.176324062880118360e-05
2.679365079365079172e+00,-4.630233331717859111e-05,-7.388914774672811095e-05
2.680158730158729963e+00,-3.723645466063522501e-05,-6.488752579891320213e-05
2.680952380952380754e+00,-2.493159963229249468e-05,-4.784684950142126312e-05
2.681746031746031544e+00,-1.185912008894548074e-05,-2.720135985911291914e-05
2.682539682539682335e+00,-2.578207011957641540e-07,-7.694866447728485344e-06
2.683333333333333126e+00,8.326043690296033224e-06,6.651967549675668789e-06
2.684126984126983917e+00,1.329352510887567441e-05,1.334060860377895668e-05
2.684920634920634708e+00,1.500947008328337999e-05,1.178737844321078399e-05
2.685714285714285499e+00,1.459353091646230723e-05,3.236222162871043960e-06
2.686507936507936289e+00,1.354155096901604830e-05,-9.755863255310319267e-06
2.687301587301587080e+00,1.327145500253821230e-05,-2.408916395197756993e-05
2.688095238095238315e+00,1.470976954596390499e-05,-3.690797782925610764e-05
2.688888888888889106e+00,1.802682223517068668e-05,-4.617841535753026847e-05
2.689682539682539897e+00,2.258800642736208891e-05,-5.092436905794559004e-05
2.690476190476190688e+00,2.712875708597090247e-05,-5.111860903731670064e-05
2.691269841269841478e+00,3.010262367414766633e-05,-4.733817062818849189e-05
2.692063492063492269e+00,3.011049530754216798e-05,-4.034957560575741032e-05
2.692857142857143060e+00,2.630090856957771638e-05,-3.078203731749648916e-05
2.693650793650793851e+00,1.863741180686054514e-05,-1.899150228592327090e-05
2.694444444444444642e+00,7.959422049739062736e-06,-5.139913555297327891e-06
2.695238095238095433e+00,-4.183678241356193888e-06,1.056541284595321573e-05
2.696031746031746223e+00,-1.588002742539213757e-05,2.758681238816271537e-05
2.696825396825397014e+00,-2.528471039277921265e-05,4.485606791385400301e-05
2.697619047619047805e+00,-3.101182729336801201e-05,6.075099577340280032e-05
2.698412698412698596e+00,-3.239176953202959919e-05,7.326993502827707384e-05
2.699206349206349387e+00,-2.954476722685137646e-05,8.036433132993159507e-05
2.700000000000000178e+00,-2.327414246795045955e-05,8.036260773903136873e-05
2.700793650793650968e+00,-1.482430556761205168e-05,7.241014300656571569e-05
2.701587301587301759e+00,-5.575400688480481104e-06,5.683339871614681235e-05
2.702380952380952550e+00,3.242885221323115936e-06,3.531420661685491296e-05
2.703174603174603341e+00,1.074484784839955132e-05,1.076789162562114987e-05
2.703968253968254132e+00,1.644570786117250204e-05,-1.311609734427013086e-05
2.704761904761904923e+00,2.018219557963519745e-05,-3.260229990405056537e-05
2.705555555555555713e+00,2.194287226107505609e-05,-4.473170396173941499e-05
2.706349206349206504e+00,2.168602966929871753e-05,-4.801709741979233730e-05
2.707142857142857295e+00,1.922783221824218592e-05,-4.282038906177028164e-05
2.707936507936508086e+00,1.425739149253170896e-05,-3.130378502457160147e-05
2.708730158730158877e+00,6.486492145368290193e-06,-1.694556998451712926e-05
2.709523809523809668e+00,-4.112524454656572499e-06,-3.708941367315744236e-06
2.710317460317460458e+00,-1.706635542722960181e-05,4.956561277969740216e-06
2.711111111111111249e+00,-3.125556925124268570e-05,7.029375101873953540e-06
2.711904761904762040e+00,-4.494730067443350685e-05,2.469366911607364082e-06
2.712698412698412831e+00,-5.604712289682178204e-05,-6.802576543826965920e-06
2.713492063492063622e+00,-6.254120023880929463e-05,-1.753932137795641527e-05
2.714285714285714413e+00,-6.301329952253424487e-05,-2.622761046065519573e-05
2.715079365079365203e+00,-5.706255992058354820e-05,-3.021300403469279021e-05
2.715873015873015994e+00,-4.546497674287205916e-05,-2.850802810472902256e-05
2.716666666666666785e+00,-3.001588710865538695e-05,-2.203145704608455859e-05
2.717460317460317576e+00,-1.310945397869620109e-05,-1.323038762029569748e-05
2.718253968253968367e+00,2.807632399305283296e-06,-5.227342414867140481e-06
2.719047619047619158e+00,1.575293358557210442e-05,-7.606714664813459728e-07
2.719841269841269948e+00,2.457158354123883771e-05,-1.235369457197143655e-06
2.720634920634920739e+00,2.907584237596340217e-05,-6.176959144451269855e-06
2.721428571428571530e+00,2.994738833617371357e-05,-1.328579837407199627e-05
2.722222222222222321e+00,2.844197202076009974e-05,-1.912555688617270154e-05
2.723015873015873112e+00,2.598281201953562652e-05,-2.027044458723110869e-05
2.723809523809523903e+00,2.376056154282073303e-05,-1.454658494886618586e-05
2.724603174603174693e+00,2.245736578404755062e-05,-1.929917770880851819e-06
2.725396825396825484e+00,2.217030268999921772e-05,1.523174382368653676e-05
2.726190476190476275e+00,2.253745601019767556e-05,3.275899615630981852e-05
2.726984126984127066e+00,2.299958617370996154e-05,4.576559925498738826e-05
2.727777777777777857e+00,2.309112269890625479e-05,5.002015660471764339e-05
2.728571428571428648e+00,2.265557328748164385e-05,4.315630896793130222e-05
2.729365079365079438e+00,2.191420929771773456e-05,2.540469556706002050e-05
2.730158730158730229e+00,2.136804748382393329e-05,-3.489773241864679236e-07
2.730952380952381020e+00,2.156677247961576556e-05,-2.919808539632618051e-05
2.731746031746031811e+00,2.282202003694258719e-05,-5.536694580048817155e-05
2.732539682539682602e+00,2.496686341652901278e-05,-7.355201866899510469e-05
2.733333333333333393e+00,2.725975103153798642e-05,-8.007621312723124662e-05
2.734126984126984183e+00,2.849359645213632452e-05,-7.357071221935745356e-05
2.734920634920634974e+00,2.730476262012482408e-05,-5.508269930466528713e-05
2.735714285714285765e+00,2.260399002451380949e-05,-2.768413137527514148e-05
2.736507936507936556e+00,1.400011538207949246e-05,4.250325597342331104e-06
2.737301587301587347e+00,2.076747507048144526e-06,3.591816257245390254e-05
2.738095238095238138e+00,-1.158504870702365743e-05,6.295916362597883285e-05
2.738888888888888928e+00,-2.467784382351691764e-05,8.217678753695433120e-05
2.739682539682539719e+00,-3.468766260857423226e-05,9.198316773762674323e-05
2.740476190476190510e+00,-3.953695333353738592e-05,9.248781942491270005e-05
2.741269841269841301e+00,-3.817377122628713308e-05,8.523225224129225212e-05
2.742063492063492092e+00,-3.092907650744302158e-05,7.265980077667059641e-05
2.742857142857142883e+00,-1.952027354746684642e-05,5.746800587042319935e-05
2.743650793650793673e+00,-6.678926078986063730e-06,4.200526075954378799e-05
2.744444444444444464e+00,4.507956999882346863e-06,2.784881410616607458e-05
2.745238095238095255e+00,1.136723133962115515e-05,1.564842011566591547e-05
2.746031746031746046e+00,1.230896962742365904e-05,5.249267751457097400e-06
2.746825396825396837e+00,7.212124106500122070e-06,-3.967816872383887771e-06
2.747619047619047628e+00,-2.576174828947338334e-06,-1.265259299329906371e-05
2.748412698412698418e+00,-1.461840696595088114e-05,-2.110840278221596156e-05
2.749206349206349209e+00,-2.602471143125394525e-05,-2.910080640554700917e-05
2.750000000000000000e+00,-3.416677609703375044e-05,-3.591486741794746955e-05
2.750793650793650791e+00,-3.727588444658737723e-05,-4.063485907514829623e-05
2.751587301587301582e+00,-3.478314396040703334e-05,-4.253753663505184155e-05
2.752380952380952372e+00,-2.734382116781550729e-05,-4.144319712743682691e-05
2.753174603174603163e+00,-1.657599689777592057e-05,-3.787742042136999621e-05
2.753968253968253954e+00,-4.610641848616427941e-06,-3.296297599391651825e-05
2.754761904761904745e+00,6.419339104205829926e-06,-2.806441629043208229e-05
2.755555555555555536e+00,1.483020817197650194e-05,-2.430717710845803936e-05
2.756349206349206327e+00,1.969002952984999356e-05,-2.214869517173489994e-05
2.757142857142857117e+00,2.092693518032058550e-05,-2.117091426756580129e-05
2.757936507936507908e+00,1.923926143186300474e-05,-2.019512852238807398e-05
2.758730158730158699e+00,1.584066362193614830e-05,-1.771013359998695059e-05
2.759523809523809490e+00,1.210384628405433190e-05,-1.248276753021674970e-05
2.760317460317460281e+00,9.188293560975151035e-06,-4.131286255030798493e-06
2.761111111111111072e+00,7.743714240013421300e-06,6.563008610581657727e-06
2.761904761904761862e+00,7.765128056619025773e-06,1.773624661515627580e-05
2.762698412698412653e+00,8.638129412005936752e-06,2.689795959539545414e-05
2.763492063492063444e+00,9.362930254823429970e-06,3.162128544527003537e-05
2.764285714285714235e+00,8.896026198816664690e-06,3.026677440689799740e-05
2.765079365079365026e+00,6.511671610009141165e-06,2.254117056173287207e-05
2.765873015873015817e+00,2.073916592906484288e-06,9.736210052730269977e-06
2.766666666666666607e+00,-3.868664190219388971e-06,-5.435134932161850144e-06
2.767460317460317398e+00,-1.020173745369350177e-05,-1.939493670261456640e-05
2.768253968253968189e+00,-1.554588574436081280e-05,-2.853794519335806868e-05
2.769047619047618980e+00,-1.864647417286028564e-05,-3.015142615922924648e-05
2.769841269841269771e+00,-1.872993188362776889e-05,-2.317640946269936583e-05
2.770634920634920562e+00,-1.571873011243332842e-05,-8.599317913057980309e-06
2.771428571428571352e+00,-1.024942726728316353e-05,1.064437419100936498e-05
2.772222222222222143e+00,-3.501087228767831630e-06,3.025272468993026509e-05
2.773015873015872934e+00,3.108662501838319319e-06,4.550892862996079558e-05
2.773809523809523725e+00,8.274123097383419140e-06,5.239159060726677417e-05
2.774603174603174516e+00,1.110572701026947143e-05,4.857880379168846299e-05
2.775396825396825307e+00,1.131069515533625543e-05,3.408531401667566169e-05
2.776190476190476097e+00,9.209973639310972584e-06,1.134784120407275841e-05
2.776984126984126888e+00,5.600262555887620429e-06,-1.528728134359328043e-05
2.777777777777777679e+00,1.514660967192994180e-06,-4.055470419792193748e-05
2.778571428571428470e+00,-2.040208944402883820e-06,-5.948425762589816892e-05
2.779365079365079261e+00,-4.298084666127407780e-06,-6.852706359004694103e-05
2.780158730158730052e+00,-4.856286964506098933e-06,-6.631670731725627238e-05
2.780952380952380842e+00,-3.704170229350630498e-06,-5.389275637590353843e-05
2.781746031746031633e+00,-1.176035729157297995e-06,-3.435025475077950068e-05
2.782539682539682424e+00,2.148585725832446036e-06,-1.201554218813123561e-05
2.783333333333333215e+00,5.578360354110092893e-06,8.639632388636546537e-06
2.784126984126984006e+00,8.456680435095813967e-06,2.407093531634692013e-05
2.784920634920634797e+00,1.029311115786858093e-05,3.244946741634115384e-05
2.785714285714285587e+00,1.084872096019035181e-05,3.396483255268693607e-05
2.786507936507936378e+00,1.015476335606916301e-05,3.056930297514930058e-05
2.787301587301587169e+00,8.465787725178318811e-06,2.524029850440005372e-05
2.788095238095237960e+00,6.169823084659362718e-06,2.097534931498157450e-05
2.788888888888888751e+00,3.688642389405425185e-06,1.981757334695738131e-05
2.789682539682539542e+00,1.396882978025005685e-06,2.221049632308162825e-05
2.790476190476190332e+00,-4.248194893147017120e-07,2.688759151593282860e-05
2.791269841269841123e+00,-1.602624139130853163e-06,3.133401882803566293e-05
2.792063492063491914e+00,-2.059688473055479767e-06,3.266927233887964642e-05
2.792857142857142705e+00,-1.800857567160849766e-06,2.865971673616365264e-05
2.793650793650793496e+00,-9.067813743437232490e-07,1.853264229224678127e-05
2.794444444444444287e+00,4.572980916950563460e-07,3.337560661706155220e-06
2.795238095238095077e+00,2.026202646266210003e-06,-1.425000792977985668e-05
2.796031746031745868e+00,3.431786640395713188e-06,-3.061820050871555133e-05
2.796825396825396659e+00,4.233747208428027718e-06,-4.219933616398290820e-05
2.797619047619047450e+00,3.997849534353374925e-06,-4.646273057095827251e-05
2.798412698412698241e+00,2.418074292206420769e-06,-4.264268830794336606e-05
2.799206349206349032e+00,-5.416497303997940549e-07,-3.199768601972535293e-05
2.799999999999999822e+00,-4.527965285116772659e-06,-1.751579147271518767e-05
2.800793650793650613e+00,-8.750775680667661027e-06,-3.118460018662624027e-06
2.801587301587301404e+00,-1.205248543573301216e-05,7.446604332802852590e-06
2.802380952380952195e+00,-1.311623750055724515e-05,1.171652233596360310e-05
2.803174603174602986e+00,-1.079757722535280239e-05,9.276414012450218588e-06
2.803968253968253777e+00,-4.516506324504958210e-06,1.898133990360973187e-06
2.804761904761904567e+00,5.396053960857594343e-06,-7.027210783151289480e-06
2.805555555555555358e+00,1.752299829096936581e-05,-1.359720070751336226e-05
2.806349206349206149e+00,2.946178862119344183e-05,-1.468295313701176487e-05
2.807142857142856940e+00,3.823937620004569512e-05,-8.963393087697148386e-06
2.807936507936507731e+00,4.098147982465931373e-05,2.626653063660995156e-06
2.808730158730158522e+00,3.567989484550271849e-05,1.716741556774098229e-05
2.809523809523809312e+00,2.184335955015037880e-05,3.064441567109181904e-05
2.810317460317460103e+00,8.233771041138038347e-07,3.917294305724339790e-05
2.811111111111110894e+00,-2.431708482137052987e-05,4.018170991088990037e-05
2.811904761904761685e+00,-4.939362526540519991e-05,3.320036198932217817e-05
2.812698412698412920e+00,-7.000763551910887776e-05,2.001601718771595128e-05
2.813492063492063711e+00,-8.252695713929742794e-05,4.154140016724335207e-06
2.814285714285714501e+00,-8.487517772436124536e-05,-1.015840496954892112e-05
2.815079365079365292e+00,-7.693037282735538387e-05,-1.924068083501846818e-05
2.815873015873016083e+00,-6.045601604548507530e-05,-2.105094683365818978e-05
2.816666666666666874e+00,-3.861775154806373141e-05,-1.580220244056401599e-05
2.817460317460317665e+00,-1.523837355441539943e-05,-5.903175779776080377e-06
2.818253968253968456e+00,6.012827245472395246e-06,4.781501074115064515e-06
2.819047619047619246e+00,2.231254279247188083e-05,1.214756399180404676e-05
2.819841269841270037e+00,3.212679423184095672e-05,1.317315103889385946e-05
2.820634920634920828e+00,3.534406944279902400e-05,6.917400311465193041e-06
2.821428571428571619e+00,3.310464081812742367e-05,-5.147893622629775168e-06
2.822222222222222410e+00,2.738917530895719558e-05,-1.959785582654073786e-05
2.823015873015873201e+00,2.047418484599526495e-05,-3.214672359945757460e-05
2.823809523809523991e+00,1.438827930606834206e-05,-3.898487750030305672e-05
2.824603174603174782e+00,1.049922107497031202e-05,-3.790552199412795939e-05
2.825396825396825573e+00,9.320453294399797157e-06,-2.888301001734036884e-05
2.826190476190476364e+00,1.055786297860293279e-05,-1.398687372360128110e-05
2.826984126984127155e+00,1.334853538308854152e-05,3.271891249248715432e-06
2.827777777777777946e+00,1.659764600822985102e-05,1.893195668414061441e-05
2.828571428571428736e+00,1.930836606187857232e-05,2.963158000783128849e-05
2.829365079365079527e+00,2.081929563965430991e-05,3.345521221633120231e-05
2.830158730158730318e+00,2.090276059811986746e-05,3.037878127553971536e-05
2.830952380952381109e+00,1.972158529347365331e-05,2.221599108333237270e-05
2.831746031746031900e+00,1.768052469697897037e-05,1.208871117864725650e-05
2.832539682539682691e+00,1.523416475137645311e-05,3.560656691680976138e-06
2.833333333333333481e+00,1.272033085298137968e-05,-3.439338074267326867e-07
2.834126984126984272e+00,1.027312092287783046e-05,2.011099713468085461e-06
2.834920634920635063e+00,7.835973105771603157e-06,1.036985994866831196e-05
2.835714285714285854e+00,5.256464732944318023e-06,2.255489327685464396e-05
2.836507936507936645e+00,2.417689117194979750e-06,3.493769316297749768e-05
2.837301587301587436e+00,-6.455482555304205315e-07,4.332435023595533011e-05
2.838095238095238226e+00,-3.686910202548098254e-06,4.406488762673334877e-05
2.838888888888889017e+00,-6.266609264569459403e-06,3.511104591142684444e-05
2.839682539682539808e+00,-7.846699957874336560e-06,1.672097172868684082e-05
2.840476190476190599e+00,-7.941752415319838581e-06,-8.426453816898008122e-06
2.841269841269841390e+00,-6.285430006703004945e-06,-3.578731644299908436e-05
2.842063492063492181e+00,-2.963105583073434031e-06,-6.005070725632829397e-05
2.842857142857142971e+00,1.536976206402586227e-06,-7.647154451400404280e-05
2.843650793650793762e+00,6.383405089283377291e-06,-8.205185537404574114e-05
2.844444444444444553e+00,1.057193269639501590e-05,-7.623611622466225238e-05
2.845238095238095344e+00,1.317385617370045763e-05,-6.094226387380933895e-05
2.846031746031746135e+00,1.360277177497340848e-05,-3.995074676599263231e-05
2.846825396825396925e+00,1.182402423888795463e-05,-1.785736175484147417e-05
2.847619047619047716e+00,8.432843409637006248e-06,1.089797588892887145e-06
2.848412698412698507e+00,4.551670620317930130e-06,1.393669120539352820e-05
2.849206349206349298e+00,1.543501165671901277e-06,1.951366282629346269e-05
2.850000000000000089e+00,5.972028936723607640e-07,1.839473553031773409e-05
2.850793650793650880e+00,2.296472974103728460e-06,1.242427437635904372e-05
2.851587301587301670e+00,6.314727451759198619e-06,4.028101183081539813e-06
2.852380952380952461e+00,1.136417819662123648e-05,-4.447893340269675166e-06
2.853174603174603252e+00,1.546329025888254296e-05,-1.119137446117228874e-05
2.853968253968254043e+00,1.648742607733486213e-05,-1.509987779372988518e-05
2.854761904761904834e+00,1.286234801375320633e-05,-1.571576809514357753e-05
2.855555555555555625e+00,4.185960915764749646e-06,-1.301903292157049075e-05
2.856349206349206415e+00,-8.445219100266099092e-06,-7.191491606973013778e-06
2.857142857142857206e+00,-2.255588518761332306e-05,1.552255455802050662e-06
2.857936507936507997e+00,-3.487237680761157588e-05,1.300485356568600161e-05
2.858730158730158788e+00,-4.222277020727603283e-05,2.685751350092200064e-05
2.859523809523809579e+00,-4.249551886501225413e-05,4.247679417696489809e-05
2.860317460317460370e+00,-3.535468874247884181e-05,5.865816136335883868e-05
2.861111111111111160e+00,-2.246984982110140317e-05,7.348540952518378927e-05
2.861904761904761951e+00,-7.165425224542354409e-06,8.442025092259853051e-05
2.862698412698412742e+00,6.423637538871885115e-06,8.869080148585829239e-05
2.863492063492063533e+00,1.445095862251362663e-05,8.394954658585160410e-05
2.864285714285714324e+00,1.439887900211279786e-05,6.905300583116257007e-05
2.865079365079365115e+00,5.764701801784702458e-06,4.471668788535261893e-05
2.865873015873015905e+00,-9.798777499113985124e-06,1.377180829731507417e-05
2.866666666666666696e+00,-2.892167984108902956e-05,-1.916831832376753256e-05
2.867460317460317487e+00,-4.739927486473696674e-05,-4.864059542298381471e-05
2.868253968253968278e+00,-6.125600248587257583e-05,-6.964291496963579125e-05
2.869047619047619069e+00,-6.768443520814842063e-05,-7.892449168826375842e-05
2.869841269841269860e+00,-6.560600360546057022e-05,-7.582581878691397497e-05
2.870634920634920650e+00,-5.573441399649395225e-05,-6.239222261652381562e-05
2.871428571428571441e+00,-4.018497290925177853e-05,-4.275314192620641905e-05
2.872222222222222232e+00,-2.179935236435666569e-05,-2.200230976157042202e-05
2.873015873015873023e+00,-3.405394276200770131e-06,-4.928815018889813391e-06
2.873809523809523814e+00,1.279288814691654972e-05,5.073090657698373650e-06
2.874603174603174605e+00,2.556900265990954643e-05,6.690066182684335757e-06
2.875396825396825395e+00,3.472671718585409963e-05,8.651625512446946781e-07
2.876190476190476186e+00,4.088075617424262882e-05,-9.542766986780393289e-06
2.876984126984126977e+00,4.505135450407888296e-05,-2.053563080204853761e-05
2.877777777777777768e+00,4.819528760821765946e-05,-2.802292410320401012e-05
2.878571428571428559e+00,5.080788100710434304e-05,-2.889466084135111488e-05
2.879365079365079350e+00,5.271244525163528430e-05,-2.184358245283187343e-05
2.880158730158730140e+00,5.310506608566763274e-05,-7.711281418746036454e-06
2.880952380952380931e+00,5.085142149329711101e-05,1.073406753904958652e-05
2.881746031746031722e+00,4.495403580470721161e-05,2.951650914726164726e-05
2.882539682539682513e+00,3.504490425821188665e-05,4.446434799444121935e-05
2.883333333333333304e+00,2.173309090750006418e-05,5.225021823494875123e-05
2.884126984126984095e+00,6.665173017976753501e-06,5.120145316254673970e-05
2.884920634920634885e+00,-7.763927643535842267e-06,4.168282038484245509e-05
2.885714285714285676e+00,-1.900181986312851149e-05,2.595374878813432815e-05
2.886507936507936467e+00,-2.507391591617651606e-05,7.535087075895370458e-06
2.887301587301587258e+00,-2.523310898044468789e-05,-9.738593626209919102e-06
2.888095238095238049e+00,-2.029120912032191556e-05,-2.270895340823723290e-05
2.888888888888888840e+00,-1.248206728835109454e-05,-2.965108012501858345e-05
2.889682539682539630e+00,-4.852990436856636171e-06,-3.060949298461279925e-05
2.890476190476190421e+00,-3.389257081799548229e-07,-2.724666182935697682e-05
2.891269841269841212e+00,-7.882365287719889791e-07,-2.224995808245704859e-05
2.892063492063492003e+00,-6.246142028885023007e-06,-1.844186178527343765e-05
2.892857142857142794e+00,-1.474978962363541612e-05,-1.782914627588698023e-05
2.893650793650793585e+00,-2.275388635995274363e-05,-2.088174649897161139e-05
2.894444444444444375e+00,-2.611810802888807399e-05,-2.630157854955853596e-05
2.895238095238095166e+00,-2.140094212895146775e-05,-3.140174263574689687e-05
2.896031746031745957e+00,-7.082547533710997663e-06,-3.300168975532056609e-05
2.896825396825396748e+00,1.566964074925361117e-05,-2.854153968391795701e-05
2.897619047619047539e+00,4.296497628508045175e-05,-1.702702865819373271e-05
2.898412698412698330e+00,6.895484212510493750e-05,5.162173291773400043e-07
2.899206349206349120e+00,8.724236111685101068e-05,2.121316263551402588e-05
2.899999999999999911e+00,9.258255580476573937e-05,4.105953207967502562e-05
2.900793650793650702e+00,8.240269487273442722e-05,5.596760391442014837e-05
2.901587301587301493e+00,5.768081041807979512e-05,6.284683616447523942e-05
2.902380952380952284e+00,2.287383338408044382e-05,6.043111707891130172e-05
2.903174603174603075e+00,-1.514224788362363796e-05,4.962752906910025474e-05
2.903968253968253865e+00,-4.884899822955494171e-05,3.328072692714087054e-05
2.904761904761904656e+00,-7.206576091099963638e-05,1.540182505552140766e-05
2.905555555555555447e+00,-8.153706743706053595e-05,6.143573859646896555e-08
2.906349206349206238e+00,-7.764797045916223283e-05,-9.750291477036823862e-06
2.907142857142857029e+00,-6.407016808181098999e-05,-1.297043112070441945e-05
2.907936507936507819e+00,-4.648360413362656341e-05,-1.075927522391302112e-05
2.908730158730158610e+00,-3.079522065114575065e-05,-6.134798305257657471e-06
2.909523809523809401e+00,-2.140310588178146302e-05,-3.021473795867435977e-06
2.910317460317460192e+00,-2.000854566131905220e-05,-4.965373206943872036e-06
2.911111111111110983e+00,-2.529253874647901940e-05,-1.388514733168756386e-05
2.911904761904761774e+00,-3.351196030292819195e-05,-2.924991110201293751e-05
2.912698412698412564e+00,-3.980947552384335599e-05,-4.797888625469881336e-05
2.913492063492063355e+00,-3.983639298616346386e-05,-6.515318204806519865e-05
2.914285714285714146e+00,-3.120305159526488430e-05,-7.536965579133063896e-05
2.915079365079364937e+00,-1.431885835159243564e-05,-7.433969099454240865e-05
2.915873015873015728e+00,7.640302134352380790e-06,-6.023529447463441667e-05
2.916666666666666519e+00,2.963811895064189466e-05,-3.435879683680604372e-05
2.917460317460317309e+00,4.629070995222616389e-05,-9.308136888735689469e-07
2.918253968253968100e+00,5.353255082902943097e-05,3.393432707577682635e-05
2.919047619047618891e+00,4.993026095782076651e-05,6.375887721278489576e-05
2.919841269841269682e+00,3.723401964907138798e-05,8.329273177726457243e-05
2.920634920634920473e+00,1.997144350554911501e-05,8.971526676781448062e-05
2.921428571428571264e+00,4.167938425264825158e-06,8.313282495963516638e-05
2.922222222222222054e+00,-4.454877534017920186e-06,6.629152969781240635e-05
2.923015873015872845e+00,-2.274356581391975644e-06,4.366887138073026307e-05
2.923809523809523636e+00,1.099596186055335770e-05,2.026463958531913220e-05
2.924603174603174427e+00,3.202760660883739036e-05,4.396437036614764278e-07
2.925396825396825218e+00,5.467257084560461279e-05,-1.292935025486901218e-05
2.926190476190476009e+00,7.162164398184825930e-05,-1.884211837690756377e-05
2.926984126984126799e+00,7.645046553186936214e-05,-1.810547469362783026e-05
2.927777777777777590e+00,6.545858421126608351e-05,-1.288113601335328250e-05
2.928571428571428381e+00,3.876843225472989931e-05,-5.983706651916063246e-06
2.929365079365079172e+00,3.736926346152348430e-07,-9.852893762757959294e-08
2.930158730158729963e+00,-4.286136013207994798e-05,2.889130680828706875e-06
2.930952380952380754e+00,-8.294366123946314974e-05,2.280194919889013688e-06
2.931746031746031544e+00,-1.127161833887142177e-04,-1.431203754903645469e-06
2.932539682539682335e+00,-1.274799215783045583e-04,-6.899920816256962601e-06
2.933333333333333126e+00,-1.258426320689734468e-04,-1.247570734131361574e-05
2.934126984126983917e+00,-1.096358779611739391e-04,-1.675660404752296213e-05
2.934920634920634708e+00,-8.304432243033244671e-05,-1.898260169425441032e-05
2.935714285714285499e+00,-5.130737522476884688e-05,-1.917822872490013603e-05
2.936507936507936289e+00,-1.941570122860572268e-05,-1.803293908711658115e-05
2.937301587301587080e+00,8.856613967759172329e-06,-1.657445569975601735e-05
2.938095238095238315e+00,3.140536198585517854e-05,-1.574259776939818226e-05
2.938888888888889106e+00,4.772864643430759364e-05,-1.600287863073603215e-05
2.939682539682539897e+00,5.846942696563431493e-05,-1.713188820483133851e-05
2.940476190476190688e+00,6.477759079426890067e-05,-1.825129060851658579e-05
2.941269841269841478e+00,6.771200595210895496e-05,-1.810246217904212552e-05
2.942063492063492269e+00,6.785429969011186986e-05,-1.547422295820360773e-05
2.942857142857143060e+00,6.522057639195540731e-05,-9.649312308609898721e-06
2.943650793650793851e+00,5.946272282629181674e-05,-7.312448079763201345e-07
2.944444444444444642e+00,5.026869932536129885e-05,1.025182319813104565e-05
2.945238095238095433e+00,3.781379715326987879e-05,2.150770778523991499e-05
2.946031746031746223e+00,2.309194983507125196e-05,3.087458112423135996e-05
2.946825396825397014e+00,7.979323399473856336e-06,3.635356834119156220e-05
2.947619047619047805e+00,-5.042497951194648470e-06,3.664199096449959682e-05
2.948412698412698596e+00,-1.346372682614468345e-05,3.152149427875683863e-05
2.949206349206349387e+00,-1.547110666356004899e-05,2.198635301735147826e-05
2.950000000000000178e+00,-1.059777703363235542e-05,1.006332844892079652e-05
2.950793650793650968e+00,-7.705583468355010120e-08,-1.642944272440288631e-06
2.951587301587301759e+00,1.324891226632619549e-05,-1.057239940057036587e-05
2.952380952380952550e+00,2.549360015872087173e-05,-1.484983073087310376e-05
2.953174603174603341e+00,3.265532619194922277e-05,-1.378393241897003731e-05
2.953968253968254132e+00,3.168845705478685231e-05,-8.087892921438749665e-06
2.954761904761904923e+00,2.143288962274348408e-05,2.644245238853840354e-07
2.955555555555555713e+00,3.129088549556748933e-06,8.550530289843950374e-06
2.956349206349206504e+00,-1.966901906165042184e-05,1.407540040222318591e-05
2.957142857142857295e+00,-4.182457669551927187e-05,1.500001053224984173e-05
2.957936507936508086e+00,-5.785541835350646052e-05,1.095259411805174356e-05
2.958730158730158877e+00,-6.338148752049818245e-05,3.188927849528496666e-06
2.959523809523809668e+00,-5.639352295426959002e-05,-5.796545897239226933e-06
2.960317460317460458e+00,-3.797087350294036658e-05,-1.311574507744281484e-05
2.961111111111111249e+00,-1.220633038741089540e-05,-1.651839715516713152e-05
2.961904761904762040e+00,1.469332260755613722e-05,-1.524606828401150627e-05
2.962698412698412831e+00,3.593207795506108803e-05,-1.037889611851707927e-05
2.963492063492063622e+00,4.589111591061985915e-05,-4.509650090565112643e-06
2.964285714285714413e+00,4.166361699309761510e-05,-8.216226605619134338e-07
2.965079365079365203e+00,2.391988115879559680e-05,-1.874387504396356775e-06
2.965873015873015994e+00,-3.172035729444673437e-06,-8.526185642455874831e-06
2.966666666666666785e+00,-3.298791855476896435e-05,-1.939520390416943116e-05
2.967460317460317576e+00,-5.818831687845407860e-05,-3.109025382541294718e-05
2.968253968253968367e+00,-7.267622918173269407e-05,-3.918056194472677520e-05
2.969047619047619158e+00,-7.320513851763617817e-05,-3.961462401768687885e-05
2.969841269841269948e+00,-6.016428403818290237e-05,-3.013439780799452938e-05
2.970634920634920739e+00,-3.732040766696059531e-05,-1.122462177553321907e-05
2.971428571428571530e+00,-1.062144822632932714e-05,1.371636708505648991e-05
2.972222222222222321e+00,1.355069278835265816e-05,3.906351888358369171e-05
2.973015873015873112e+00,3.014724311101152067e-05,5.834938218495342333e-05
2.973809523809523903e+00,3.673324677102398673e-05,6.599806363329135874e-05
2.974603174603174693e+00,3.394319083536141246e-05,5.895323974315933518e-05
2.975396825396825484e+00,2.502386633515644930e-05,3.773728285040400907e-05
2.976190476190476275e+00,1.463820845606479723e-05,6.591647758032863549e-06
2.976984126984127066e+00,7.307256901093754420e-06,-2.741956177421468437e-05
2.977777777777777857e+00,5.962522835797650944e-06,-5.615739162223577064e-05
2.978571428571428648e+00,1.104242235953157908e-05,-7.254164898022315375e-05
2.979365079365079438e+00,2.040001858084281174e-05,-7.245980896351200088e-05
2.980158730158730229e+00,3.004137189986901671e-05,-5.589635254342081546e-05
2.980952380952381020e+00,3.546284651200967957e-05,-2.695893509625830754e-05
2.981746031746031811e+00,3.318027643908041176e-05,7.207253588565588674e-06
2.982539682539682602e+00,2.198933500110304909e-05,3.832278845518727838e-05
2.983333333333333393e+00,3.571108765841425086e-06,5.917740589380942760e-05
2.984126984126984183e+00,-1.776399603243959707e-05,6.552055255956605129e-05
2.984920634920634974e+00,-3.616149860105359392e-05,5.709611273017751841e-05
2.985714285714285765e+00,-4.586376706820117111e-05,3.751764116562312390e-05
2.986507936507936556e+00,-4.295526143956361295e-05,1.303340241063145424e-05
2.987301587301587347e+00,-2.670198402507750719e-05,-9.415876933788069287e-06
2.988095238095238138e+00,-6.318877617901208101e-08,-2.422297193663129519e-05
2.988888888888888928e+00,3.082777214452366840e-05,-2.860315888561721157e-05
2.989682539682539719e+00,5.812583564790132975e-05,-2.314085283377255431e-05
2.990476190476190510e+00,7.431149574784707093e-05,-1.130869919710531519e-05
2.991269841269841301e+00,7.424587277573746935e-05,1.826377733165026167e-06
2.992063492063492092e+00,5.665268964752756087e-05,1.129082913939207154e-05
2.992857142857142883e+00,2.458125194086007150e-05,1.378118751174358692e-05
2.993650793650793673e+00,-1.530498625407715317e-05,8.667212035677354813e-06
2.994444444444444464e+00,-5.442130910160377532e-05,-1.875167360918838929e-06
2.995238095238095255e+00,-8.444871005582249080e-05,-1.363931577941580060e-05
2.996031746031746046e+00,-9.938557699050146372e-05,-2.182584057004906681e-05
2.996825396825396837e+00,-9.689669043800052978e-05,-2.267804174593087533e-05
2.997619047619047628e+00,-7.863501238531860938e-05,-1.478133909644258550e-05
2.998412698412698418e+00,-4.953760512937018656e-05,3.903092297373962995e-07
2.999206349206349209e+00,-1.638122023192084613e-05,1.884270899810727403e-05
3.000000000000000000e+00,1.395887375206918052e-05,3.521523469319411955e-05
3.000793650793650791e+00,3.608723714408735526e-05,4.436244754009400701e-05
3.001587301587301582e+00,4.714002356390323544e-05,4.289326118287283251e-05
3.002380952380952372e+00,4.711186262051089371e-05,3.021463521492830448e-05
3.003174603174603163e+00,3.845337784713587589e-05,8.767107244932163896e-06
3.003968253968253954e+00,2.511569594198206137e-05,-1.662379326021108875e-05
3.004761904761904745e+00,1.134580554566046713e-05,-4.008234954233378462e-05
3.005555555555555536e+00,5.780066165869794119e-07,-5.628528313918213790e-05
3.006349206349206327e+00,-5.291723476349639652e-06,-6.183632845150318703e-05
3.007142857142857117e+00,-6.101618213952464887e-06,-5.601971264110247448e-05
3.007936507936507908e+00,-3.114214874397787567e-06,-4.077329601267517769e-05
3.008730158730158699e+00,1.635306361278085501e-06,-1.997507868169284546e-05
3.009523809523809490e+00,6.099041374088209925e-06,1.689883763369353779e-06
3.010317460317460281e+00,8.856430709873031710e-06,1.995133047920521916e-05
3.011111111111111072e+00,9.467986969704673261e-06,3.195552549841546800e-05
3.011904761904761862e+00,8.470779784158116279e-06,3.681606247587960741e-05
3.012698412698412653e+00,7.048502196172773827e-06,3.560100684896555447e-05
3.013492063492063444e+00,6.500274196100350785e-06,3.078660981552491295e-05
3.014285714285714235e+00,7.688454107457667807e-06,2.534964121360519640e-05
3.015079365079365026e+00,1.065093431077826838e-05,2.177400729584710507e-05
3.015873015873015817e+00,1.451310847428597700e-05,2.127375151871843559e-05
3.016666666666666607e+00,1.774019678034111601e-05,2.346301736469393382e-05
3.017460317460317398e+00,1.865875212563046680e-05,2.655465105752050753e-05
3.018253968253968189e+00,1.608184093313414637e-05,2.800236033665909146e-05
3.019047619047618980e+00,9.827469148716905638e-06,2.537739631439428058e-05
3.019841269841269771e+00,9.424648444895983104e-07,1.721628432773649793e-05
3.020634920634920562e+00,-8.469047664080789830e-06,3.589394788502004704e-06
3.021428571428571352e+00,-1.578842631976166703e-05,-1.378401745418800793e-05
3.022222222222222143e+00,-1.865049346782677754e-05,-3.191861026757705446e-05
3.023015873015872934e+00,-1.571218920394139835e-05,-4.733512294600958098e-05
3.023809523809523725e+00,-7.185827969179336366e-06,-5.699146532904334741e-05
3.024603174603174516e+00,5.042332774460416272e-06,-5.909699631323173618e-05
3.025396825396825307e+00,1.777817082301311549e-05,-5.357796118795017453e-05
3.026190476190476097e+00,2.730508370203842740e-05,-4.207101378934478559e-05
3.026984126984126888e+00,3.039545656210639195e-05,-2.745406785105543388e-05
3.027777777777777679e+00,2.526986655962313208e-05,-1.304367000975229495e-05
3.028571428571428470e+00,1.221436570451314569e-05,-1.676346291438359076e-06
3.029365079365079261e+00,-6.354522639654047037e-06,5.066275754387764084e-06
3.030158730158730052e+00,-2.642962312769094670e-05,7.251832021220351994e-06
3.030952380952380842e+00,-4.342117660977538456e-05,6.474803741439497604e-06
3.031746031746031633e+00,-5.334415262483227683e-05,5.240442127551106608e-06
3.032539682539682424e+00,-5.383923436324916884e-05,6.045093100717125096e-06
3.033333333333333215e+00,-4.474328935855786141e-05,1.045538351616458847e-05
3.034126984126984006e+00,-2.807637215403919372e-05,1.849916718704183277e-05
3.034920634920634797e+00,-7.488907168894711744e-06,2.857694948704796788e-05
3.035714285714285587e+00,1.264983486977603608e-05,3.792157118643965657e-05
3.036507936507936378e+00,2.827480955651966429e-05,4.345262925309198503e-05
3.037301587301587169e+00,3.651456874308504040e-05,4.275672953840345820e-05
3.038095238095237960e+00,3.625245653393081505e-05,3.489585857473626707e-05
3.038888888888888751e+00,2.824833454732182623e-05,2.079494415682136725e-05
3.039682539682539542e+00,1.481314477901860636e-05,3.075680165893219523e-06
3.040476190476190332e+00,-8.627785477168385013e-07,-1.463032993202529757e-05
3.041269841269841123e+00,-1.553806361644151051e-05,-2.868424162668489958e-05
3.042063492063491914e+00,-2.667708784443580892e-05,-3.644127843788895515e-05
3.042857142857142705e+00,-3.293712454693723690e-05,-3.693296997096816075e-05
3.043650793650793496e+00,-3.427781443563236919e-05,-3.102765787354208691e-05
3.044444444444444287e+00,-3.170049103476345310e-05,-2.104585454118157984e-05
3.045238095238095077e+00,-2.672754701518319405e-05,-9.974750120259281118e-06
3.046031746031745868e+00,-2.079748447758880887e-05,-5.277663481358194642e-07
3.046825396825396659e+00,-1.476903630787300219e-05,5.680492306580347072e-06
3.047619047619047450e+00,-8.692899215154523834e-06,8.609671560269281179e-06
3.048412698412698241e+00,-1.924948638399887667e-06,9.768361373155092474e-06
3.049206349206349032e+00,6.459498411540856800e-06,1.166384016708427019e-05
3.049999999999999822e+00,1.709711789738594144e-05,1.685850474457079590e-05
3.050793650793650613e+00,2.981934461284520477e-05,2.690517938100556752e-05
3.051587301587301404e+00,4.338145763760739885e-05,4.150102478090297788e-05
3.052380952380952195e+00,5.555717186526533614e-05,5.815902002342445700e-05
3.053174603174602986e+00,6.360333383260486414e-05,7.255720788585102012e-05
3.053968253968253777e+00,6.498122241714015938e-05,7.953652712095673897e-05
3.054761904761904567e+00,5.813183114447054541e-05,7.453199709536076736e-05
3.055555555555555358e+00,4.306761382790992793e-05,5.507733029628855801e-05
3.056349206349206149e+00,2.157784926917617036e-05,2.194884884948988520e-05
3.057142857142856940e+00,-3.052634512820536957e-06,-2.045473809296325827e-05
3.057936507936507731e+00,-2.676539077658013032e-05,-6.473715836698688310e-05
3.058730158730158522e+00,-4.569872790802501550e-05,-1.020918228335469265e-04
3.059523809523809312e+00,-5.712033542778077462e-05,-1.244814904801042749e-04
3.060317460317460103e+00,-6.003656398430839140e-05,-1.267929034302314240e-04
3.061111111111110894e+00,-5.529634575824179450e-05,-1.083061061091323207e-04
3.061904761904761685e+00,-4.517603951019576999e-05,-7.302157806688064964e-05
3.062698412698412920e+00,-3.259667564930370795e-05,-2.875091410386106691e-05
3.063492063492063711e+00,-2.022866767429350139e-05,1.476264163755671078e-05
3.064285714285714501e+00,-9.758160298488150798e-06,4.819087916982521574e-05
3.065079365079365292e+00,-1.530993098511580783e-06,6.484824971908949569e-05
3.065873015873016083e+00,5.325315317944825491e-06,6.226059972222556518e-05
3.066666666666666874e+00,1.234631031708664460e-05,4.268720221346775833e-05
3.067460317460317665e+00,2.092395240782283041e-05,1.244812688724100639e-05
3.068253968253968456e+00,3.151895371957033740e-05,-1.979379837901560008e-05
3.069047619047619246e+00,4.317208881684287026e-05,-4.535357423114643588e-05
3.069841269841270037e+00,5.351577166228873325e-05,-5.780844027907318833e-05
3.070634920634920828e+00,5.933682770910715518e-05,-5.460179732798698115e-05
3.071428571428571619e+00,5.756138447454328715e-05,-3.753054625225108907e-05
3.072222222222222410e+00,4.637932357990132864e-05,-1.202302090292051108e-05
3.073015873015873201e+00,2.614912810263912251e-05,1.453801457889247766e-05
3.073809523809523991e+00,-2.470954251216169474e-07,3.494498696710542410e-05
3.074603174603174782e+00,-2.779255316608266642e-05,4.414439153507615998e-05
3.075396825396825573e+00,-5.044751901707343275e-05,4.051793214974992410e-05
3.076190476190476364e+00,-6.272615154166643150e-05,2.612063525832906133e-05
3.076984126984127155e+00,-6.129909081501398033e-05,5.835995540737242259e-06
3.077777777777777946e+00,-4.612681835953847878e-05,-1.426128232449352204e-05
3.078571428571428736e+00,-2.073409050267069413e-05,-2.879389894571681224e-05
3.079365079365079527e+00,8.520639571839314647e-06,-3.460872759144446208e-05
3.080158730158730318e+00,3.402273057529994369e-05,-3.147409378787862424e-05
3.080952380952381109e+00,4.890240421539442610e-05,-2.178572840045831275e-05
3.081746031746031900e+00,4.889263521925567356e-05,-9.454367107159952711e-06
3.082539682539682691e+00,3.350237869521862846e-05,1.613052635011961466e-06
3.083333333333333481e+00,6.157524961550782472e-06,8.938482025788966687e-06
3.084126984126984272e+00,-2.672905673224896901e-05,1.235741870611901695e-05
3.084920634920635063e+00,-5.747240536565311446e-05,1.407969681619515168e-05
3.085714285714285854e+00,-7.910081079394351133e-05,1.788111270242401994e-05
3.086507936507936645e+00,-8.704269142987778728e-05,2.764403060936066950e-05
3.087301587301587436e+00,-8.007539277238664467e-05,4.568364214267700693e-05
3.088095238095238226e+00,-6.034825925547012494e-05,7.139854458661047676e-05
3.088888888888889017e+00,-3.256729036401825194e-05,1.007275627699300491e-04
3.089682539682539808e+00,-2.636677867345998521e-06,1.266865743125394602e-04
3.090476190476190599e+00,2.385062424807568647e-05,1.409533775871357969e-04
3.091269841269841390e+00,4.289056505036468396e-05,1.361444528991849956e-04
3.092063492063492181e+00,5.281961035838843451e-05,1.081700823434049110e-04
3.092857142857142971e+00,5.438901842867590014e-05,5.794637553654402459e-05
3.093650793650793762e+00,5.018466233485071492e-05,-8.152749014523550237e-06
3.094444444444444553e+00,4.358542747072949888e-05,-7.939296602714193479e-05
3.095238095238095344e+00,3.757622442115417341e-05,-1.431335640283310255e-04
3.096031746031746135e+00,3.377257114253619360e-05,-1.879603200659691535e-04
3.096825396825396925e+00,3.195495339864823641e-05,-2.065329623932168977e-04
3.097619047619047716e+00,3.025850872970348529e-05,-1.972538991171910090e-04
3.098412698412698507e+00,2.595616374284206315e-05,-1.642890935432029403e-04
3.099206349206349298e+00,1.658048235063647711e-05,-1.160523063903994538e-04
3.100000000000000089e+00,1.019096909116201086e-06,-6.273751470107245874e-05
3.100793650793650880e+00,-1.977652975662325810e-05,-1.369066526369931373e-05
3.101587301587301670e+00,-4.271604949895646324e-05,2.465430343956989296e-05
3.102380952380952461e+00,-6.318769931386369681e-05,4.980173190653901016e-05
3.103174603174603252e+00,-7.621627040726835763e-05,6.304085694144599184e-05
3.103968253968254043e+00,-7.783960508167176340e-05,6.829269931305572165e-05
3.104761904761904834e+00,-6.630753540098574018e-05,7.038058797126968142e-05
3.105555555555555625e+00,-4.275347676325361390e-05,7.326302774628471425e-05
3.106349206349206415e+00,-1.113902297005334242e-05,7.873021459911471007e-05
3.107142857142857206e+00,2.252653702583389141e-05,8.589316683680629143e-05
3.107936507936507997e+00,5.150169440078719032e-05,9.155449758417342023e-05
3.108730158730158788e+00,6.984558600854594843e-05,9.132602476112774504e-05
3.109523809523809579e+00,7.380126895606135460e-05,8.119517412051710167e-05
3.110317460317460370e+00,6.269171727145039146e-05,5.913334278720796568e-05
3.111111111111111160e+00,3.909610667865480796e-05,2.628157541221525588e-05
3.111904761904761951e+00,8.244347090659437518e-06,-1.271649165386891121e-05
3.112698412698412742e+00,-2.322833861911661826e-05,-5.048315227400403869e-05
3.113492063492063533e+00,-4.884334043998159793e-05,-7.869830720716232159e-05
3.114285714285714324e+00,-6.374001955515837855e-05,-9.045664075207065374e-05
3.115079365079365115e+00,-6.565812243110392466e-05,-8.246405714099101032e-05
3.115873015873015905e+00,-5.522295371610213936e-05,-5.633310352327972206e-05
3.116666666666666696e+00,-3.552911573088813452e-05,-1.850013022518647173e-05
3.117460317460317487e+00,-1.120409413079627672e-05,2.128288277288853476e-05
3.118253968253968278e+00,1.276234271321020479e-05,5.248802435525483573e-05
3.119047619047619069e+00,3.212270647797441022e-05,6.666818843674085374e-05
3.119841269841269860e+00,4.416879366468625973e-05,5.980593411400856365e-05
3.120634920634920650e+00,4.808254198180480468e-05,3.346441372301593953e-05
3.121428571428571441e+00,4.481882008501349168e-05,-5.610076934422983109e-06
3.122222222222222232e+00,3.660416155612115962e-05,-4.734078209375795825e-05
3.123015873015873023e+00,2.621430832507804087e-05,-8.110918116040681080e-05
3.123809523809523814e+00,1.623244228125867472e-05,-9.867164548310608388e-05
3.124603174603174605e+00,8.478805102559477239e-06,-9.634619239360015831e-05
3.125396825396825395e+00,3.740786909466638589e-06,-7.583963937481886706e-05
3.126190476190476186e+00,1.837444483772113602e-06,-4.352064483430071904e-05
3.126984126984126977e+00,1.953719588029922645e-06,-8.423949320110289736e-06
3.127777777777777768e+00,3.107175967448231878e-06,2.037239238981734549e-05
3.128571428571428559e+00,4.582320811115832123e-06,3.621864049373761429e-05
3.129365079365079350e+00,6.188441225468010957e-06,3.653010271594418686e-05
3.130158730158730140e+00,8.258376175058968811e-06,2.318263155383519161e-05
3.130952380952380931e+00,1.139142070072221758e-05,1.638075002314974697e-06
3.131746031746031722e+00,1.603122146993246361e-05,-2.086256058452226793e-05
3.132539682539682513e+00,2.203371187568768449e-05,-3.745814585958203460e-05
3.133333333333333304e+00,2.839930742884041803e-05,-4.354469183056547350e-05
3.134126984126984095e+00,3.330772045377586608e-05,-3.786426036543376415e-05
3.134920634920634885e+00,3.450728472796441829e-05,-2.255496693825790816e-05
3.135714285714285676e+00,2.999139481083721936e-05,-2.222255408945234467e-06
3.136507936507936467e+00,1.877395137924696354e-05,1.763203407037658243e-05
3.137301587301587258e+00,1.497705435866116381e-06,3.232510427051562234e-05
3.138095238095238049e+00,-1.938185482067762455e-05,3.934666341663704754e-05
3.138888888888888840e+00,-3.998130687229784549e-05,3.897421855657212870e-05
3.139682539682539630e+00,-5.589843602712261006e-05,3.399890569983482074e-05
3.140476190476190421e+00,-6.340617006147284773e-05,2.867175555270850599e-05
3.141269841269841212e+00,-6.056845519308900534e-05,2.721157752502674100e-05
3.142063492063492003e+00,-4.791635920774966562e-05,3.234619662152617424e-05
3.142857142857142794e+00,-2.844989123513685320e-05,4.433467931027799768e-05
3.143650793650793585e+00,-6.934354992654563605e-06,6.074583209955947800e-05
3.144444444444444375e+00,1.133303461187204841e-05,7.702819057356632211e-05
3.145238095238095166e+00,2.195741060769686425e-05,8.769730423614050950e-05
3.146031746031745957e+00,2.268294189145756353e-05,8.783352069880840881e-05
3.146825396825396748e+00,1.406376788831988486e-05,7.451967131159578574e-05
3.147619047619047539e+00,-6.611779010852500589e-07,4.784367113004191706e-05
3.148412698412698330e+00,-1.649412920735950444e-05,1.116405785719492122e-05
3.149206349206349120e+00,-2.815722879510855904e-05,-2.949415293263175737e-05
3.149999999999999911e+00,-3.168397226324762847e-05,-6.680174305680355959e-05
3.150793650793650702e+00,-2.563020632953597983e-05,-9.388973178493743767e-05
3.151587301587301493e+00,-1.152658913740216847e-05,-1.060176220465426102e-04
3.152380952380952284e+00,6.563264485384109258e-06,-1.016797665717059199e-04
3.153174603174603075e+00,2.323638332340747256e-05,-8.287693102046936170e-05
3.153968253968253865e+00,3.333262306944532728e-05,-5.453228568548300711e-05
3.154761904761904656e+00,3.343902228163718411e-05,-2.323765688045917376e-05
3.155555555555555447e+00,2.288301185505120953e-05,4.357439211841100359e-06
3.156349206349206238e+00,3.936196607522105791e-06,2.313402260216094596e-05
3.157142857142857029e+00,-1.881687567874323273e-05,3.067432146353814629e-05
3.157936507936507819e+00,-3.974794955008933886e-05,2.769083025721519298e-05
3.158730158730158610e+00,-5.371544253482141298e-05,1.757415837475202487e-05
3.159523809523809401e+00,-5.741599332914930007e-05,5.184574741322672168e-06
3.160317460317460192e+00,-5.018780419679455117e-05,-4.741197842424848040e-06
3.161111111111110983e+00,-3.407260127305839653e-05,-9.070242366913042802e-06
3.161904761904761774e+00,-1.316115191400791313e-05,-7.180952824954563267e-06
3.162698412698412564e+00,7.563312535145504502e-06,-1.015321609348635560e-06
3.163492063492063355e+00,2.355634593704322173e-05,5.746418032121073119e-06
3.164285714285714146e+00,3.186891774352513038e-05,9.134098726366455428e-06
3.165079365079364937e+00,3.184166510038003957e-05,6.486940612876762144e-06
3.165873015873015728e+00,2.517454263494360442e-05,-2.348076605947797852e-06
3.166666666666666519e+00,1.537022259303654262e-05,-1.467104695414760362e-05
3.167460317460317309e+00,6.707643136809305824e-06,-2.562712301002672226e-05
3.168253968253968100e+00,3.019403320304712504e-06,-2.978652303432294368e-05
3.169047619047618891e+00,6.595197356869410836e-06,-2.311858675439412025e-05
3.169841269841269682e+00,1.750179458192727028e-05,-4.692596179861281294e-06
3.170634920634920473e+00,3.350527267993354946e-05,2.251081266232613149e-05
3.171428571428571264e+00,5.062684329703047220e-05,5.202175302232905766e-05
3.172222222222222054e+00,6.419411043437499883e-05,7.548951599613711635e-05
3.173015873015872845e+00,7.010552957649392484e-05,8.505325379070793196e-05
3.173809523809523636e+00,6.595097545114004514e-05,7.579560169519880769e-05
3.174603174603174427e+00,5.166103864555380372e-05,4.753189221605039959e-05
3.175396825396825218e+00,2.949632213310030194e-05,5.331819502325595383e-06
3.176190476190476009e+00,3.395686536364507310e-06,-4.149554202598376322e-05
3.176984126984126799e+00,-2.209375952684438263e-05,-8.177167727243053481e-05
3.177777777777777590e+00,-4.295910212738419281e-05,-1.055437577669358310e-04
3.178571428571428381e+00,-5.659557537526511539e-05,-1.069827502704279924e-04
3.179365079365079172e+00,-6.219520048127934718e-05,-8.616279444964274211e-05
3.180158730158729963e+00,-6.061481047968422629e-05,-4.912846110029755987e-05
3.180952380952380754e+00,-5.384904272400788350e-05,-6.197717513126043873e-06
3.181746031746031544e+00,-4.432234107837243459e-05,3.100399219602560414e-05
3.182539682539682335e+00,-3.422078452571864128e-05,5.291156043959796399e-05
3.183333333333333126e+00,-2.503064569897209320e-05,5.481574784973958979e-05
3.184126984126983917e+00,-1.736634607951199842e-05,3.827203300280148263e-05
3.184920634920634708e+00,-1.108228157125326362e-05,1.068715251057777793e-05
3.185714285714285499e+00,-5.590471707621928915e-06,-1.684019697459218315e-05
3.186507936507936289e+00,-2.632699304561670644e-07,-3.283203517830591992e-05
3.187301587301587080e+00,5.205886820714577790e-06,-2.894476714996897646e-05
3.188095238095238315e+00,1.058523871632534042e-05,-2.660258945647291789e-06
3.188888888888889106e+00,1.508958415699776673e-05,4.162295404892311728e-05
3.189682539682539897e+00,1.757838989224669611e-05,9.341163657092786416e-05
3.190476190476190688e+00,1.692759087981180737e-05,1.386490842844940910e-04
3.191269841269841478e+00,1.247894751263182268e-05,1.633179402354977038e-04
3.192063492063492269e+00,4.422008636250418261e-06,1.572035357092640777e-04
3.192857142857143060e+00,-6.044183405360093531e-06,1.168382869353356348e-04
3.193650793650793851e+00,-1.686558050133392435e-05,4.681421092297200273e-05
3.194444444444444642e+00,-2.559117394768894475e-05,-4.095474804934260402e-05
3.195238095238095433e+00,-3.000724238070024344e-05,-1.298901793358983364e-04
3.196031746031746223e+00,-2.875017045628450822e-05,-2.026422737217786979e-04
3.196825396825397014e+00,-2.170483015170382245e-05,-2.451675087514966793e-04
3.197619047619047805e+00,-1.007005129292919035e-05,-2.499071464819258774e-04
3.198412698412698596e+00,3.920851099605188712e-06,-2.172869002073067482e-04
3.199206349206349387e+00,1.754264335025615155e-05,-1.552561698651474121e-04
3.200000000000000178e+00,2.824301988784586010e-05,-7.709756735280699834e-05
3.200793650793650968e+00,3.426453002827036740e-05,1.858729976082864797e-06
3.201587301587301759e+00,3.506553712274550221e-05,6.775397410838271503e-05
3.202380952380952550e+00,3.142430922108203797e-05,1.110822385200444456e-04
3.203174603174603341e+00,2.518744077356790427e-05,1.282748610582263194e-04
3.203968253968254132e+00,1.872128262497004699e-05,1.217035854185465082e-04
3.204761904761904923e+00,1.421487452539089371e-05,9.825121385622357425e-05
3.205555555555555713e+00,1.303394879928114838e-05,6.696825304156925178e-05
3.206349206349206504e+00,1.531701979885869160e-05,3.653485945413166228e-05
3.207142857142857295e+00,1.993588332782799861e-05,1.322543038930518984e-05
3.207936507936508086e+00,2.483478920742384187e-05,-1.488106097346989144e-07
3.208730158730158877e+00,2.764877253062508275e-05,-4.175763063514709157e-06
3.209523809523809668e+00,2.641754845972363257e-05,-1.842380651418383391e-06
3.210317460317460458e+00,2.018396240667566421e-05,2.978535677119889973e-06
3.211111111111111249e+00,9.304363768622120375e-06,7.033777595284508666e-06
3.211904761904762040e+00,-4.611507735833042102e-06,8.722519991776370193e-06
3.212698412698412831e+00,-1.910309514487044353e-05,8.382339706269362428e-06
3.213492063492063622e+00,-3.147986698832350139e-05,7.818535836082080622e-06
3.214285714285714413e+00,-3.947972970412598698e-05,9.314866721364974049e-06
3.215079365079365203e+00,-4.178162558813038968e-05,1.451413632979605135e-05
3.215873015873015994e+00,-3.824165550951859550e-05,2.356802021794709664e-05
3.216666666666666785e+00,-2.981299631776608363e-05,3.483807883149478603e-05
3.217460317460317576e+00,-1.820540295865090600e-05,4.523845236700890603e-05
3.218253968253968367e+00,-5.407946417154521317e-06,5.111331732149618375e-05
3.219047619047619158e+00,6.776513419060317975e-06,4.938899498103049108e-05
3.219841269841269948e+00,1.705466855217255227e-05,3.865672742310609556e-05
3.220634920634920739e+00,2.474730937669319432e-05,1.984240302208470681e-05
3.221428571428571530e+00,2.967546766844599834e-05,-3.784325878474429065e-06
3.222222222222222321e+00,3.190703061365838221e-05,-2.732415791564387375e-05
3.223015873015873112e+00,3.149383121253730185e-05,-4.552021939905038464e-05
3.223809523809523903e+00,2.832845216471499621e-05,-5.423134825450926525e-05
3.224603174603174693e+00,2.219288500779039025e-05,-5.167052267226705114e-05
3.225396825396825484e+00,1.298151594526786979e-05,-3.903397548237459518e-05
3.226190476190476275e+00,1.000337038011643393e-06,-2.031904278923673965e-05
3.226984126984127066e+00,-1.279211553593571138e-05,-1.350436811980299434e-06
3.227777777777777857e+00,-2.671945969483385423e-05,1.175425007072838628e-05
3.228571428571428648e+00,-3.855918873981466525e-05,1.429155137677047674e-05
3.229365079365079438e+00,-4.594090043815193499e-05,4.389107584907165957e-06
3.230158730158730229e+00,-4.689192635298652213e-05,-1.629596735389029512e-05
3.230952380952381020e+00,-4.039962845487043682e-05,-4.286267273364382689e-05
3.231746031746031811e+00,-2.683534576906136570e-05,-6.841784911030553791e-05
3.232539682539682602e+00,-8.097417148267502872e-06,-8.595181468074428361e-05
3.233333333333333393e+00,1.261352552089399230e-05,-9.026890975474023422e-05
3.234126984126984183e+00,3.138053299396843332e-05,-7.938803937373295873e-05
3.234920634920634974e+00,4.440565611361082198e-05,-5.502149834067502119e-05
3.235714285714285765e+00,4.889955090294245986e-05,-2.203677557372038615e-05
3.236507936507936556e+00,4.379533068176498723e-05,1.290983708492375623e-05
