Timestamp,Flexor carpi radialis,Extensor digitorum
2.000000000000000000e+00,8.627544159386570522e-05,1.006320678524445710e-05
2.000793650793650791e+00,8.110019557867604971e-05,9.372290161976063407e-06
2.001587301587301582e+00,6.407703878917619294e-05,1.048696107282030986e-05
2.002380952380952372e+00,3.788838347208764147e-05,1.254619836050867740e-05
2.003174603174603163e+00,7.250224841634611760e-06,1.380333073361938018e-05
2.003968253968253954e+00,-2.211942689799815885e-05,1.207417755072314383e-05
2.004761904761904745e+00,-4.482510593812271370e-05,5.401325911136010552e-06
2.005555555555555536e+00,-5.706194377556387241e-05,-7.249997296285971427e-06
2.006349206349206327e+00,-5.747923318514164314e-05,-2.547344883902246220e-05
2.007142857142857117e+00,-4.740168660520163800e-05,-4.724899081220203131e-05
2.007936507936507908e+00,-3.036112064561437499e-05,-6.919189069548712832e-05
2.008730158730158699e+00,-1.109363146136422804e-05,-8.718735012410844785e-05
2.009523809523809490e+00,5.700549041187922952e-06,-9.727769144734356541e-05
2.010317460317460281e+00,1.649343714121415648e-05,-9.660459791286852053e-05
2.011111111111111072e+00,1.967418509686968067e-05,-8.418275503281006517e-05
2.011904761904761862e+00,1.573847345968388056e-05,-6.129827290324430910e-05
2.012698412698412653e+00,6.912284799897292810e-06,-3.139271030095561985e-05
2.013492063492063444e+00,-3.656108501031653041e-06,5.897656676727784953e-07
2.014285714285714235e+00,-1.289658757423055086e-05,2.926894881471216718e-05
2.015079365079365026e+00,-1.872262048011412146e-05,5.005169604815726839e-05
2.015873015873015817e+00,-2.058008799926803499e-05,6.018359852976871218e-05
2.016666666666666607e+00,-1.948337127169626464e-05,5.933474830690937555e-05
2.017460317460317398e+00,-1.754350671125236175e-05,4.956123344114741634e-05
2.018253968253968189e+00,-1.715462235852470985e-05,3.466968972785874654e-05
2.019047619047618980e+00,-2.010813698329231851e-05,1.917720761654796642e-05
2.019841269841269771e+00,-2.691736674737145503e-05,7.156193586296461118e-06
2.020634920634920562e+00,-3.656145698537788155e-05,1.268054048005702380e-06
2.021428571428571352e+00,-4.672524291815381730e-05,2.225902722355116096e-06
2.022222222222222143e+00,-5.446036483859323233e-05,8.804879547462456059e-06
2.023015873015872934e+00,-5.706385375820101645e-05,1.837059422330063977e-05
2.023809523809523725e+00,-5.290078473741873508e-05,2.775709669488974103e-05
2.024603174603174516e+00,-4.191369821933650446e-05,3.423036291304844492e-05
2.025396825396825307e+00,-2.566351263241977438e-05,3.625215345951578357e-05
2.026190476190476097e+00,-6.899047441166353851e-06,3.382530973780523739e-05
2.026984126984126888e+00,1.120113725811383747e-05,2.833530617970725818e-05
2.027777777777777679e+00,2.587673335726362262e-05,2.195696172319507695e-05
2.028571428571428470e+00,3.546657952599110855e-05,1.682086946648517640e-05
2.029365079365079261e+00,3.972527610134699575e-05,1.420152155217863558e-05
2.030158730158730052e+00,3.970228689530765483e-05,1.398727709269435210e-05
2.030952380952380842e+00,3.725756421102626690e-05,1.461991649184110984e-05
2.031746031746031633e+00,3.440034235702683164e-05,1.355726763294529988e-05
2.032539682539682424e+00,3.267335967320956797e-05,8.144725916166228221e-06
2.033333333333333215e+00,3.276142669344677050e-05,-3.368869231519783813e-06
2.034126984126984006e+00,3.441118038066300880e-05,-2.101001435691693476e-05
2.034920634920634797e+00,3.664587457901937281e-05,-4.275212800372119542e-05
2.035714285714285587e+00,3.817613712755718163e-05,-6.482704935317563412e-05
2.036507936507936378e+00,3.786475054224130776e-05,-8.261556832706259718e-05
2.037301587301587169e+00,3.510623111527837626e-05,-9.186694526675292431e-05
2.038095238095237960e+00,3.002129564689845855e-05,-8.989044629461901293e-05
2.038888888888888751e+00,2.342462440321132016e-05,-7.636673973153777740e-05
2.039682539682539542e+00,1.658332283480327325e-05,-5.353614453311879409e-05
2.040476190476190332e+00,1.083178974157497883e-05,-2.569884498092317657e-05
2.041269841269841123e+00,7.144830692163715935e-06,1.841086767668743949e-06
2.042063492063491914e+00,5.793113260109711828e-06,2.409527321873357921e-05
2.042857142857142705e+00,6.199326769223311023e-06,3.760610161130895172e-05
2.043650793650793496e+00,7.063629136412634891e-06,4.122671658927147689e-05
2.044444444444444287e+00,6.740652689789431648e-06,3.627205937140078854e-05
2.045238095238095077e+00,3.761645483861367753e-06,2.602783876207489451e-05
2.046031746031745868e+00,-2.659458908250560103e-06,1.476884956894343226e-05
2.046825396825396659e+00,-1.229905734274758044e-05,6.554555326378332179e-06
2.047619047619047450e+00,-2.388776684804955845e-05,4.127191204716221328e-06
2.048412698412698241e+00,-3.539002906121903959e-05,8.221098199228760598e-06
2.049206349206349032e+00,-4.453177803593530426e-05,1.748748690554711478e-05
2.049999999999999822e+00,-4.943776854223655935e-05,2.905687406788279431e-05
2.050793650793650613e+00,-4.920245140013890765e-05,3.954854865893992383e-05
2.051587301587301404e+00,-4.421766757626380024e-05,4.616987258862904984e-05
2.052380952380952195e+00,-3.612846775081441698e-05,4.751273452182027448e-05
2.053174603174602986e+00,-2.739229383302319796e-05,4.378837096849487692e-05
2.053968253968253777e+00,-2.055147769630219601e-05,3.648625160096535895e-05
2.054761904761904567e+00,-1.743840565140278623e-05,2.766724045446775318e-05
2.055555555555555358e+00,-1.856709645078399179e-05,1.920018209434860154e-05
2.056349206349206149e+00,-2.291157952454914585e-05,1.220985793410149388e-05
2.057142857142856940e+00,-2.815272861867056982e-05,6.878317612126714229e-06
2.057936507936507731e+00,-3.133159180918453231e-05,2.599589460689941317e-06
2.058730158730158522e+00,-2.972304274961423592e-05,-1.621251890516464167e-06
2.059523809523809312e+00,-2.167560987980337897e-05,-6.686618005060919085e-06
2.060317460317460103e+00,-7.171347621255411042e-06,-1.300074753597756078e-05
2.061111111111110894e+00,1.206000577969183581e-05,-2.025284612871346593e-05
2.061904761904761685e+00,3.291210802636925517e-05,-2.743741771808351680e-05
2.062698412698412920e+00,5.166412435943611153e-05,-3.309661825015990539e-05
2.063492063492063711e+00,6.493241332469217486e-05,-3.572026341231181640e-05
2.064285714285714501e+00,7.055309664367227253e-05,-3.420844351679325316e-05
2.065079365079365292e+00,6.814679395233105223e-05,-2.828696114305566758e-05
2.065873015873016083e+00,5.920035658666305883e-05,-1.876498603245650931e-05
2.066666666666666874e+00,4.663773851412914419e-05,-7.540400488962320821e-06
2.067460317460317665e+00,3.399627944633626728e-05,2.703340903336408723e-06
2.068253968253968456e+00,2.442880362825777820e-05,9.098356625774438509e-06
2.069047619047619246e+00,1.979671384821886989e-05,9.384115210723069231e-06
2.069841269841270037e+00,2.010673585222616812e-05,2.678482131930771406e-06
2.070634920634920828e+00,2.347243562178250373e-05,-1.003483028520154270e-05
2.071428571428571619e+00,2.664742921846779589e-05,-2.590946190727761320e-05
2.072222222222222410e+00,2.600499448068428185e-05,-4.078592163199149830e-05
2.073015873015873201e+00,1.868848136725380468e-05,-5.017191712592166590e-05
2.073809523809523991e+00,3.588044788734149334e-06,-5.041666046590906168e-05
2.074603174603174782e+00,-1.816294839548720117e-05,-3.978764048903324672e-05
2.075396825396825573e+00,-4.334429777848310226e-05,-1.915844778143604730e-05
2.076190476190476364e+00,-6.743486878032942068e-05,7.926696404150807373e-06
2.076984126984127155e+00,-8.580257212527460842e-05,3.591476775139712719e-05
2.077777777777777946e+00,-9.493270402865016191e-05,5.853386354518064482e-05
2.078571428571428736e+00,-9.331034846730789202e-05,7.039560135690718851e-05
2.079365079365079527e+00,-8.169425482951668093e-05,6.845289315963301916e-05
2.080158730158730318e+00,-6.273707469681770693e-05,5.287032770154469951e-05
2.080952380952381109e+00,-4.012872704714000056e-05,2.704429370792297001e-05
2.081746031746031900e+00,-1.757835756098639053e-05,-3.222388753020676942e-06
2.082539682539682691e+00,2.036911046925358907e-06,-3.114496037794431692e-05
2.083333333333333481e+00,1.713307320194414358e-05,-5.059246949677900519e-05
2.084126984126984272e+00,2.743794578361944967e-05,-5.751776233269172888e-05
2.084920634920635063e+00,3.367270826483215125e-05,-5.083327447650537304e-05
2.085714285714285854e+00,3.707624909940637374e-05,-3.253425406796150424e-05
2.086507936507936645e+00,3.893440894629785610e-05,-7.072635710896044812e-06
2.087301587301587436e+00,4.021496021049725982e-05,1.981664566029099411e-05
2.088095238095238226e+00,4.135753821004240112e-05,4.250083760266046501e-05
2.088888888888889017e+00,4.223678019487290658e-05,5.668153827020189060e-05
2.089682539682539808e+00,4.228786901976173333e-05,6.019171728634106826e-05
2.090476190476190599e+00,4.074782566462597225e-05,5.323009519866482537e-05
2.091269841269841390e+00,3.693760425937995493e-05,3.806496974304409889e-05
2.092063492063492181e+00,3.050696098216087402e-05,1.834909744580772315e-05
2.092857142857142971e+00,2.158681227727073725e-05,-1.765388407635038229e-06
2.093650793650793762e+00,1.082532319712699534e-05,-1.851850220786879479e-05
2.094444444444444553e+00,-6.939893192249751806e-07,-2.926690217994844446e-05
2.095238095238095344e+00,-1.164148924394302750e-05,-3.290995697937278673e-05
2.096031746031746135e+00,-2.070703499822443177e-05,-2.995185735171015611e-05
2.096825396825396925e+00,-2.687599000755368141e-05,-2.221407644677884336e-05
2.097619047619047716e+00,-2.962652352192214370e-05,-1.228529080642829526e-05
2.098412698412698507e+00,-2.898279566336287800e-05,-2.844574571339680142e-06
2.099206349206349298e+00,-2.542540432154923440e-05,3.985658556168843126e-06
2.100000000000000089e+00,-1.972442536569065456e-05,7.106151691530010566e-06
2.100793650793650880e+00,-1.277768517477471357e-05,6.612403823293581191e-06
2.101587301587301670e+00,-5.502881188634573600e-06,3.631277657443821567e-06
2.102380952380952461e+00,1.220530355928688513e-06,-1.157797960846582395e-07
2.103174603174603252e+00,6.593892264911096147e-06,-2.870510920260301796e-06
2.103968253968254043e+00,9.951385212015805909e-06,-3.331298344374671584e-06
2.104761904761904834e+00,1.081920366578379321e-05,-9.412751823817858749e-07
2.105555555555555625e+00,8.968649170896433865e-06,4.073277802087050612e-06
2.106349206349206415e+00,4.462909970549663855e-06,1.086131478881802498e-05
2.107142857142857206e+00,-2.291848041321160072e-06,1.819716368383407387e-05
2.107936507936507997e+00,-1.049388911883951991e-05,2.472566343347218200e-05
2.108730158730158788e+00,-1.892357223696161368e-05,2.915325704963493461e-05
2.109523809523809579e+00,-2.600180723995144873e-05,3.038452987865475685e-05
2.110317460317460370e+00,-2.997175539699888764e-05,2.762616886547536750e-05
2.111111111111111160e+00,-2.921196318166962037e-05,2.047656470332750035e-05
2.111904761904761951e+00,-2.264112508390812476e-05,9.005654584145126836e-06
2.112698412698412742e+00,-1.012891240610883359e-05,-6.180823495682165997e-06
2.113492063492063533e+00,7.202328572137587315e-06,-2.390583426881725306e-05
2.114285714285714324e+00,2.690307984748953785e-05,-4.243815379087584983e-05
2.115079365079365115e+00,4.543614664975604249e-05,-5.959740377681311754e-05
2.115873015873015905e+00,5.875035337575273015e-05,-7.297799198483412211e-05
2.116666666666666696e+00,6.311716815686541136e-05,-8.028903993698224557e-05
2.117460317460317487e+00,5.606595029485630732e-05,-7.975577723120502575e-05
2.118253968253968278e+00,3.718800767729701397e-05,-7.049227435827427402e-05
2.119047619047619069e+00,8.566602745087249017e-06,-5.275924820767918967e-05
2.119841269841269860e+00,-2.535394452684754582e-05,-2.805482931030071206e-05
2.120634920634920650e+00,-5.851876849141125872e-05,9.787689565148595474e-07
2.121428571428571441e+00,-8.451508324934338596e-05,3.083355674891133808e-05
2.122222222222222232e+00,-9.804065383939563347e-05,5.759517963088801114e-05
2.123015873015873023e+00,-9.620429207548989500e-05,7.755919575911622706e-05
2.123809523809523814e+00,-7.928816286288039867e-05,8.792494527975734946e-05
2.124603174603174605e+00,-5.073002506824967180e-05,8.741472446115357026e-05
2.125396825396825395e+00,-1.629628092554449595e-05,7.662721810991878087e-05
2.126190476190476186e+00,1.734702841173569040e-05,5.797744850488827551e-05
2.126984126984126977e+00,4.427644211436374921e-05,3.519596097961798827e-05
2.127777777777777768e+00,6.071432530808803195e-05,1.249879027687408672e-05
2.128571428571428559e+00,6.581581912292994543e-05,-6.364081905198821168e-06
2.129365079365079350e+00,6.164593366825971404e-05,-1.894128623639931575e-05
2.130158730158730140e+00,5.238424852088068522e-05,-2.457439484369938808e-05
2.130952380952380931e+00,4.300342815896558588e-05,-2.440443045917537661e-05
2.131746031746031722e+00,3.779908906917015915e-05,-2.086482839943930507e-05
2.132539682539682513e+00,3.917430361801822020e-05,-1.680200521754972607e-05
2.133333333333333304e+00,4.699968127058417829e-05,-1.451711021059245791e-05
2.134126984126984095e+00,5.869931682412316514e-05,-1.507240285778526178e-05
2.134920634920634885e+00,7.000247323483202975e-05,-1.810061767364319618e-05
2.135714285714285676e+00,7.612387604302360783e-05,-2.213866059473888070e-05
2.136507936507936467e+00,7.305036859276951996e-05,-2.529835728114117609e-05
2.137301587301587258e+00,5.862125970915687650e-05,-2.599251059733494559e-05
2.138095238095238049e+00,3.315671814229194988e-05,-2.347180137812492382e-05
2.138888888888888840e+00,-5.124073059646024819e-07,-1.803975088137941451e-05
2.139682539682539630e+00,-3.762886804691817881e-05,-1.093065835684318693e-05
2.140476190476190421e+00,-7.256875986587783454e-05,-3.922163129673580808e-06
2.141269841269841212e+00,-1.001016299722860570e-04,1.194108249300140081e-06
2.142063492063492003e+00,-1.165117906024674548e-04,3.135615172789815103e-06
2.142857142857142794e+00,-1.202858871545713402e-04,1.502288240586946725e-06
2.143650793650793585e+00,-1.122164266604296540e-04,-3.098078287277567765e-06
2.144444444444444375e+00,-9.495939800522155028e-05,-9.193045647327582369e-06
2.145238095238095166e+00,-7.223813667115779817e-05,-1.480298271677360108e-05
2.146031746031745957e+00,-4.795160584559616639e-05,-1.791722836024107798e-05
2.146825396825396748e+00,-2.541900636995056555e-05,-1.698530999549282809e-05
2.147619047619047539e+00,-6.907032757103411108e-06,-1.132591666210514807e-05
2.148412698412698330e+00,6.516638968967333127e-06,-1.368149392541310907e-06
2.149206349206349120e+00,1.484807062331769584e-05,1.133943536879315211e-05
2.149999999999999911e+00,1.883088278208495825e-05,2.438050746406018735e-05
2.150793650793650702e+00,1.957985742733548537e-05,3.495876602552366592e-05
2.151587301587301493e+00,1.825124568201990291e-05,4.053324753739119210e-05
2.152380952380952284e+00,1.582837958396560326e-05,3.945698358387204034e-05
2.153174603174603075e+00,1.304153795457581450e-05,3.145305763529781867e-05
2.153968253968253865e+00,1.039551540704747993e-05,1.778801630926686404e-05
2.154761904761904656e+00,8.250060340755396398e-06,1.070688288337777096e-06
2.155555555555555447e+00,6.893254057964407389e-06,-1.530184747372299124e-05
2.156349206349206238e+00,6.564519714168837109e-06,-2.792937290568626616e-05
2.157142857142857029e+00,7.415194980669569130e-06,-3.422222995824894081e-05
2.157936507936507819e+00,9.428542765154544164e-06,-3.301306999670764597e-05
2.158730158730158610e+00,1.234396970547318691e-05,-2.478491129078460212e-05
2.159523809523809401e+00,1.563342447021934018e-05,-1.145253001617056837e-05
2.160317460317460192e+00,1.856179230074706137e-05,4.218582270120121973e-06
2.161111111111110983e+00,2.033387608904551724e-05,1.935478819457253150e-05
2.161904761904761774e+00,2.029695560194686002e-05,3.164050259804962006e-05
2.162698412698412564e+00,1.814139163758596269e-05,3.972503825346629559e-05
2.163492063492063355e+00,1.403433166924897690e-05,4.329963926307408260e-05
2.164285714285714146e+00,8.637935460062577323e-06,4.288701524682544714e-05
2.165079365079364937e+00,2.996728656937351875e-06,3.945802315608288680e-05
2.165873015873015728e+00,-1.684227305270510724e-06,3.401555985658332630e-05
2.166666666666666519e+00,-4.319239005134391955e-06,2.727661683171678177e-05
2.167460317460317309e+00,-4.214355302267593488e-06,1.954774360094912395e-05
2.168253968253968100e+00,-1.268312647629594322e-06,1.082529787912952909e-05
2.169047619047618891e+00,3.949116338004872761e-06,1.066270891496998945e-06
2.169841269841269682e+00,1.027452810605588188e-05,-9.499763228296713202e-06
2.170634920634920473e+00,1.619242751610954300e-05,-2.016770114865815093e-05
2.171428571428571264e+00,2.021153294839362811e-05,-2.976286754720545145e-05
2.172222222222222054e+00,2.129755952001592732e-05,-3.686467672127045610e-05
2.173015873015872845e+00,1.924104472225860880e-05,-4.017264126345829650e-05
2.173809523809523636e+00,1.482629723467046698e-05,-3.889080900130207431e-05
2.174603174603174427e+00,9.704263188316151098e-06,-3.300023730147432416e-05
2.175396825396825218e+00,5.957404409502493959e-06,-2.332399539140358634e-05
2.176190476190476009e+00,5.453664860008596524e-06,-1.135705456855921667e-05
2.176984126984126799e+00,9.178385151404710754e-06,1.088124703684855300e-06
2.177777777777777590e+00,1.676817378669891845e-05,1.230691723037516942e-05
2.178571428571428381e+00,2.642694239857067663e-05,2.105766241334138469e-05
2.179365079365079172e+00,3.528862787531184702e-05,2.672807389111114110e-05
2.180158730158729963e+00,4.014480541893086351e-05,2.927316244270513658e-05
2.180952380952380754e+00,3.833626043260099494e-05,2.899034598083302175e-05
2.181746031746031544e+00,2.855611865964502246e-05,2.626705253980460712e-05
2.182539682539682335e+00,1.133522556433665271e-05,2.142583633168117764e-05
2.183333333333333126e+00,-1.093593907714809097e-05,1.471656432860684070e-05
2.184126984126983917e+00,-3.447152299006475733e-05,6.419449219803110722e-06
2.184920634920634708e+00,-5.493155893562411590e-05,-3.025473281484872618e-06
2.185714285714285499e+00,-6.843053899223946535e-05,-1.294321692113822719e-05
2.186507936507936289e+00,-7.246513895034431823e-05,-2.244561628964813520e-05
2.187301587301587080e+00,-6.653776504441832244e-05,-3.054889799577343711e-05
2.188095238095238315e+00,-5.232227806655042181e-05,-3.635603276066829201e-05
2.188888888888889106e+00,-3.331767986577331106e-05,-3.925698453326397451e-05
2.189682539682539897e+00,-1.405283829335355859e-05,-3.909102752856073211e-05
2.190476190476190688e+00,9.828525436813961339e-07,-3.621479659839533637e-05
2.191269841269841478e+00,8.432446213640674301e-06,-3.143803771570446043e-05
2.192063492063492269e+00,6.919980051778166180e-06,-2.582962600544114174e-05
2.192857142857143060e+00,-2.566814824877893027e-06,-2.044456878374527786e-05
2.193650793650793851e+00,-1.687705621040640379e-05,-1.605320154779230413e-05
2.194444444444444642e+00,-3.145728695138916433e-05,-1.295074441281021084e-05
2.195238095238095433e+00,-4.150244390560232981e-05,-1.089460297553451267e-05
2.196031746031746223e+00,-4.321048116462349308e-05,-9.178857543119740123e-06
2.196825396825397014e+00,-3.480329660491237573e-05,-6.826660890873381189e-06
2.197619047619047805e+00,-1.702386233416600800e-05,-2.862291205074761953e-06
2.198412698412698596e+00,7.034325501197100970e-06,3.392163242409483854e-06
2.199206349206349387e+00,3.271123753894464916e-05,1.206461338577027337e-05
2.200000000000000178e+00,5.494794210399729352e-05,2.259436840342383653e-05
2.200793650793650968e+00,6.951265938171799020e-05,3.375265007215672030e-05
2.201587301587301759e+00,7.396238328540988814e-05,4.382550837699887190e-05
2.202380952380952550e+00,6.810492954962575943e-05,5.091989868815804157e-05
2.203174603174603341e+00,5.387266486198176240e-05,5.332999552768298525e-05
2.203968253968254132e+00,3.468553362976391625e-05,4.990026502990832497e-05
2.204761904761904923e+00,1.451741061121604567e-05,4.033057318978491048e-05
2.205555555555555713e+00,-3.057518757965935742e-06,2.536995630213122687e-05
2.206349206349206504e+00,-1.558794750664002364e-05,6.839629875768173940e-06
2.207142857142857295e+00,-2.208531185648977555e-05,-1.256695352266136659e-05
2.207936507936508086e+00,-2.295715711468883371e-05,-2.971698899001094739e-05
2.208730158730158877e+00,-1.962726882170941675e-05,-4.164217847649031293e-05
2.209523809523809668e+00,-1.400300232978735343e-05,-4.618491529049244964e-05
2.210317460317460458e+00,-7.955700197343109001e-06,-4.253124904414062603e-05
2.211111111111111249e+00,-2.936918603913569958e-06,-3.149443722002471163e-05
2.211904761904762040e+00,2.116797535171069481e-07,-1.546231121358783756e-05
2.212698412698412831e+00,1.258625110709607924e-06,2.014610924733424629e-06
2.213492063492063622e+00,4.422458115976838954e-07,1.694415594051371888e-05
2.214285714285714413e+00,-1.735991854912473308e-06,2.579294077761299774e-05
2.215079365079365203e+00,-4.706071172226651369e-06,2.636653205524642287e-05
2.215873015873015994e+00,-7.953370370900789721e-06,1.844010670491779961e-05
2.216666666666666785e+00,-1.105296245605409752e-05,3.947996305966023056e-06
2.217460317460317576e+00,-1.363848107289326305e-05,-1.335622758263814829e-05
2.218253968253968367e+00,-1.535584584827186442e-05,-2.872114665007610061e-05
2.219047619047619158e+00,-1.585067330599051669e-05,-3.752472930141151353e-05
2.219841269841269948e+00,-1.481413402769929097e-05,-3.644213032625211738e-05
2.220634920634920739e+00,-1.207882809000195190e-05,-2.435536804298437055e-05
2.221428571428571530e+00,-7.728363230001055625e-06,-2.746242187589481037e-06
2.222222222222222321e+00,-2.172585934399342334e-06,2.456392496113098497e-05
2.223015873015873112e+00,3.851667942704495803e-06,5.228091066990654375e-05
2.223809523809523903e+00,9.371768750114051433e-06,7.487746319673485530e-05
2.224603174603174693e+00,1.335215989403786516e-05,8.785891533887656515e-05
2.225396825396825484e+00,1.491521084736543966e-05,8.871784018600059065e-05
2.226190476190476275e+00,1.356269104502422789e-05,7.736909517020160501e-05
2.226984126984127066e+00,9.346445196432838113e-06,5.602863143521231033e-05
2.227777777777777857e+00,2.939918154427445864e-06,2.863032714623269280e-05
2.228571428571428648e+00,-4.426364869773912853e-06,-6.608816331543381052e-08
2.229365079365079438e+00,-1.117676924812048505e-05,-2.550351999829254292e-05
2.230158730158730229e+00,-1.572070950341964422e-05,-4.429619503166421678e-05
2.230952380952381020e+00,-1.682767116081343225e-05,-5.491585908214407786e-05
2.231746031746031811e+00,-1.394704147813059930e-05,-5.789361681210133687e-05
2.232539682539682602e+00,-7.379027972439049605e-06,-5.544852754994030500e-05
2.233333333333333393e+00,1.757289058829305824e-06,-5.064038749701050868e-05
2.234126984126984183e+00,1.175435422077073816e-05,-4.631807293489569147e-05
2.234920634920634974e+00,2.068565745257424369e-05,-4.420465917665721348e-05
2.235714285714285765e+00,2.682181390654358154e-05,-4.439867458985159406e-05
2.236507936507936556e+00,2.899541771242602890e-05,-4.542392461002328565e-05
2.237301587301587347e+00,2.683494676399247512e-05,-4.479542587210341806e-05
2.238095238095238138e+00,2.082078499657781536e-05,-3.992701040602055385e-05
2.238888888888888928e+00,1.215652677269677069e-05,-2.910716848839233360e-05
2.239682539682539719e+00,2.489153833860984380e-06,-1.223669263886752507e-05
2.240476190476190510e+00,-6.455568425654736768e-06,8.921082367416482823e-06
2.241269841269841301e+00,-1.323801688824807434e-05,3.107839392120237556e-05
2.242063492063492092e+00,-1.698557029486212673e-05,5.025312425094509194e-05
2.242857142857142883e+00,-1.752426938031646799e-05,6.282423389602489680e-05
2.243650793650793673e+00,-1.533357255728614246e-05,6.647664655026556122e-05
2.244444444444444464e+00,-1.134533418376481871e-05,6.075886790608104552e-05
2.245238095238095255e+00,-6.653294938615651029e-06,4.712717428284011068e-05
2.246031746031746046e+00,-2.223330052374837617e-06,2.851609805407434022e-05
2.246825396825396837e+00,1.312050204453402653e-06,8.593205653486401277e-06
2.247619047619047628e+00,3.725310965026119536e-06,-9.092302011915788258e-06
2.248412698412698418e+00,5.129100203906869623e-06,-2.186048204227313005e-05
2.249206349206349209e+00,5.815324395064329311e-06,-2.838606243470883348e-05
2.250000000000000000e+00,6.063056030945017270e-06,-2.882617144850446318e-05
2.250793650793650791e+00,5.982681456104025792e-06,-2.459290948481823778e-05
2.251587301587301582e+00,5.448304173495470010e-06,-1.786759099827012177e-05
2.252380952380952372e+00,4.143671998009964590e-06,-1.101330529299937458e-05
2.253174603174603163e+00,1.713220231860257860e-06,-6.043087199341595306e-06
2.253968253968253954e+00,-2.026197974440253244e-06,-4.249676547547731204e-06
2.254761904761904745e+00,-6.886515370783685583e-06,-6.035056280501359486e-06
2.255555555555555536e+00,-1.220526878695366837e-05,-1.092846478511235565e-05
2.256349206349206327e+00,-1.689972140522666495e-05,-1.776072018774135851e-05
2.257142857142857117e+00,-1.969097426293897672e-05,-2.495712160442799591e-05
2.257936507936507908e+00,-1.944943232186066288e-05,-3.090152339441609269e-05
2.258730158730158699e+00,-1.556223874102089427e-05,-3.430345958374375582e-05
2.259523809523809490e+00,-8.203204491046938292e-06,-3.448042801478859828e-05
2.260317460317460281e+00,1.594392610713781340e-06,-3.146994703241699808e-05
2.261111111111111072e+00,1.210656974922836909e-05,-2.592439813207348003e-05
2.261904761904761862e+00,2.129971609727497719e-05,-1.881107599694711830e-05
2.262698412698412653e+00,2.732668225203859508e-05,-1.101745798951325023e-05
2.263492063492063444e+00,2.900072278805344871e-05,-3.014459208234026251e-06
2.264285714285714235e+00,2.611089430940410477e-05,5.273628582659569653e-06
2.265079365079365026e+00,1.948374100096074202e-05,1.431849154371710035e-05
2.265873015873015817e+00,1.076695966902389620e-05,2.460526958937503340e-05
2.266666666666666607e+00,1.991093951382892412e-06,3.618152893427066183e-05
2.267460317460317398e+00,-4.969709235182832672e-06,4.834748036815353568e-05
2.268253968253968189e+00,-8.887156006308616544e-06,5.964652244672928187e-05
2.269047619047618980e+00,-9.481682959521035283e-06,6.818478090432749934e-05
2.269841269841269771e+00,-7.455976468025090847e-06,7.215917739146368538e-05
2.270634920634920562e+00,-4.254842007979636726e-06,7.038579406680370960e-05
2.271428571428571352e+00,-1.624295326313846716e-06,6.264057524682906293e-05
2.272222222222222143e+00,-1.094058325365559041e-06,4.972626816372242007e-05
2.273015873015872934e+00,-3.522816664446606444e-06,3.328900828195616125e-05
2.273809523809523725e+00,-8.827793015438721737e-06,1.547046816746001235e-05
2.274603174603174516e+00,-1.597557448717683621e-05,-1.505919073361385442e-06
2.275396825396825307e+00,-2.324537468759392469e-05,-1.572811774000901900e-05
2.276190476190476097e+00,-2.870008572557935494e-05,-2.589897850905518376e-05
2.276984126984126888e+00,-3.073497812740956715e-05,-3.150116948422434588e-05
2.277777777777777679e+00,-2.854317748603690566e-05,-3.280083527585417048e-05
2.278571428571428470e+00,-2.235736136610633594e-05,-3.069877062223247947e-05
2.279365079365079261e+00,-1.339512699282686123e-05,-2.646890250192200598e-05
2.280158730158730052e+00,-3.526906057456673484e-06,-2.144789383401096353e-05
2.280952380952380842e+00,5.232749290915816013e-06,-1.675170092342288895e-05
2.281746031746031633e+00,1.126207984549803311e-05,-1.308980518150151684e-05
2.282539682539682424e+00,1.374515877114720646e-05,-1.072103907255452769e-05
2.283333333333333215e+00,1.284740038693409982e-05,-9.548752603043254660e-06
2.284126984126984006e+00,9.610524072857101424e-06,-9.302229052723984040e-06
2.284920634920634797e+00,5.607607709938118859e-06,-9.718692787220388656e-06
2.285714285714285587e+00,2.468646730524281912e-06,-1.064392757354252612e-05
2.286507936507936378e+00,1.419161498355531695e-06,-1.201044931686219821e-05
2.287301587301587169e+00,2.960542075850328457e-06,-1.371240774788440366e-05
2.288095238095237960e+00,6.770899391704171373e-06,-1.544791095459492933e-05
2.288888888888888751e+00,1.183898468559835158e-05,-1.661853800063489269e-05
2.289682539682539542e+00,1.678033289565271987e-05,-1.635503131036815565e-05
2.290476190476190332e+00,2.023837490490620718e-05,-1.368949444087400684e-05
2.291269841269841123e+00,2.125430707390579637e-05,-7.840370250486565167e-06
2.292063492063491914e+00,1.950416045114702985e-05,1.464516696806785032e-06
2.292857142857142705e+00,1.534683339935496090e-05,1.372235229664626567e-05
2.293650793650793496e+00,9.687666844796791207e-06,2.754191831325144294e-05
2.294444444444444287e+00,3.716072793564158852e-06,4.075201351542690847e-05
2.295238095238095077e+00,-1.395703515787018310e-06,5.074966052246809265e-05
2.296031746031745868e+00,-4.748522663481268965e-06,5.503504747171005911e-05
2.296825396825396659e+00,-5.870626640340969971e-06,5.181101209872541894e-05
2.297619047619047450e+00,-4.752790926860130573e-06,4.048617462458004631e-05
2.298412698412698241e+00,-1.782462179764019276e-06,2.193344368090622868e-05
2.299206349206349032e+00,2.383078274350179369e-06,-1.580362115566994796e-06
2.299999999999999822e+00,6.960045009678187482e-06,-2.678419884947580857e-05
2.300793650793650613e+00,1.116411423465568920e-05,-5.001227492503961078e-05
2.301587301587301404e+00,1.430396654682964014e-05,-6.788079672186809283e-05
2.302380952380952195e+00,1.584568702544559906e-05,-7.788056302300650565e-05
2.303174603174602986e+00,1.546160654354527834e-05,-7.877911854747157521e-05
2.303968253968253777e+00,1.307512685476066500e-05,-7.078546034443109348e-05
2.304761904761904567e+00,8.899711134810599989e-06,-5.547803257833902661e-05
2.305555555555555358e+00,3.453487865253743093e-06,-3.552550218176764221e-05
2.306349206349206149e+00,-2.477013962556137477e-06,-1.424405343374684555e-05
2.307142857142856940e+00,-7.941407728879510707e-06,4.956752676021117787e-06
2.307936507936507731e+00,-1.199247152515551938e-05,1.917302382318945817e-05
2.308730158730158522e+00,-1.388458983443042083e-05,2.655610091735547388e-05
2.309523809523809312e+00,-1.325677211424156292e-05,2.669073451198962209e-05
2.310317460317460103e+00,-1.025070048718227189e-05,2.068502348371178032e-05
2.311111111111110894e+00,-5.523162935134763602e-06,1.091573699023860334e-05
2.311904761904761685e+00,-1.331629113622100362e-07,4.760243884538635790e-07
2.312698412698412920e+00,4.682269558862882571e-06,-7.527198149476747908e-06
2.313492063492063711e+00,7.790943894912505635e-06,-1.063395252979487204e-05
2.314285714285714501e+00,8.429145507846074441e-06,-7.492804487567590363e-06
2.315079365079365292e+00,6.371934594493155133e-06,1.942365141051650267e-06
2.315873015873016083e+00,1.968305769710085857e-06,1.645908266449388151e-05
2.316666666666666874e+00,-3.956721568441762463e-06,3.382243428432461628e-05
2.317460317460317665e+00,-1.029600555183388413e-05,5.115968529527795182e-05
2.318253968253968456e+00,-1.589773070940622490e-05,6.545807242207556153e-05
2.319047619047619246e+00,-1.979563724760203031e-05,7.410885616806369412e-05
2.319841269841270037e+00,-2.139073070118245631e-05,7.538937579504091148e-05
2.320634920634920828e+00,-2.055440288876660249e-05,6.876903920852510366e-05
2.321428571428571619e+00,-1.763640063647777784e-05,5.496837621710244019e-05
2.322222222222222410e+00,-1.337848540493303971e-05,3.577093274854527640e-05
2.323015873015873201e+00,-8.753074166391943095e-06,1.365372992397591965e-05
2.323809523809523991e+00,-4.760033160609696184e-06,-8.660754307633900504e-06
2.324603174603174782e+00,-2.221123876409971574e-06,-2.862823870887143003e-05
2.325396825396825573e+00,-1.611007395691587735e-06,-4.420989385727346635e-05
2.326190476190476364e+00,-2.957658638481695102e-06,-5.407576662320224989e-05
2.326984126984127155e+00,-5.834551887229198294e-06,-5.769607785337730721e-05
2.327777777777777946e+00,-9.452508389615506195e-06,-5.535215231582783237e-05
2.328571428571428736e+00,-1.283990260367044341e-05,-4.809478742477182742e-05
2.329365079365079527e+00,-1.507594740091466254e-05,-3.765197906138033796e-05
2.330158730158730318e+00,-1.551833044433103322e-05,-2.625257271431530201e-05
2.330952380952381109e+00,-1.395587867352278758e-05,-1.631648611789407791e-05
2.331746031746031900e+00,-1.063238660892709340e-05,-9.997867590417791362e-06
2.332539682539682691e+00,-6.131347727549724464e-06,-8.655640716469259295e-06
2.333333333333333481e+00,-1.166051611517761234e-06,-1.241542082246524905e-05
2.334126984126984272e+00,3.643291043068256171e-06,-2.000528283473956555e-05
2.334920634920635063e+00,7.923733732133763456e-06,-2.896619539957326819e-05
2.335714285714285854e+00,1.158730417122700990e-05,-3.620317115769438698e-05
2.336507936507936645e+00,1.475226592269150418e-05,-3.873442324238642905e-05
2.337301587301587436e+00,1.758965162765943155e-05,-3.445278862470471881e-05
2.338095238095238226e+00,2.016047077666101881e-05,-2.272224037157935097e-05
2.338888888888889017e+00,2.230934970739402025e-05,-4.666505969160779635e-06
2.339682539682539808e+00,2.365764068189751606e-05,1.693971646711868743e-05
2.340476190476190599e+00,2.370130726006216973e-05,3.818820377499625396e-05
2.341269841269841390e+00,2.198081524787921388e-05,5.487546068247060421e-05
2.342063492063492181e+00,1.826585309595302610e-05,6.347688767469869325e-05
2.342857142857142971e+00,1.269354032340382925e-05,6.201366605655832709e-05
2.343650793650793762e+00,5.813413963642790477e-06,5.058238211146318938e-05
2.344444444444444553e+00,-1.480349269887954525e-06,3.140597226123091108e-05
2.345238095238095344e+00,-8.117719040157581842e-06,8.392605228778401920e-06
2.346031746031746135e+00,-1.308344545884182232e-05,-1.369337878160172717e-05
2.346825396825396925e+00,-1.565264050781071508e-05,-3.026343083441305863e-05
2.347619047619047716e+00,-1.557041652842656564e-05,-3.790948220960227801e-05
2.348412698412698507e+00,-1.312689942411339153e-05,-3.514372497973596531e-05
2.349206349206349298e+00,-9.105498290016917623e-06,-2.268352249402054926e-05
2.350000000000000089e+00,-4.615749082973486153e-06,-3.204627086897292482e-06
2.350793650793650880e+00,-8.516805023588788947e-07,1.935928903787472523e-05
2.351587301587301670e+00,1.167010384991622089e-06,4.075384583620108903e-05
2.352380952380952461e+00,8.145365074505066176e-07,5.730029537701645587e-05
2.353174603174603252e+00,-2.002636699591141258e-06,6.651927942210149607e-05
2.353968253968254043e+00,-6.810809749232124907e-06,6.737577944347085087e-05
2.354761904761904834e+00,-1.264128591878331018e-05,6.017881718621091036e-05
2.355555555555555625e+00,-1.819893116295049517e-05,4.626301261256570991e-05
2.356349206349206415e+00,-2.210225143126587244e-05,2.760195199498938646e-05
2.357142857142857206e+00,-2.315450731323972190e-05,6.467140648065045725e-06
2.357936507936507997e+00,-2.059110706648361865e-05,-1.481898782538450563e-05
2.358730158730158788e+00,-1.424534768649694002e-05,-3.405024651316790498e-05
2.359523809523809579e+00,-4.590986860999661451e-06,-4.927327633029556707e-05
2.360317460317460370e+00,7.346625998567049346e-06,-5.893691592421927434e-05
2.361111111111111160e+00,2.018327103232770128e-05,-6.205799798373134546e-05
2.361904761904761951e+00,3.242103889657327250e-05,-5.836332167852754141e-05
2.362698412698412742e+00,4.268823889731401523e-05,-4.835492311002535456e-05
2.363492063492063533e+00,4.992491829167446343e-05,-3.327390637607814585e-05
2.364285714285714324e+00,5.348455683432585297e-05,-1.497892030791497170e-05
2.365079365079365115e+00,5.314866026599773287e-05,4.228412398863331886e-06
2.365873015873015905e+00,4.907511296788247171e-05,2.181541628826216619e-05
2.366666666666666696e+00,4.171359306738041460e-05,3.527658280719340761e-05
2.367460317460317487e+00,3.171864112884465868e-05,4.245051270672010559e-05
2.368253968253968278e+00,1.987791904115934703e-05,4.188100895378426858e-05
2.369047619047619069e+00,7.058234517551722733e-06,3.316321479228379992e-05
2.369841269841269860e+00,-5.838204691699381165e-06,1.717891051642766312e-05
2.370634920634920650e+00,-1.791782427312325521e-05,-3.880159438824518981e-06
2.371428571428571441e+00,-2.834807461242535572e-05,-2.676647048057736978e-05
2.372222222222222232e+00,-3.642064154533255121e-05,-4.770546433817348682e-05
2.373015873015873023e+00,-4.162016971453279653e-05,-6.311310039470486872e-05
2.373809523809523814e+00,-4.368554907916378171e-05,-7.034385245371659772e-05
2.374603174603174605e+00,-4.264816733012285034e-05,-6.827571907369306534e-05
2.375396825396825395e+00,-3.883664500425654037e-05,-5.756173812247466099e-05
2.376190476190476186e+00,-3.284674178971076905e-05,-4.045901354073954748e-05
2.376984126984126977e+00,-2.548156143522824243e-05,-2.026313987240206432e-05
2.377777777777777768e+00,-1.766807738950907814e-05,-4.912677531553325873e-07
2.378571428571428559e+00,-1.035437302875374615e-05,1.596481315029858893e-05
2.379365079365079350e+00,-4.392412166050371307e-06,2.747903077909131755e-05
2.380158730158730140e+00,-4.154802730940583466e-07,3.394596515293834535e-05
2.380952380952380931e+00,1.273523103696215572e-06,3.658788777546354915e-05
2.381746031746031722e+00,7.795215939676359233e-07,3.738728707170656154e-05
2.382539682539682513e+00,-1.368900846788408560e-06,3.832581075178716088e-05
2.383333333333333304e+00,-4.288057911813876660e-06,4.065850753991421277e-05
2.384126984126984095e+00,-6.897515362363872711e-06,4.443683689196989466e-05
2.384920634920634885e+00,-8.145388285669312453e-06,4.842757355965600987e-05
2.385714285714285676e+00,-7.249983954888031952e-06,5.047030447625821457e-05
2.386507936507936467e+00,-3.894862943061509533e-06,4.818818504103425311e-05
2.387301587301587258e+00,1.675218319480801026e-06,3.984495731968970035e-05
2.388095238095238049e+00,8.682644176586883553e-06,2.507307441529412262e-05
2.388888888888888840e+00,1.596349836819586592e-05,5.223424611487737090e-06
2.389682539682539630e+00,2.220167406836151189e-05,-1.679336095150362412e-05
2.390476190476190421e+00,2.620484671576191161e-05,-3.713927528979817094e-05
2.391269841269841212e+00,2.716929290381965795e-05,-5.197640964114802053e-05
2.392063492063492003e+00,2.487896804605238779e-05,-5.843177617516833068e-05
2.392857142857142794e+00,1.978963661704228173e-05,-5.533725015927906318e-05
2.393650793650793585e+00,1.296553332913881418e-05,-4.354388714244466954e-05
2.394444444444444375e+00,5.866970154950956110e-06,-2.572139666773633315e-05
2.395238095238095166e+00,2.734155106108242448e-08,-5.690999727235394461e-06
2.396031746031745957e+00,-3.306665670382870134e-06,1.253073665080670815e-05
2.396825396825396748e+00,-3.481293931845740937e-06,2.571571319180567509e-05
2.397619047619047539e+00,-6.063237300915725435e-07,3.216511072646319647e-05
2.398412698412698330e+00,4.461429984591251545e-06,3.200912122232730622e-05
2.399206349206349120e+00,1.032730974145406289e-05,2.699960467114258394e-05
2.399999999999999911e+00,1.541327579285788063e-05,1.987512774372235397e-05
2.400793650793650702e+00,1.836248154980382817e-05,1.348906773845383413e-05
2.401587301587301493e+00,1.837514939426722013e-05,9.943472773360422664e-06
2.402380952380952284e+00,1.537471550074983025e-05,9.965224799934504945e-06
2.403174603174603075e+00,9.961698029346651836e-06,1.270518326421565987e-05
2.403968253968253865e+00,3.186223258874735125e-06,1.603647915503000825e-05
2.404761904761904656e+00,-3.775875092274204037e-06,1.728003162968999389e-05
2.405555555555555447e+00,-9.941885839587847254e-06,1.412812371745629903e-05
2.406349206349206238e+00,-1.474903598000374496e-05,5.440831224999875214e-06
2.407142857142857029e+00,-1.813302596264052612e-05,-8.373980876123507860e-06
2.407936507936507819e+00,-2.044099416509933870e-05,-2.551131904606571352e-05
2.408730158730158610e+00,-2.220729957751384028e-05,-4.333840464422349418e-05
2.409523809523809401e+00,-2.386662492363475315e-05,-5.912122032387658000e-05
2.410317460317460192e+00,-2.550887329092011170e-05,-7.064103825476486498e-05
2.411111111111110983e+00,-2.677428819297271906e-05,-7.653837576039207197e-05
2.411904761904761774e+00,-2.693877098029136375e-05,-7.635506019347572935e-05
2.412698412698412564e+00,-2.516733079509677733e-05,-7.034662127142755320e-05
2.413492063492063355e+00,-2.085214043768382732e-05,-5.918962281572146645e-05
2.414285714285714146e+00,-1.392466740663500068e-05,-4.371599916933042101e-05
2.415079365079364937e+00,-5.039289008540999219e-06,-2.477421836164661893e-05
2.415873015873015728e+00,4.442671018048593801e-06,-3.253535801727937591e-06
2.416666666666666519e+00,1.269233761291459068e-05,1.976669711089705690e-05
2.417460317460317309e+00,1.784113261404807345e-05,4.283772776150428875e-05
2.418253968253968100e+00,1.849954469886059120e-05,6.404515774702418428e-05
2.419047619047618891e+00,1.422048899989289984e-05,8.108222276122757578e-05
2.419841269841269682e+00,5.752132178064168672e-06,9.152210163251790808e-05
2.420634920634920473e+00,-5.024463190473542675e-06,9.325736160013940355e-05
2.421428571428571264e+00,-1.547913325130875555e-05,8.502560757554638584e-05
2.422222222222222054e+00,-2.284077191237897492e-05,6.690158686952419784e-05
2.423015873015872845e+00,-2.486816572114149075e-05,4.060589706976093770e-05
2.423809523809523636e+00,-2.041114137988882257e-05,9.480747404819104719e-06
2.424603174603174427e+00,-9.722177437990771112e-06,-2.195426386966690052e-05
2.425396825396825218e+00,5.561057907530944695e-06,-4.882706197164642743e-05
2.426190476190476009e+00,2.276363801441457697e-05,-6.693703827025690401e-05
2.426984126984126799e+00,3.876874433841846903e-05,-7.370750084303049157e-05
2.427777777777777590e+00,5.070704444022553468e-05,-6.880343240544508005e-05
2.428571428571428381e+00,5.655553466149022146e-05,-5.424501355500318910e-05
2.429365079365079172e+00,5.548720704777208097e-05,-3.398056310454301881e-05
2.430158730158729963e+00,4.789258846642819613e-05,-1.300935016854021303e-05
2.430952380952380754e+00,3.509917385423133525e-05,3.756473283583498251e-06
2.431746031746031544e+00,1.890480881309890076e-05,1.263666465941669138e-05
2.432539682539682335e+00,1.086778009195670830e-06,1.206012418162059340e-05
2.433333333333333126e+00,-1.695825334605114795e-05,2.943739730445719954e-06
2.434126984126983917e+00,-3.434026577999174445e-05,-1.154301035807685802e-05
2.434920634920634708e+00,-5.054770487212899001e-05,-2.677997855108458307e-05
2.435714285714285499e+00,-6.513708256901980102e-05,-3.785869680101211542e-05
2.436507936507936289e+00,-7.738477728449801301e-05,-4.080405356959239025e-05
2.437301587301587080e+00,-8.606978053675714093e-05,-3.355007786828012459e-05
2.438095238095238315e+00,-8.951621103911920564e-05,-1.643683953810443066e-05
2.438888888888889106e+00,-8.592781232701115070e-05,7.889370073901284114e-06
2.439682539682539897e+00,-7.392914965874472358e-05,3.515460802777702829e-05
2.440476190476190688e+00,-5.314074992511800595e-05,6.054997678339825776e-05
2.441269841269841478e+00,-2.459446246402999085e-05,7.994112497124934475e-05
2.442063492063492269e+00,9.159368766903708256e-06,9.083353977003502688e-05
2.442857142857143060e+00,4.431763478720529955e-05,9.279432737576734337e-05
2.443650793650793851e+00,7.643294919277550208e-05,8.722346697553482115e-05
2.444444444444444642e+00,1.012433455369341547e-04,7.661753668044834771e-05
2.445238095238095433e+00,1.155290146223109012e-04,6.365537705668914792e-05
2.446031746031746223e+00,1.177747802584326402e-04,5.046347171455690240e-05
2.446825396825397014e+00,1.084590251867575592e-04,3.828675020232768773e-05
2.447619047619047805e+00,8.989538657195239243e-05,2.758546118318345707e-05
2.448412698412698596e+00,6.568185994724820022e-05,1.840833283168654539e-05
2.449206349206349387e+00,3.991172158406560924e-05,1.081540587086195104e-05
2.450000000000000178e+00,1.634291331937392310e-05,5.140899169865468659e-06
2.450793650793650968e+00,-2.289421713287363063e-06,1.972976768629738084e-06
2.451587301587301759e+00,-1.467907409956090347e-05,1.856454734909596757e-06
2.452380952380952550e+00,-2.100103974972252700e-05,4.857046098767673133e-06
2.453174603174603341e+00,-2.261653515107439949e-05,1.020362426226297508e-05
2.453968253968254132e+00,-2.152317651057116421e-05,1.619968809570861146e-05
2.454761904761904923e+00,-1.971377324748451479e-05,2.047305047698310968e-05
2.455555555555555713e+00,-1.863134837175421936e-05,2.048545530056220356e-05
2.456349206349206504e+00,-1.886715781089927415e-05,1.413839207345549998e-05
2.457142857142857295e+00,-2.015838596186291247e-05,3.191336757619213990e-07
2.457936507936508086e+00,-2.164409434348862993e-05,-2.071351384714166532e-05
2.458730158730158877e+00,-2.227054609645227746e-05,-4.716899673226410041e-05
2.459523809523809668e+00,-2.121462677896623978e-05,-7.585592338834352825e-05
2.460317460317460458e+00,-1.820662378874532609e-05,-1.026548473787686585e-04
2.461111111111111249e+00,-1.366441461854386574e-05,-1.233004709218638842e-04
2.461904761904762040e+00,-8.595586310306757235e-06,-1.343057288710777330e-04
2.462698412698412831e+00,-4.287672335321569876e-06,-1.337602942608645290e-04
2.463492063492063622e+00,-1.881605408801758445e-06,-1.217524581026014214e-04
2.464285714285714413e+00,-1.975568128982028598e-06,-1.002951888923164217e-04
2.465079365079365203e+00,-4.399838490776825210e-06,-7.280558150017944806e-05
2.465873015873015994e+00,-8.237377181285268228e-06,-4.330814548816371143e-05
2.466666666666666785e+00,-1.207763569573046066e-05,-1.557739690385917815e-05
2.467460317460317576e+00,-1.442421746205858326e-05,7.576769467070312545e-06
2.468253968253968367e+00,-1.414513072779664091e-05,2.472399112395891587e-05
2.469047619047619158e+00,-1.084738276315260902e-05,3.584975138607825044e-05
2.469841269841269948e+00,-5.066303795551771230e-06,4.203972655404972041e-05
2.470634920634920739e+00,1.809195014059126175e-06,4.494151624137112565e-05
2.471428571428571530e+00,7.889525581823502329e-06,4.618661175489611104e-05
2.472222222222222321e+00,1.133693810702764810e-05,4.693448396953235928e-05
2.473015873015873112e+00,1.095259701432171194e-05,4.762600060766413438e-05
2.473809523809523903e+00,6.599250596276349165e-06,4.795657284749770167e-05
2.474603174603174693e+00,-6.945350736897416208e-07,4.703913362016658888e-05
2.475396825396825484e+00,-8.994011622226375280e-06,4.371860785023229672e-05
2.476190476190476275e+00,-1.600302541376275115e-05,3.698777718255667659e-05
2.476984126984127066e+00,-1.972621354894574250e-05,2.641684373233234851e-05
2.477777777777777857e+00,-1.905260118807325479e-05,1.246595985688793682e-05
2.478571428571428648e+00,-1.409211267551307460e-05,-3.449490813971896818e-06
2.479365079365079438e+00,-6.162788885288328231e-06,-1.919768544711059652e-05
2.480158730158730229e+00,2.579900870887076476e-06,-3.241111979662892093e-05
2.480952380952381020e+00,9.771757849388092781e-06,-4.105208762357367259e-05
2.481746031746031811e+00,1.353483851450370947e-05,-4.388855640135304835e-05
2.482539682539682602e+00,1.301578899661659622e-05,-4.076382563666252918e-05
2.483333333333333393e+00,8.596705406746346691e-06,-3.262652509028685983e-05
2.484126984126984183e+00,1.723344324605946129e-06,-2.134630755074723441e-05
2.484920634920634974e+00,-5.575233068920579647e-06,-9.361250314048111921e-06
2.485714285714285765e+00,-1.130963982709669966e-05,7.914735393945541994e-07
2.486507936507936556e+00,-1.410259474791015467e-05,6.993300924528804354e-06
2.487301587301587347e+00,-1.354980879774693980e-05,8.016087658424155259e-06
2.488095238095238138e+00,-1.027620175442523529e-05,3.842730112625507185e-06
2.488888888888888928e+00,-5.678323316339301704e-06,-4.250049296993607827e-06
2.489682539682539719e+00,-1.432595397760836739e-06,-1.389175650272011829e-05
2.490476190476190510e+00,1.075302170305597772e-06,-2.209364901441068544e-05
2.491269841269841301e+00,1.211206165207466707e-06,-2.593239745805620824e-05
2.492063492063492092e+00,-7.127856182300854935e-07,-2.330709250575262967e-05
2.492857142857142883e+00,-3.571973049593479377e-06,-1.357528122619412105e-05
2.493650793650793673e+00,-5.835968081940919191e-06,2.140471720347754453e-06
2.494444444444444464e+00,-6.103120265686489063e-06,2.111674582605205334e-05
2.495238095238095255e+00,-3.585826405110675870e-06,3.966100698465447119e-05
2.496031746031746046e+00,1.601044385078973931e-06,5.404374326432377667e-05
2.496825396825396837e+00,8.429291864048169965e-06,6.145610989868561331e-05
2.497619047619047628e+00,1.522351496189920803e-05,6.071204821086439556e-05
2.498412698412698418e+00,2.012740379866933920e-05,5.250383267458344060e-05
2.499206349206349209e+00,2.163830003041445184e-05,3.916301056946501919e-05
2.500000000000000000e+00,1.905792709349728883e-05,2.401921361064454841e-05
2.500793650793650791e+00,1.272925870053518415e-05,1.054578419161327709e-05
2.501587301587301582e+00,3.989823817120325058e-06,1.519894873682760206e-06
2.502380952380952372e+00,-5.147055430166553490e-06,-1.590472330829983506e-06
2.503174603174603163e+00,-1.249547829597677699e-05,1.134038776129189163e-06
2.503968253968253954e+00,-1.624971717855879514e-05,8.236862152714316223e-06
2.504761904761904745e+00,-1.544351544410981966e-05,1.738696801300307774e-05
2.505555555555555536e+00,-1.019899759832903425e-05,2.603580919919635563e-05
2.506349206349206327e+00,-1.698301182767830026e-06,3.203303868046296311e-05
2.507142857142857117e+00,8.120986991764708729e-06,3.404868566808505725e-05
2.507936507936507908e+00,1.706849794808227306e-05,3.173391523957839588e-05
2.508730158730158699e+00,2.326062275114599773e-05,2.563774543881669059e-05
2.509523809523809490e+00,2.557598319933109178e-05,1.695250970809409770e-05
2.510317460317460281e+00,2.388319606865422031e-05,7.179263036355589706e-06
2.511111111111111072e+00,1.899607992041201982e-05,-2.201500188678481286e-06
2.511904761904761862e+00,1.239569061336013332e-05,-9.986434016010811051e-06
2.512698412698412653e+00,5.814472941014266549e-06,-1.539514481664742385e-05
2.513492063492063444e+00,7.936919521050637918e-07,-1.810585170199728618e-05
2.514285714285714235e+00,-1.686664853445844651e-06,-1.821504974708095372e-05
2.515079365079365026e+00,-1.428076590551879584e-06,-1.616557498633409390e-05
2.515873015873015817e+00,9.667264338462166782e-07,-1.267133664363735858e-05
2.516666666666666607e+00,4.284550946069129917e-06,-8.639965204787873474e-06
2.517460317460317398e+00,7.057714075094495543e-06,-5.076867122418590554e-06
2.518253968253968189e+00,7.986535456974730337e-06,-2.955193569960684821e-06
2.519047619047618980e+00,6.305297677847285732e-06,-3.052412032967758237e-06
2.519841269841269771e+00,1.987178648310574215e-06,-5.776219644583805140e-06
2.520634920634920562e+00,-4.263282698856751840e-06,-1.102173919731538812e-05
2.521428571428571352e+00,-1.121729691196249928e-05,-1.811164193221387033e-05
2.522222222222222143e+00,-1.746317882520682140e-05,-2.586558209602153794e-05
2.523015873015872934e+00,-2.178698809129147679e-05,-3.281912266637073913e-05
2.523809523809523725e+00,-2.348873014363361608e-05,-3.756223913785049657e-05
2.524603174603174516e+00,-2.254134899505068945e-05,-3.910698131032381338e-05
2.525396825396825307e+00,-1.953907477654318341e-05,-3.715840955054407804e-05
2.526190476190476097e+00,-1.545165714540851519e-05,-3.218547866174049059e-05
2.526984126984126888e+00,-1.127629870408249878e-05,-2.526467965227965047e-05
2.527777777777777679e+00,-7.718395128888378939e-06,-1.775671041971049670e-05
2.528571428571428470e+00,-5.013786113820297292e-06,-1.093068381138615390e-05
2.529365079365079261e+00,-2.942465903208800687e-06,-5.653523059787765267e-06
2.530158730158730052e+00,-1.009155434044262685e-06,-2.224015002867062107e-06
2.530952380952380842e+00,1.289688448541805827e-06,-3.754544789123544159e-07
2.531746031746031633e+00,4.212974246713582174e-06,5.784167685891943076e-07
2.532539682539682424e+00,7.621271991650332337e-06,1.509145057997573096e-06
2.533333333333333215e+00,1.096905779891841850e-05,3.214600714000724579e-06
2.534126984126984006e+00,1.344377398324657987e-05,6.192615334344848866e-06
2.534920634920634797e+00,1.421082604930136025e-05,1.049166227610718844e-05
2.535714285714285587e+00,1.269414861305064007e-05,1.566787669382913980e-05
2.536507936507936378e+00,8.810246116376689045e-06,2.085808984843546372e-05
2.537301587301587169e+00,3.082557805421756413e-06,2.495512073532649190e-05
2.538095238095237960e+00,-3.407754236987557214e-06,2.685329033962379470e-05
2.538888888888888751e+00,-9.234737706270760066e-06,2.572307210325109144e-05
2.539682539682539542e+00,-1.295814686277392598e-05,2.126365348831253828e-05
2.540476190476190332e+00,-1.349024885171842486e-05,1.386466574088481848e-05
2.541269841269841123e+00,-1.040271967461268556e-05,4.602692377252294458e-06
2.542063492063491914e+00,-4.084772951401449650e-06,-4.965708967138730205e-06
2.542857142857142705e+00,4.306136359778656655e-06,-1.317425749530991653e-05
2.543650793650793496e+00,1.310514742734778102e-05,-1.866234100666822081e-05
2.544444444444444287e+00,2.054612502630483661e-05,-2.069302835529146273e-05
2.545238095238095077e+00,2.519047322721129409e-05,-1.927720817053018296e-05
2.546031746031745868e+00,2.624814658404460888e-05,-1.509249130607155770e-05
2.546825396825396659e+00,2.370679629519863640e-05,-9.257985218758063654e-06
2.547619047619047450e+00,1.825654922337062263e-05,-3.051919289161986941e-06
2.548412698412698241e+00,1.105824679279871117e-05,2.357530659269436333e-06
2.549206349206349032e+00,3.433460095508172350e-06,6.126169930720237066e-06
2.549999999999999822e+00,-3.443028829997907489e-06,7.865714698758211892e-06
2.550793650793650613e+00,-8.781104642898017752e-06,7.671676274583137160e-06
2.551587301587301404e+00,-1.229535497900372811e-05,6.037106209427420606e-06
2.552380952380952195e+00,-1.418297322429831299e-05,3.670334192202931072e-06
2.553174603174602986e+00,-1.496900872630477755e-05,1.270168926475009161e-06
2.553968253968253777e+00,-1.526882516025836626e-05,-6.662332775986206102e-07
2.554761904761904567e+00,-1.554751982500447829e-05,-1.937933565190037564e-06
2.555555555555555358e+00,-1.595663765236027322e-05,-2.614503766449210816e-06
2.556349206349206149e+00,-1.629707477179307299e-05,-2.918261264439517945e-06
2.557142857142856940e+00,-1.611064080463458497e-05,-3.074579542033668156e-06
2.557936507936507731e+00,-1.486373638067993021e-05,-3.193097701388899505e-06
2.558730158730158522e+00,-1.216602604651341791e-05,-3.223072414986400986e-06
2.559523809523809312e+00,-7.961596646299011145e-06,-2.993635764580133869e-06
2.560317460317460103e+00,-2.633801862720422556e-06,-2.312470138670168846e-06
2.561111111111110894e+00,3.019886715664882184e-06,-1.068729441870170075e-06
2.561904761904761685e+00,7.953088198620463382e-06,7.145424155280332621e-07
2.562698412698412920e+00,1.113733448518772338e-05,2.902677228108573265e-06
2.563492063492063711e+00,1.184958373459530967e-05,5.326641223201337290e-06
2.564285714285714501e+00,9.886973662590125227e-06,7.865677699558675429e-06
2.565079365079365292e+00,5.639761050378397294e-06,1.048681224913803332e-05
2.565873015873016083e+00,1.482604951615495063e-09,1.322180029672727900e-05
2.566666666666666874e+00,-5.854116445485089662e-06,1.609888586464016855e-05
2.567460317460317665e+00,-1.076406875557712785e-05,1.906662015426385559e-05
2.568253968253968456e+00,-1.385599300336936662e-05,2.193985126960445705e-05
2.569047619047619246e+00,-1.474328939807066692e-05,2.437744993615917235e-05
2.569841269841270037e+00,-1.358195659287950631e-05,2.589131658920135382e-05
2.570634920634920828e+00,-1.096843604395963441e-05,2.589509138883306044e-05
2.571428571428571619e+00,-7.705129172751767658e-06,2.380990640502655441e-05
2.572222222222222410e+00,-4.509954564860579493e-06,1.922649404828990049e-05
2.573015873015873201e+00,-1.773578086659523115e-06,1.207789163059280060e-05
2.573809523809523991e+00,5.464334045280729665e-07,2.742583377945398413e-06
2.574603174603174782e+00,2.857463224050128853e-06,-7.984507659374139851e-06
2.575396825396825573e+00,5.719216749097005498e-06,-1.904810365518177668e-05
2.576190476190476364e+00,9.569154664205939629e-06,-2.934304456018044932e-05
2.576984126984127155e+00,1.448784209177595240e-05,-3.789113504620659887e-05
2.577777777777777946e+00,2.008745419630060503e-05,-4.393895922599354211e-05
2.578571428571428736e+00,2.556218426963470066e-05,-4.699006724779928440e-05
2.579365079365079527e+00,2.988665596200560799e-05,-4.681352452196745252e-05
2.580158730158730318e+00,3.210128341931147404e-05,-4.345682327621064409e-05
2.580952380952381109e+00,3.159326348713126361e-05,-3.725803891368413215e-05
2.581746031746031900e+00,2.828077203387705774e-05,-2.883221485817436105e-05
2.582539682539682691e+00,2.264081262482578108e-05,-1.901432700441389452e-05
2.583333333333333481e+00,1.557603750019161633e-05,-8.764584477089728984e-06
2.584126984126984272e+00,8.169144550942024610e-06,9.402078794269354247e-07
2.584920634920635063e+00,1.405084186663308030e-06,9.204532185116953962e-06
2.585714285714285854e+00,-4.056142584397307057e-06,1.528875347493741099e-05
2.586507936507936645e+00,-7.995627080522012137e-06,1.866325453975342145e-05
2.587301587301587436e+00,-1.061648593544609523e-05,1.905594678937851547e-05
2.588095238095238226e+00,-1.240391975045835220e-05,1.650824689425316866e-05
2.588888888888889017e+00,-1.391106689547649793e-05,1.144148154449861825e-05
2.589682539682539808e+00,-1.553816693776989490e-05,4.709226634213951631e-06
2.590476190476190599e+00,-1.737600090874510234e-05,-2.416006762485191060e-06
2.591269841269841390e+00,-1.916566903957042859e-05,-8.379605567048434791e-06
2.592063492063492181e+00,-2.038820893929986768e-05,-1.163139735431958264e-05
2.592857142857142971e+00,-2.045252209497130724e-05,-1.102105478189995515e-05
2.593650793650793762e+00,-1.891663536543967673e-05,-6.187851158875985105e-06
2.594444444444444553e+00,-1.566871757240680135e-05,2.207596266004190751e-06
2.595238095238095344e+00,-1.101138051546684632e-05,1.253460479322554300e-05
2.596031746031746135e+00,-5.624847214983038782e-06,2.256144928709480528e-05
2.596825396825396925e+00,-4.188679376551366525e-07,3.005557125308055079e-05
2.597619047619047716e+00,3.686692079353165263e-06,3.342601724276631186e-05
2.598412698412698507e+00,5.990869536969497951e-06,3.218646510841707831e-05
2.599206349206349298e+00,6.183280797217931687e-06,2.707702860937456901e-05
2.600000000000000089e+00,4.410001894036750653e-06,1.980860497682958218e-05
2.600793650793650880e+00,1.221489951455917967e-06,1.252529106033900750e-05
2.601587301587301670e+00,-2.573099516320180065e-06,7.166692867970002640e-06
2.602380952380952461e+00,-6.099237645119347003e-06,4.931031560584584042e-06
2.603174603174603252e+00,-8.608653906077590472e-06,5.995189078523915483e-06
2.603968253968254043e+00,-9.629025427779919628e-06,9.558245185539649064e-06
2.604761904761904834e+00,-9.045281454277067325e-06,1.417019735300995127e-05
2.605555555555555625e+00,-7.099710081646428878e-06,1.822091335205081568e-05
2.606349206349206415e+00,-4.311225318011816165e-06,2.042317855626600573e-05
2.607142857142857206e+00,-1.329558294895986218e-06,2.013965907259090737e-05
2.607936507936507997e+00,1.241914394599423656e-06,1.746839609807338052e-05
2.608730158730158788e+00,3.006901874216186294e-06,1.308927972973403010e-05
2.609523809523809579e+00,3.872269146939178125e-06,7.951951985830507387e-06
2.610317460317460370e+00,4.048791348050323550e-06,2.927955015696560658e-06
2.611111111111111160e+00,3.955668317411164444e-06,-1.452950429547930756e-06
2.611904761904761951e+00,4.057991122637879896e-06,-5.104112719864331953e-06
2.612698412698412742e+00,4.686420659915691123e-06,-8.306314676176259799e-06
2.613492063492063533e+00,5.893526322696161946e-06,-1.150339905739893994e-05
2.614285714285714324e+00,7.392446669415693633e-06,-1.505763321073383337e-05
2.615079365079365115e+00,8.604480331441782172e-06,-1.905691423929189529e-05
2.615873015873015905e+00,8.815864890379995140e-06,-2.323588346073997930e-05
2.616666666666666696e+00,7.412574680308168829e-06,-2.702679125539541138e-05
2.617460317460317487e+00,4.130757102330695150e-06,-2.971385845113600085e-05
2.618253968253968278e+00,-7.596394522688530903e-07,-3.063916063421154203e-05
2.619047619047619069e+00,-6.415831137292219829e-06,-2.940095310223746287e-05
2.619841269841269860e+00,-1.156843424114385677e-05,-2.599314591848334762e-05
2.620634920634920650e+00,-1.483170775844494069e-05,-2.085188683022464677e-05
2.621428571428571441e+00,-1.509377862984268904e-05,-1.479703786847003520e-05
2.622222222222222232e+00,-1.186710204062714663e-05,-8.878926413878926083e-06
2.623015873015873023e+00,-5.485965153185751555e-06,-4.160573763499117801e-06
2.623809523809523814e+00,2.916944317492384602e-06,-1.478908447954306048e-06
2.624603174603174605e+00,1.165662812328811653e-05,-1.233073149102916201e-06
2.625396825396825395e+00,1.890187901261103170e-05,-3.245606783180372742e-06
2.626190476190476186e+00,2.313520517684609543e-05,-6.736581764984156922e-06
2.626984126984126977e+00,2.354599183878225335e-05,-1.044019155859937797e-05
2.627777777777777768e+00,2.025026666915789373e-05,-1.286932482347825144e-05
2.628571428571428559e+00,1.426958641679713211e-05,-1.269100043669664268e-05
2.629365079365079350e+00,7.261786476474737555e-06,-9.125061468291595834e-06
2.630158730158730140e+00,1.066532698743134299e-06,-2.246080345818863318e-06
2.630952380952380931e+00,-2.812002201048807915e-06,6.923165281884985742e-06
2.631746031746031722e+00,-3.636700651982423732e-06,1.658582989820382611e-05
2.632539682539682513e+00,-1.652696501822562148e-06,2.459163420946857445e-05
2.633333333333333304e+00,1.987036390433845052e-06,2.900038140838145418e-05
2.634126984126984095e+00,5.579511607625609188e-06,2.862886637489176118e-05
2.634920634920634885e+00,7.425822020719663710e-06,2.341715338340907542e-05
2.635714285714285676e+00,6.428176669259255285e-06,1.450215246413568131e-05
2.636507936507936467e+00,2.539638012638982211e-06,3.972688870096387860e-06
2.637301587301587258e+00,-3.110473509114617589e-06,-5.633135282887738162e-06
2.638095238095238049e+00,-8.510064280407336529e-06,-1.196374524818109748e-05
2.638888888888888840e+00,-1.142993377215298234e-05,-1.346488099839976348e-05
2.639682539682539630e+00,-1.026617726429145955e-05,-9.805397455792211223e-06
2.640476190476190421e+00,-4.772217951094185218e-06,-1.993005170142501150e-06
2.641269841269841212e+00,3.600847146489385597e-06,7.869663773186655564e-06
2.642063492063492003e+00,1.193088758144846089e-05,1.713316769961188428e-05
2.642857142857142794e+00,1.661622428254799308e-05,2.329781145130256872e-05
2.643650793650793585e+00,1.453327760292116792e-05,2.465356824157839395e-05
2.644444444444444375e+00,4.211418327963367119e-06,2.068565070988044482e-05
2.645238095238095166e+00,-1.336956344072623357e-05,1.215444475618954499e-05
2.646031746031745957e+00,-3.466769797530108981e-05,8.574431786039904693e-07
2.646825396825396748e+00,-5.426246141068268876e-05,-1.084399821090888068e-05
2.647619047619047539e+00,-6.619599959291446237e-05,-2.060631732091925151e-05
2.648412698412698330e+00,-6.562144032554650605e-05,-2.664953340854582341e-05
2.649206349206349120e+00,-5.029809766529336554e-05,-2.813314932519474657e-05
2.649999999999999911e+00,-2.149669299963062711e-05,-2.527133074449193674e-05
2.650793650793650702e+00,1.597528835365096320e-05,-1.916985874287362691e-05
2.651587301587301493e+00,5.468829144244586249e-05,-1.145284699208405029e-05
2.652380952380952284e+00,8.625620433050853607e-05,-3.811415985874233623e-06
2.653174603174603075e+00,1.033596080342844047e-04,2.384409522600916527e-06
2.653968253968253865e+00,1.016214611416844439e-04,6.320148166294843992e-06
2.654761904761904656e+00,8.083473788067846639e-05,7.801469672092528892e-06
2.655555555555555447e+00,4.517783657549045230e-05,7.182298231097551806e-06
2.656349206349206238e+00,2.310402452600144379e-06,5.197496361840787385e-06
2.657142857142857029e+00,-3.844600477190249547e-05,2.729396552905494164e-06
2.657936507936507819e+00,-6.837840073078575503e-05,5.384695544923496535e-07
2.658730158730158610e+00,-8.151913528242346401e-05,-9.862170634292768663e-07
2.659523809523809401e+00,-7.610343078860265205e-05,-1.970262381225552827e-06
2.660317460317460192e+00,-5.497180753393927352e-05,-3.004720136017430236e-06
2.661111111111110983e+00,-2.479419722822206603e-05,-4.875486952174788053e-06
2.661904761904761774e+00,5.719066154110800224e-06,-8.142733288713176787e-06
2.662698412698412564e+00,2.818006330581494391e-05,-1.273071310217377159e-05
2.663492063492063355e+00,3.682421400730609000e-05,-1.770890955048104112e-05
2.664285714285714146e+00,3.007562359521491070e-05,-2.138268801361866851e-05
2.665079365079364937e+00,1.088708156225999353e-05,-2.169810298126228921e-05
2.665873015873015728e+00,-1.425225337349957332e-05,-1.685218875704352475e-05
2.666666666666666519e+00,-3.730647537229792710e-05,-5.926561211136501203e-06
2.667460317460317309e+00,-5.103124527959383602e-05,1.065317122633587264e-05
2.668253968253968100e+00,-5.094756989509818601e-05,3.098569831644046210e-05
2.669047619047618891e+00,-3.641779399930044475e-05,5.195119597780310924e-05
2.669841269841269682e+00,-1.061206371363041823e-05,6.980377925970142642e-05
2.670634920634920473e+00,2.051567800651910158e-05,8.095061485288203035e-05
2.671428571428571264e+00,4.987917194819068616e-05,8.273164747655210101e-05
2.672222222222222054e+00,7.105485108275239720e-05,7.403261064752679195e-05
2.673015873015872845e+00,7.973949253569260023e-05,5.560189149255176871e-05
2.673809523809523636e+00,7.451307061583164624e-05,2.997844334347650027e-05
2.674603174603174427e+00,5.677539511111283154e-05,9.987900129253915973e-07
2.675396825396825218e+00,2.999188566625999786e-05,-2.703650553230256312e-05
2.676190476190476009e+00,-1.408437155696728784e-06,-5.032280931593772940e-05
2.676984126984126799e+00,-3.307692596921895094e-05,-6.634713625187299102e-05
2.677777777777777590e+00,-6.142836301526248511e-05,-7.427123677177263313e-05
2.678571428571428381e+00,-8.386950565073652533e-05,-7.480892364707368038e-05
2.679365079365079172e+00,-9.868485033356879570e-05,-6.969815931167001226e-05
2.680158730158729963e+00,-1.047966524742421337e-04,-6.100126577028324359e-05
2.680952380952380754e+00,-1.015981438557885810e-04,-5.048148402908151825e-05
2.681746031746031544e+00,-8.896261054767079035e-05,-3.922406554653411822e-05
2.682539682539682335e+00,-6.741783672880013317e-05,-2.756435088207006171e-05
2.683333333333333126e+00,-3.838665405321183330e-05,-1.529961109668546526e-05
2.684126984126983917e+00,-4.350796559270205873e-06,-2.095789758697147738e-06
2.684920634920634708e+00,3.119544360307637297e-05,1.205354126112941345e-05
2.685714285714285499e+00,6.407821302659860458e-05,2.648560999714535328e-05
2.686507936507936289e+00,9.005267632842948360e-05,3.978831259218264721e-05
2.687301587301587080e+00,1.055828704724422347e-04,5.004108770196984970e-05
2.688095238095238315e+00,1.086154859473886141e-04,5.531760413655296445e-05
2.688888888888889106e+00,9.914021541853523984e-05,5.428547463324241696e-05
2.689682539682539897e+00,7.935754821965679707e-05,4.669340440734719757e-05
2.690476190476190688e+00,5.336015090671634666e-05,3.357194275904394848e-05
2.691269841269841478e+00,2.635420305727386142e-05,1.707074438510038808e-05
2.692063492063492269e+00,3.569328095032946853e-06,-2.816770648112360467e-08
2.692857142857143060e+00,-1.090057276111060308e-05,-1.498141653373887614e-05
2.693650793650793851e+00,-1.504293878262838057e-05,-2.573922632989000556e-05
2.694444444444444642e+00,-9.405297586047836931e-06,-3.138100640943345277e-05
2.695238095238095433e+00,3.045677923563298909e-06,-3.219522945789634732e-05
2.696031746031746223e+00,1.768166717171764450e-05,-2.939309457419219502e-05
2.696825396825397014e+00,2.940775035245422417e-05,-2.458213218966926134e-05
2.697619047619047805e+00,3.397907696456247767e-05,-1.920679315236286489e-05
2.698412698412698596e+00,2.908636857454956898e-05,-1.414874556526945194e-05
2.699206349206349387e+00,1.493664757224998954e-05,-9.589705168199199242e-06
2.700000000000000178e+00,-5.796578596072194714e-06,-5.134470227765399539e-06
2.700793650793650968e+00,-2.862851733807437500e-05,-1.202806322703871363e-07
2.701587301587301759e+00,-4.837471135193488437e-05,5.992668138399035172e-06
2.702380952380952550e+00,-6.047156349307934340e-05,1.326393855144251876e-05
2.703174603174603341e+00,-6.219045051259614043e-05,2.105978315997503482e-05
2.703968253968254132e+00,-5.342151399872539330e-05,2.807055050447629450e-05
2.704761904761904923e+00,-3.678423957688290108e-05,3.258655595929863403e-05
2.705555555555555713e+00,-1.699273257301761771e-05,3.297307185447822977e-05
2.706349206349206504e+00,3.835552347654537723e-07,2.820249903511391044e-05
2.707142857142857295e+00,1.044451210748481762e-05,1.827315235829986151e-05
2.707936507936508086e+00,1.036381519576423881e-05,4.388744200114947710e-06
2.708730158730158877e+00,2.850258531006278286e-07,-1.114673204519642316e-05
2.709523809523809668e+00,-1.656871513305290146e-05,-2.530248508772163840e-05
2.710317460317460458e+00,-3.465740822665104093e-05,-3.491559749041115140e-05
2.711111111111111249e+00,-4.759757824884061378e-05,-3.742448933676803866e-05
2.711904761904762040e+00,-4.995128300061196856e-05,-3.159436232553182390e-05
2.712698412698412831e+00,-3.881391007089092347e-05,-1.802210319259669780e-05
2.713492063492063622e+00,-1.473677809272569190e-05,7.952249187292678348e-07
2.714285714285714413e+00,1.826940878987672268e-05,2.094094073209912198e-05
2.715079365079365203e+00,5.362659192066871421e-05,3.802942846974022241e-05
2.715873015873015994e+00,8.371480947665996936e-05,4.835084435039757925e-05
2.716666666666666785e+00,1.016358762758527809e-04,4.983675944481173384e-05
2.717460317460317576e+00,1.027985731523809034e-04,4.253642900107451299e-05
2.718253968253968367e+00,8.597095727489668568e-05,2.848068112690954170e-05
2.719047619047619158e+00,5.356685814994243858e-05,1.101982674472148272e-05
2.719841269841269948e+00,1.110276415131904587e-05,-6.134701680799589846e-06
2.720634920634920739e+00,-3.404128102968149495e-05,-1.988435481422809955e-05
2.721428571428571530e+00,-7.424480405809007720e-05,-2.847641541456860900e-05
2.722222222222222321e+00,-1.032453685749625205e-04,-3.181353879006673592e-05
2.723015873015873112e+00,-1.173279636514974760e-04,-3.126729148157392788e-05
2.723809523809523903e+00,-1.158530314629027349e-04,-2.905666565651625379e-05
2.724603174603174693e+00,-1.010538529917038371e-04,-2.738410599840952693e-05
2.725396825396825484e+00,-7.720755739167241727e-05,-2.760484964137091947e-05
2.726190476190476275e+00,-4.941659983100033584e-05,-2.969898632807551481e-05
2.726984126984127066e+00,-2.231944994007693391e-05,-3.221875244255474456e-05
2.727777777777777857e+00,9.340358502373461479e-07,-3.273751944921805010e-05
2.728571428571428648e+00,1.917788093490972216e-05,-2.868078261651683955e-05
2.729365079365079438e+00,3.308905062798340129e-05,-1.830373035668219375e-05
2.730158730158730229e+00,4.449922208151215158e-05,-1.514925538305897678e-06
2.730952380952381020e+00,5.540615525159224656e-05,1.974258174853287600e-05
2.731746031746031811e+00,6.700203852390361047e-05,4.173237938571101098e-05
2.732539682539682602e+00,7.901713475052088746e-05,5.977732192479409397e-05
2.733333333333333393e+00,8.958874168456697673e-05,6.950280186605857860e-05
2.734126984126984183e+00,9.572421321647239833e-05,6.810136674047387675e-05
2.734920634920634974e+00,9.425121015869094893e-05,5.522334902936635887e-05
2.735714285714285765e+00,8.297874615265188954e-05,3.320579143982112789e-05
2.736507936507936556e+00,6.168985922759717851e-05,6.552140125911759065e-06
2.737301587301587347e+00,3.260567625386653456e-05,-1.920163580252165218e-05
2.738095238095238138e+00,1.149472451757356252e-07,-3.891872442856994291e-05
2.738888888888888928e+00,-3.019498499407548265e-05,-4.918388307414513948e-05
2.739682539682539719e+00,-5.293368481842008008e-05,-4.913145237516001741e-05
2.740476190476190510e+00,-6.431693093020428753e-05,-4.053057561025332953e-05
2.741269841269841301e+00,-6.317471502534336585e-05,-2.710232216577060892e-05
2.742063492063492092e+00,-5.126631775527428202e-05,-1.329090168327967371e-05
2.742857142857142883e+00,-3.281295794917326371e-05,-2.896835570262393035e-06
2.743650793650793673e+00,-1.337857563935552805e-05,1.977422604962710706e-06
2.744444444444444464e+00,1.591340289147453663e-06,1.347794208354945972e-06
2.745238095238095255e+00,8.169394093106876648e-06,-2.943601714563951722e-06
2.746031746031746046e+00,4.898107145749446848e-06,-8.067058453008840670e-06
2.746825396825396837e+00,-6.961898006535429819e-06,-1.127088115740881378e-05
2.747619047619047628e+00,-2.392937064283223272e-05,-1.081912453455149696e-05
2.748412698412698418e+00,-4.136120479828314227e-05,-6.512217366560672056e-06
2.749206349206349209e+00,-5.473501469662645392e-05,3.570313299585280181e-07
2.750000000000000000e+00,-6.078719015584387655e-05,7.571298983869442956e-06
2.750793650793650791e+00,-5.821947261575267853e-05,1.285453211884014674e-05
2.751587301587301582e+00,-4.783486099454904993e-05,1.469736101425407973e-05
2.752380952380952372e+00,-3.212744880866977954e-05,1.282697975366843764e-05
2.753174603174603163e+00,-1.448937934477211813e-05,8.171201681729934311e-06
2.753968253968253954e+00,1.717689253849900962e-06,2.393445890960282577e-06
2.754761904761904745e+00,1.396671497859870190e-05,-2.759272195222124682e-06
2.755555555555555536e+00,2.104743004020503193e-05,-6.026151810193698965e-06
2.756349206349206327e+00,2.314668758243504447e-05,-6.942390243590913144e-06
2.757142857142857117e+00,2.157496633677697228e-05,-5.843274902645762076e-06
2.757936507936507908e+00,1.827206419919497871e-05,-3.623316495597685413e-06
2.758730158730158699e+00,1.524254500005644113e-05,-1.367046198653540210e-06
2.759523809523809490e+00,1.404321474552407293e-05,2.240863022814906900e-08
2.760317460317460281e+00,1.541357574389123864e-05,9.511607740060002792e-08
2.761111111111111072e+00,1.912355631121553153e-05,-1.031154861854549964e-06
2.761904761904761862e+00,2.408858824937590062e-05,-2.721523920892510212e-06
2.762698412698412653e+00,2.874140869436322827e-05,-4.006171920048162786e-06
2.763492063492063444e+00,3.155999107412985505e-05,-3.839440238524608682e-06
2.764285714285714235e+00,3.157891684022304691e-05,-1.382096924523952062e-06
2.765079365079365026e+00,2.870603038084749181e-05,3.737233994245903667e-06
2.765873015873015817e+00,2.373722951968569049e-05,1.122477867314805851e-05
2.766666666666666607e+00,1.807453485570765308e-05,2.004270172498642946e-05
2.767460317460317398e+00,1.325371244556948226e-05,2.850633856099001490e-05
2.768253968253968189e+00,1.044113272659517892e-05,3.458766901409722635e-05
2.769047619047618980e+00,1.005729802430159611e-05,3.639198197132277525e-05
2.769841269841269771e+00,1.163856358605748610e-05,3.269970039215898324e-05
2.770634920634920562e+00,1.397704762849123564e-05,2.341633032550384183e-05
2.771428571428571352e+00,1.549916549404942200e-05,9.777997404552778493e-06
2.772222222222222143e+00,1.477356051470637636e-05,-5.781353408635255869e-06
2.773015873015872934e+00,1.099810805614380607e-05,-2.010492907286158835e-05
2.773809523809523725e+00,4.317632974412131013e-06,-3.003962930174027357e-05
2.774603174603174516e+00,-4.128729948417660686e-06,-3.324407626065500611e-05
2.775396825396825307e+00,-1.245383268603595345e-05,-2.886041929934503260e-05
2.776190476190476097e+00,-1.850444360460198675e-05,-1.783827117735850321e-05
2.776984126984126888e+00,-2.045977134816675793e-05,-2.776283846703687078e-06
2.777777777777777679e+00,-1.739558282837114179e-05,1.271214833285587365e-05
2.778571428571428470e+00,-9.658857505362557501e-06,2.494027269395413332e-05
2.779365079365079261e+00,1.074659135744340315e-06,3.111110591539539892e-05
2.780158730158730052e+00,1.211992617545550930e-05,3.000494452781350221e-05
2.780952380952380842e+00,2.043456518920745851e-05,2.219681263795592223e-05
2.781746031746031633e+00,2.344626058968426663e-05,9.776351675345009481e-06
2.782539682539682424e+00,1.982308300494142435e-05,-4.303780101335866256e-06
2.783333333333333215e+00,9.952886326763539832e-06,-1.703718785414235691e-05
2.784126984126984006e+00,-4.025012517874704653e-06,-2.610345138896744068e-05
2.784920634920634797e+00,-1.867168366236482611e-05,-3.035574351644282083e-05
2.785714285714285587e+00,-3.010100329686390624e-05,-2.995774852146216368e-05
2.786507936507936378e+00,-3.505370215010636604e-05,-2.617361408640442612e-05
2.787301587301587169e+00,-3.193556711235651764e-05,-2.090658498805421270e-05
2.788095238095237960e+00,-2.151071183302411734e-05,-1.613395241929484826e-05
2.788888888888888751e+00,-6.965259130596326246e-06,-1.338584095017259600e-05
2.789682539682539542e+00,6.792260107446557873e-06,-1.337656659135565601e-05
2.790476190476190332e+00,1.446803156244308647e-05,-1.584726106992179377e-05
2.791269841269841123e+00,1.197211363411950218e-05,-1.963739801664528560e-05
2.792063492063491914e+00,-2.250338522814255794e-06,-2.297120683775944180e-05
2.792857142857142705e+00,-2.657843782965095439e-05,-2.390945457967028347e-05
2.793650793650793496e+00,-5.646522457905603771e-05,-2.087075705458377468e-05
2.794444444444444287e+00,-8.550312547684916424e-05,-1.308560501318980144e-05
2.795238095238095077e+00,-1.070131786512529168e-04,-8.441217386144101406e-07
2.796031746031745868e+00,-1.157410534904820246e-04,1.454401769163834427e-05
2.796825396825396659e+00,-1.092093088513905659e-04,3.105985255625923441e-05
2.797619047619047450e+00,-8.834209710369702012e-05,4.644491337852314940e-05
2.798412698412698241e+00,-5.716384900720594355e-05,5.867633151493870889e-05
2.799206349206349032e+00,-2.165228152858801123e-05,6.631089455752102891e-05
2.799999999999999822e+00,1.189825682545945232e-05,6.862235108565635055e-05
2.800793650793650613e+00,3.849472619565405377e-05,6.553156156568360955e-05
2.801587301587301404e+00,5.557005975560939438e-05,5.739679137013914862e-05
2.802380952380952195e+00,6.332980565543384899e-05,4.477530481305648622e-05
2.803174603174602986e+00,6.429062429201669196e-05,2.827278034425453892e-05
2.803968253968253777e+00,6.220833714422158254e-05,8.556892091210300893e-06
2.804761904761904567e+00,6.074121180940641275e-05,-1.346410021217937013e-05
2.805555555555555358e+00,6.224588859537784618e-05,-3.638060518857662789e-05
2.806349206349206149e+00,6.705633916813661299e-05,-5.807923256481131898e-05
2.807142857142856940e+00,7.345411138637079451e-05,-7.574401001308743073e-05
2.807936507936507731e+00,7.832615743002133905e-05,-8.615558792808863692e-05
2.808730158730158522e+00,7.828454282072184122e-05,-8.629508519323943910e-05
2.809523809523809312e+00,7.087071260243119606e-05,-7.415839430249683941e-05
2.810317460317460103e+00,5.544954113374202709e-05,-4.958866057091471341e-05
2.811111111111110894e+00,3.352248868267662251e-05,-1.486118267595057770e-05
2.811904761904761685e+00,8.394688964008925668e-06,2.525374646047460919e-05
2.812698412698412920e+00,-1.567210339354741471e-05,6.412743529554287456e-05
2.813492063492063711e+00,-3.456066189880208577e-05,9.457765771261397172e-05
2.814285714285714501e+00,-4.534419321066054937e-05,1.105484639655459001e-04
2.815079365079365292e+00,-4.698791186591670785e-05,1.086730742434839815e-04
2.815873015873016083e+00,-4.051007060727025103e-05,8.921234301019347632e-05
2.816666666666666874e+00,-2.856793635464468869e-05,5.605782201814717001e-05
2.817460317460317665e+00,-1.461771712877405694e-05,1.579899507959345192e-05
2.818253968253968456e+00,-1.926212510290626891e-06,-2.386941238419688406e-05
2.819047619047619246e+00,7.265321901434942377e-06,-5.596885537460679461e-05
2.819841269841270037e+00,1.220228282042439229e-05,-7.582432544520703599e-05
2.820634920634920828e+00,1.360970896269828423e-05,-8.202313295081166617e-05
2.821428571428571619e+00,1.325193854630377733e-05,-7.650668186417600495e-05
2.822222222222222410e+00,1.319302753285692551e-05,-6.378206861976517758e-05
2.823015873015873201e+00,1.496538398759730513e-05,-4.948329988738644895e-05
2.823809523809523991e+00,1.890003765156815814e-05,-3.869670249104408536e-05
2.824603174603174782e+00,2.385953183725976148e-05,-3.452740226337714589e-05
2.825396825396825573e+00,2.750992002380478054e-05,-3.730281946130449382e-05
2.826190476190476364e+00,2.708571007526826713e-05,-4.461539685027453777e-05
2.826984126984127155e+00,2.041027931946634596e-05,-5.216455643544097456e-05
2.827777777777777946e+00,6.818781797779066789e-06,-5.513671459831980318e-05
2.828571428571428736e+00,-1.235391585585833069e-05,-4.971641312214194038e-05
2.829365079365079527e+00,-3.391225762459066333e-05,-3.428636339506736406e-05
2.830158730158730318e+00,-5.354355529504663789e-05,-9.964976209718277882e-06
2.830952380952381109e+00,-6.694674853136634485e-05,1.966785131489571403e-05
2.831746031746031900e+00,-7.100920129561481755e-05,4.954814456820261101e-05
2.832539682539682691e+00,-6.467924212894018391e-05,7.447466479748554005e-05
2.833333333333333481e+00,-4.927315123094831755e-05,9.038692234321470131e-05
2.834126984126984272e+00,-2.813240527011701681e-05,9.519801917581569906e-05
2.834920634920635063e+00,-5.750896734840723058e-06,8.900244249374486473e-05
2.835714285714285854e+00,1.335624437136902879e-05,7.371094073490937529e-05
2.836507936507936645e+00,2.572306655885315304e-05,5.232863663350912535e-05
2.837301587301587436e+00,2.968137015843722281e-05,2.814308370628699671e-05
2.838095238095238226e+00,2.564653751630220795e-05,4.045367624845520705e-06
2.838888888888889017e+00,1.591942236213920818e-05,-1.788129225887802152e-05
2.839682539682539808e+00,4.063149350255154046e-06,-3.646212436407841336e-05
2.840476190476190599e+00,-6.029839613603000082e-06,-5.125358563142869871e-05
2.841269841269841390e+00,-1.119061993409741869e-05,-6.218405280294781834e-05
2.842063492063492181e+00,-9.872561198756558176e-06,-6.915293438070699435e-05
2.842857142857142971e+00,-2.605812577795082606e-06,-7.173764126691600036e-05
2.843650793650793762e+00,8.168864276120932005e-06,-6.912059222628153996e-05
2.844444444444444553e+00,1.885288007777280236e-05,-6.027911193243326913e-05
2.845238095238095344e+00,2.579108865459676012e-05,-4.440228197624968828e-05
2.846031746031746135e+00,2.637249855689573625e-05,-2.142195021612731994e-05
2.846825396825396925e+00,1.979444486044011181e-05,7.518790490845325256e-06
2.847619047619047716e+00,7.275089024970810736e-06,3.985908821341367777e-05
2.848412698412698507e+00,-8.321747317465865470e-06,7.182428807400285280e-05
2.849206349206349298e+00,-2.331288580476943603e-05,9.906012455107690746e-05
2.850000000000000089e+00,-3.422099547808901357e-05,1.175519898933205249e-04
2.850793650793650880e+00,-3.870659524031991609e-05,1.245572724709410395e-04
2.851587301587301670e+00,-3.615029917500203055e-05,1.192581666741093039e-04
2.852380952380952461e+00,-2.773264007361244063e-05,1.029428600709687136e-04
2.853174603174603252e+00,-1.600925216077774425e-05,7.868758327388473105e-05
2.853968253968254043e+00,-4.130698815131613402e-06,5.065329558817988661e-05
2.854761904761904834e+00,5.045734734940793386e-06,2.318165738455961000e-05
2.855555555555555625e+00,9.695502431452197639e-06,-1.079479333086054727e-07
2.856349206349206415e+00,9.435107224802176241e-06,-1.702089993302166755e-05
2.857142857142857206e+00,5.330213435851756792e-06,-2.711212739327289935e-05
2.857936507936507997e+00,-4.675795619788339782e-07,-3.153000299308670635e-05
2.858730158730158788e+00,-5.361463897106648273e-06,-3.241650787115879311e-05
2.859523809523809579e+00,-7.077592845474175813e-06,-3.206594398769415738e-05
2.860317460317460370e+00,-4.354712599233363996e-06,-3.214684342503582666e-05
2.861111111111111160e+00,2.661486501347686171e-06,-3.325866606882077058e-05
2.861904761904761951e+00,1.245520528498868300e-05,-3.493724511418743210e-05
2.862698412698412742e+00,2.259484294038963302e-05,-3.603827274733143691e-05
2.863492063492063533e+00,3.045027337303394860e-05,-3.531734281537532433e-05
2.864285714285714324e+00,3.394793709979837244e-05,-3.201060550416805922e-05
2.865079365079365115e+00,3.214920225355716391e-05,-2.625640927834630505e-05
2.865873015873015905e+00,2.550519637729344193e-05,-1.924367427336580498e-05
2.866666666666666696e+00,1.573074854249832400e-05,-1.302656260269476650e-05
2.867460317460317487e+00,5.326720705106113963e-06,-1.002362957506651863e-05
2.868253968253968278e+00,-3.137743331128141895e-06,-1.231860999715870755e-05
2.869047619047619069e+00,-7.793169656212918061e-06,-2.096401370095619314e-05
2.869841269841269860e+00,-8.052582804221353083e-06,-3.551142648493781214e-05
2.870634920634920650e+00,-4.806703982463331589e-06,-5.393063359087135809e-05
2.871428571428571441e+00,-1.498324568757822259e-07,-7.295660850475471984e-05
2.872222222222222232e+00,3.284033270030145489e-06,-8.877479869614876985e-05
2.873015873015873023e+00,3.164482731847193968e-06,-9.786813139768173544e-05
2.873809523809523814e+00,-1.774892364033009700e-06,-9.781803115295809297e-05
2.874603174603174605e+00,-1.128738402288250116e-05,-8.786854599029164030e-05
2.875396825396825395e+00,-2.360910884675095902e-05,-6.911654483640309210e-05
2.876190476190476186e+00,-3.590988101571614870e-05,-4.427367368960429352e-05
2.876984126984126977e+00,-4.507828901871002432e-05,-1.704716465940058374e-05
2.877777777777777768e+00,-4.860913206602898571e-05,8.711679382368039119e-06
2.878571428571428559e+00,-4.531475732219996690e-05,2.986959642681490649e-05
2.879365079365079350e+00,-3.563782892446909516e-05,4.465060503149182716e-05
2.880158730158730140e+00,-2.148630053386537262e-05,5.288364946864423797e-05
2.880952380952380931e+00,-5.672512214149628318e-06,5.581141906270205196e-05
2.881746031746031722e+00,8.851788896349876336e-06,5.554370311840518023e-05
2.882539682539682513e+00,1.973935042745670080e-05,5.433251700564012995e-05
2.883333333333333304e+00,2.577546426064261797e-05,5.388164341905178352e-05
2.884126984126984095e+00,2.706603929378976743e-05,5.488124500213448448e-05
2.884920634920634885e+00,2.485408929960115031e-05,5.689052148718969971e-05
2.885714285714285676e+00,2.103467502719779967e-05,5.859299075269330993e-05
2.886507936507936467e+00,1.753007456703840940e-05,5.834001838088399388e-05
2.887301587301587258e+00,1.573185500606704746e-05,5.480873457424689690e-05
2.888095238095238049e+00,1.617990743623537453e-05,4.756375487830356836e-05
2.888888888888888840e+00,1.854240604266979323e-05,3.734380749479811011e-05
2.889682539682539630e+00,2.184814437459269300e-05,2.597927630369025110e-05
2.890476190476190421e+00,2.486101406370329776e-05,1.595187515387044714e-05
2.891269841269841212e+00,2.648008696692513733e-05,9.705973175900299151e-06
2.892063492063492003e+00,2.606789820353481009e-05,8.897531678286749318e-06
2.892857142857142794e+00,2.363250202120975916e-05,1.380707504775382218e-05
2.893650793650793585e+00,1.981490230139227747e-05,2.312551771497195634e-05
2.894444444444444375e+00,1.567105308268482999e-05,3.422604074234582446e-05
2.895238095238095166e+00,1.229310309213480686e-05,4.387019184889198899e-05
2.896031746031745957e+00,1.038019218496685483e-05,4.912034333683329928e-05
2.896825396825396748e+00,9.915239753825724194e-06,4.813800563424732647e-05
2.897619047619047539e+00,1.009353388596904720e-05,4.060600704873321018e-05
2.898412698412698330e+00,9.568398769113552210e-06,2.769178397176655986e-05
2.899206349206349120e+00,6.956467554587231904e-06,1.164885268340710178e-05
2.899999999999999911e+00,1.433498871189016407e-06,-4.768511314837878556e-06
2.900793650793650702e+00,-6.798565642271823140e-06,-1.892326629546742239e-05
2.901587301587301493e+00,-1.635809369221946424e-05,-2.883819387572468941e-05
2.902380952380952284e+00,-2.492670270289336267e-05,-3.357832391175984366e-05
2.903174603174603075e+00,-2.985045234041783905e-05,-3.340262862287458271e-05
2.903968253968253865e+00,-2.895977692691203135e-05,-2.965123424609385707e-05
2.904761904761904656e+00,-2.139217319355250137e-05,-2.439591251326332861e-05
2.905555555555555447e+00,-8.152512506565145174e-06,-1.994032667828066427e-05
2.906349206349206238e+00,7.838562086303672863e-06,-1.828683640269774985e-05
2.907142857142857029e+00,2.233368644963467121e-05,-2.068514479761473769e-05
2.907936507936507819e+00,3.089230045679836561e-05,-2.735618998011508170e-05
2.908730158730158610e+00,3.023749232831250252e-05,-3.745193028299635896e-05
2.909523809523809401e+00,1.938599905956038647e-05,-4.926881521389301667e-05
2.910317460317460192e+00,1.454936856892179917e-07,-6.067690819535148336e-05
2.911111111111110983e+00,-2.321617383384708632e-05,-6.966192695215208980e-05
2.911904761904761774e+00,-4.504491794956538375e-05,-7.482487699400123767e-05
2.912698412698412564e+00,-5.980463070807252548e-05,-7.567723525538072853e-05
2.913492063492063355e+00,-6.358521048623448917e-05,-7.263037426624237476e-05
2.914285714285714146e+00,-5.518923528585038303e-05,-6.669019417494706330e-05
2.915079365079364937e+00,-3.648285081718933296e-05,-5.898105450484815470e-05
2.915873015873015728e+00,-1.190765021677201058e-05,-5.028398740428274686e-05
2.916666666666666519e+00,1.269593272777730741e-05,-4.076130546467804567e-05
2.917460317460317309e+00,3.160388769347196767e-05,-2.996801502811078676e-05
2.918253968253968100e+00,4.063733346170057148e-05,-1.714905098844203974e-05
2.919047619047618891e+00,3.813482328208558919e-05,-1.717032496374157288e-06
2.919841269841269682e+00,2.524718343206272227e-05,1.627307620630683046e-05
2.920634920634920473e+00,5.521854376912526496e-06,3.585369118000846785e-05
2.921428571428571264e+00,-1.608107801962271158e-05,5.521381694569819801e-05
2.922222222222222054e+00,-3.447054480047543072e-05,7.210643323580396560e-05
2.923015873015872845e+00,-4.566735353250131691e-05,8.444415963344217315e-05
2.923809523809523636e+00,-4.768431950318855405e-05,9.085017082160879690e-05
2.924603174603174427e+00,-4.082679634442101395e-05,9.096231573019429573e-05
2.925396825396825218e+00,-2.737940104050215113e-05,8.541339804655568094e-05
2.926190476190476009e+00,-1.083181261984215439e-05,7.555075458737578594e-05
2.926984126984126799e+00,5.091717727257429753e-06,6.303625725056199579e-05
2.927777777777777590e+00,1.732786598841787228e-05,4.946291716136652921e-05
2.928571428571428381e+00,2.409458545364862411e-05,3.607247211342901516e-05
2.929365079365079172e+00,2.513668547611453460e-05,2.360895362601794667e-05
2.930158730158729963e+00,2.159068532438055278e-05,1.231769239869241681e-05
2.930952380952380754e+00,1.553651233940134729e-05,2.084312127442642630e-06
2.931746031746031544e+00,9.359258612549679185e-06,-7.318718899093951163e-06
2.932539682539682335e+00,5.082433735830999367e-06,-1.595215554947656777e-05
2.933333333333333126e+00,3.843403357711568364e-06,-2.350315719697950199e-05
2.934126984126983917e+00,5.647950320063873229e-06,-2.924986471580968568e-05
2.934920634920634708e+00,9.464851293693345627e-06,-3.223808254338218256e-05
2.935714285714285499e+00,1.362315630449610652e-05,-3.162837292629505853e-05
2.936507936507936289e+00,1.638526939270235929e-05,-2.710336719450461457e-05
2.937301587301587080e+00,1.651777610445879051e-05,-1.919554826724990704e-05
2.938095238095238315e+00,1.368696195334118735e-05,-9.408259917174494250e-06
2.938888888888889106e+00,8.564074671283384196e-06,-4.927258551844935609e-08
2.939682539682539897e+00,2.614781721357500434e-06,6.231111356964549079e-06
2.940476190476190688e+00,-2.359439145782978865e-06,7.115607598457995728e-06
2.941269841269841478e+00,-4.786243470196908423e-06,1.340277736784784100e-06
2.942063492063492269e+00,-3.817465493580081573e-06,-1.075938218418252503e-05
2.942857142857143060e+00,4.015437823421262314e-07,-2.707675934996834789e-05
2.943650793650793851e+00,6.770896911775544384e-06,-4.404427131226806261e-05
2.944444444444444642e+00,1.356597668428026025e-05,-5.739596651388858482e-05
2.945238095238095433e+00,1.894989529665681594e-05,-6.321858038996205974e-05
2.946031746031746223e+00,2.150754043508034335e-05,-5.903260737867087028e-05
2.946825396825397014e+00,2.063829016057643146e-05,-4.461071696386927039e-05
2.947619047619047805e+00,1.669266175990469911e-05,-2.227523328767124728e-05
2.948412698412698596e+00,1.082129322670305243e-05,3.475367350990204961e-06
2.949206349206349387e+00,4.595230784105693122e-06,2.698334694782624825e-05
2.950000000000000178e+00,-4.763428300565967145e-07,4.285361675970192211e-05
2.950793650793650968e+00,-3.381870961459892495e-06,4.737719138465716992e-05
2.951587301587301759e+00,-3.871703301798381635e-06,3.952291583485524439e-05
2.952380952380952550e+00,-2.483939198087618090e-06,2.120398132259639122e-05
2.953174603174603341e+00,-3.365033262860524731e-07,-3.227574514108064363e-06
2.953968253968254132e+00,1.243343437478413462e-06,-2.807183361186532669e-05
2.954761904761904923e+00,1.133899440175349944e-06,-4.763831769620372912e-05
2.955555555555555713e+00,-1.253464316388071415e-06,-5.752815997178906604e-05
2.956349206349206504e+00,-5.835508617056119843e-06,-5.555316475524863683e-05
2.957142857142857295e+00,-1.193938925456885861e-05,-4.210519976065533462e-05
2.957936507936508086e+00,-1.855863537444059548e-05,-1.992330215422216010e-05
2.958730158730158877e+00,-2.467869773016757081e-05,6.650074088692379233e-06
2.959523809523809668e+00,-2.955257904926853686e-05,3.271300059525933922e-05
2.960317460317460458e+00,-3.283465843836483008e-05,5.387715405013071725e-05
2.961111111111111249e+00,-3.454162388499922487e-05,6.711580046043800151e-05
2.961904761904762040e+00,-3.488090504390699677e-05,7.121912438960942239e-05
2.962698412698412831e+00,-3.403724668524808815e-05,6.681070817922975496e-05
2.963492063492063622e+00,-3.201414153888421891e-05,5.598755239729625140e-05
2.964285714285714413e+00,-2.859047937094864940e-05,4.171062382292677886e-05
2.965079365079365203e+00,-2.339761263103376613e-05,2.709432274191379963e-05
2.965873015873015994e+00,-1.607856261803923141e-05,1.474103889682675883e-05
2.966666666666666785e+00,-6.478087739052544377e-06,6.253011913097422776e-06
2.967460317460317576e+00,5.177994482750449498e-06,2.021602840187708830e-06
2.968253968253968367e+00,1.815035361903722741e-05,1.333328333840062478e-06
2.969047619047619158e+00,3.114733985046803087e-05,2.749220323204809182e-06
2.969841269841269948e+00,4.243178823400154873e-05,4.636921235079724090e-06
2.970634920634920739e+00,5.009758751580449846e-05,5.693692200964792429e-06
2.971428571428571530e+00,5.248097363708074118e-05,5.306164467938427034e-06
2.972222222222222321e+00,4.860870769852184759e-05,3.644649802693851100e-06
2.973015873015873112e+00,3.854954644833430178e-05,1.473738474969363335e-06
2.973809523809523903e+00,2.354658303562701823e-05,-2.442727058537286583e-07
2.974603174603174693e+00,5.866403235033574106e-06,-8.030312433049674570e-07
2.975396825396825484e+00,-1.161694889214830405e-05,-9.139597451646735953e-08
2.976190476190476275e+00,-2.601050496402353739e-05,1.309967911539000644e-06
2.976984126984127066e+00,-3.501951798266367667e-05,2.308656437730945249e-06
2.977777777777777857e+00,-3.742868302115522023e-05,1.683412173917741410e-06
2.978571428571428648e+00,-3.331006783736517189e-05,-1.476301096007735644e-06
2.979365079365079438e+00,-2.390676167452536292e-05,-7.425095406939033352e-06
2.980158730158730229e+00,-1.125515598471900883e-05,-1.561014655331523056e-05
2.980952380952381020e+00,2.313958818943689680e-06,-2.474625310602690734e-05
2.981746031746031811e+00,1.465183248302156995e-05,-3.310030709422455967e-05
2.982539682539682602e+00,2.415117589119006064e-05,-3.893040023987644671e-05
2.983333333333333393e+00,2.994813445399661047e-05,-4.098206239232966028e-05
2.984126984126984183e+00,3.195948493433392341e-05,-3.890061613861456536e-05
2.984920634920634974e+00,3.076631018386535160e-05,-3.340639364479931815e-05
2.985714285714285765e+00,2.737577377622688399e-05,-2.613154064994903264e-05
2.986507936507936556e+00,2.291836824668913673e-05,-1.913376659215906646e-05
2.987301587301587347e+00,1.835736950807057534e-05,-1.423733733430660576e-05
2.988095238095238138e+00,1.428495940351891932e-05,-1.243204909677878067e-05
2.988888888888888928e+00,1.085027779944149871e-05,-1.353874183462283391e-05
2.989682539682539719e+00,7.819509874296689679e-06,-1.624309794170719417e-05
2.990476190476190510e+00,4.729068963749526251e-06,-1.847438619310524542e-05
2.991269841269841301e+00,1.077244542458419567e-06,-1.801577532590283094e-05
2.992063492063492092e+00,-3.493949192233851665e-06,-1.318629588632426027e-05
2.992857142857142883e+00,-9.062580718304165292e-06,-3.418550698336418895e-06
2.993650793650793673e+00,-1.536581863740221028e-05,1.043144668378420494e-05
2.994444444444444464e+00,-2.183764876796392298e-05,2.615486765258050392e-05
2.995238095238095255e+00,-2.774616386386456006e-05,4.065952975140980398e-05
2.996031746031746046e+00,-3.238964201812729850e-05,5.073764515110688644e-05
2.996825396825396837e+00,-3.527557722706806793e-05,5.392728229922918656e-05
2.997619047619047628e+00,-3.621019350216041503e-05,4.921741057567468870e-05
2.998412698412698418e+00,-3.527079817113917403e-05,3.738214564823797256e-05
2.999206349206349209e+00,-3.268948636835810250e-05,2.083611375764822765e-05
3.000000000000000000e+00,-2.870931804945375668e-05,3.042690946326979792e-06
3.000793650793650791e+00,-2.347088762501856477e-05,-1.236371245694155692e-05
3.001587301587301582e+00,-1.696340725606643887e-05,-2.249712501720452684e-05
3.002380952380952372e+00,-9.055564114108077394e-06,-2.592300569220882552e-05
3.003174603174603163e+00,3.841564042017399004e-07,-2.294798240644264952e-05
3.003968253968253954e+00,1.128092860606441057e-05,-1.542262876775317090e-05
3.004761904761904745e+00,2.310766371469713537e-05,-6.132577063861210446e-06
3.005555555555555536e+00,3.470571223710300921e-05,2.021570112278489873e-06
3.006349206349206327e+00,4.430139442967450411e-05,6.800728701955538493e-06
3.007142857142857117e+00,4.979814234780556700e-05,7.143148191299813517e-06
3.007936507936507908e+00,4.931622425400318467e-05,3.310717103017284781e-06
3.008730158730158699e+00,4.183449598420917447e-05,-3.319081251267036008e-06
3.009523809523809490e+00,2.771361776229429899e-05,-1.071085567072754681e-05
3.010317460317460281e+00,8.887034431645114544e-06,-1.673381109275248521e-05
3.011111111111111072e+00,-1.139744031675434515e-05,-1.968113228917330553e-05
3.011904761904761862e+00,-2.925412732297341090e-05,-1.862151415022549733e-05
3.012698412698412653e+00,-4.108276038131165739e-05,-1.350893120290322072e-05
3.013492063492063444e+00,-4.447978000647093789e-05,-5.052634193458457818e-06
3.014285714285714235e+00,-3.886723593750114337e-05,5.571817417338773084e-06
3.015079365079365026e+00,-2.564683737399965703e-05,1.704482193811772108e-05
3.015873015873015817e+00,-7.838969779015816217e-06,2.814720186310460447e-05
3.016666666666666607e+00,1.066921618665644409e-05,3.787645535757043133e-05
3.017460317460317398e+00,2.603881789841371372e-05,4.544683240629405851e-05
3.018253968253968189e+00,3.531545537794017979e-05,5.021763620556904525e-05
3.019047619047618980e+00,3.700089879919036607e-05,5.160100978676874931e-05
3.019841269841269771e+00,3.126276390469235060e-05,4.900009001382499188e-05
3.020634920634920562e+00,1.977476334045897874e-05,4.182552912158439058e-05
3.021428571428571352e+00,5.252418046544545965e-06,2.962455286819551956e-05
3.022222222222222143e+00,-9.199591757027839048e-06,1.232314857791459329e-05
3.023015873015872934e+00,-2.077883795315971731e-05,-9.469270699810740792e-06
3.023809523809523725e+00,-2.755556920749526172e-05,-3.419348193839841211e-05
3.024603174603174516e+00,-2.879136304997491233e-05,-5.923572848218994712e-05
3.025396825396825307e+00,-2.494748233775525035e-05,-8.108861942507239874e-05
3.026190476190476097e+00,-1.741562921443785510e-05,-9.582399960327869814e-05
3.026984126984126888e+00,-8.076153607955304742e-06,-9.984071771982461858e-05
3.027777777777777679e+00,1.181298560792675548e-06,-9.075542703019521585e-05
3.028571428571428470e+00,8.853083233147365571e-06,-6.822047103239611929e-05
3.029365079365079261e+00,1.405465002150576269e-05,-3.441285914643336691e-05
3.030158730158730052e+00,1.656799763327472647e-05,6.025107368361682823e-06
3.030952380952380842e+00,1.672806520934597260e-05,4.668949217817114318e-05
3.031746031746031633e+00,1.520405892182095132e-05,8.067274102421959569e-05
3.032539682539682424e+00,1.274640345688405791e-05,1.020938651729804038e-04
3.033333333333333215e+00,9.970559161089593501e-06,1.074931489996894539e-04
3.034126984126984006e+00,7.234511892616093102e-06,9.668845270544664981e-05
3.034920634920634797e+00,4.635721107925173378e-06,7.283642593204681288e-05
3.035714285714285587e+00,2.111366064364048357e-06,4.167040094511178670e-05
3.036507936507936378e+00,-4.110448889668051561e-07,1.010990894357235658e-05
3.037301587301587169e+00,-2.879207541113832373e-06,-1.540227227179495631e-05
3.038095238095237960e+00,-5.049399970155764265e-06,-3.040475159731188972e-05
3.038888888888888751e+00,-6.508770161075863570e-06,-3.336557439005743899e-05
3.039682539682539542e+00,-6.778812069437822706e-06,-2.582663372395920364e-05
3.040476190476190332e+00,-5.472751782789295091e-06,-1.173391656941702298e-05
3.041269841269841123e+00,-2.465865367292934294e-06,3.813622917031642840e-06
3.042063492063491914e+00,1.972106328545230254e-06,1.599964177695104776e-05
3.042857142857142705e+00,7.133180793882919031e-06,2.148534502365766972e-05
3.043650793650793496e+00,1.194936794049090605e-05,1.905277064325056532e-05
3.044444444444444287e+00,1.519256929169058397e-05,9.590716216001053589e-06
3.045238095238095077e+00,1.575535875994040643e-05,-4.472947289178523946e-06
3.046031746031745868e+00,1.293881855523232269e-05,-2.005012054934911776e-05
3.046825396825396659e+00,6.662576892814075732e-06,-3.429810859752148097e-05
3.047619047619047450e+00,-2.468907251693398459e-06,-4.530511390389721992e-05
3.048412698412698241e+00,-1.326709297479477411e-05,-5.239588536574837587e-05
3.049206349206349032e+00,-2.420086741133235569e-05,-5.601375630110376193e-05
3.049999999999999822e+00,-3.371239069436313113e-05,-5.726183432318876260e-05
3.050793650793650613e+00,-4.052075539989474095e-05,-5.729184379383176688e-05
3.051587301587301404e+00,-4.383397624758218254e-05,-5.677145840312223293e-05
3.052380952380952195e+00,-4.342440079941225063e-05,-5.561560139983915091e-05
3.053174603174602986e+00,-3.957190917790158214e-05,-5.305547820886638533e-05
3.053968253968253777e+00,-3.292066145557162040e-05,-4.799580315317856339e-05
3.054761904761904567e+00,-2.431025296594912789e-05,-3.952203377130060117e-05
3.055555555555555358e+00,-1.462842355358260428e-05,-2.738033206616568419e-05
3.056349206349206149e+00,-4.704396898091774097e-06,-1.226146668689683669e-05
3.057142857142856940e+00,4.759168981085037160e-06,4.224423575579803604e-06
3.057936507936507731e+00,1.322018076993807806e-05,1.989730730032020288e-05
3.058730158730158522e+00,2.029415142495259315e-05,3.258154450800931798e-05
3.059523809523809312e+00,2.571320906374305551e-05,4.071843764347329907e-05
3.060317460317460103e+00,2.926441915931804336e-05,4.380983345835494434e-05
3.061111111111110894e+00,3.074549697537696646e-05,4.254242359554121216e-05
3.061904761904761685e+00,2.997849427002438434e-05,3.855327805585540116e-05
3.062698412698412920e+00,2.689852280849846087e-05,3.391536107873293612e-05
3.063492063492063711e+00,2.169358511178403657e-05,3.050221597772622635e-05
3.064285714285714501e+00,1.493272961617174699e-05,2.941456479681936310e-05
3.065079365079365292e+00,7.605557353541394937e-06,3.062888649836187268e-05
3.065873015873016083e+00,1.017966428870947667e-06,3.297745053895121179e-05
3.066666666666666874e+00,-3.462026124916441746e-06,3.449501230350560701e-05
3.067460317460317665e+00,-4.758226658659254595e-06,3.306622826699814969e-05
3.068253968253968456e+00,-2.442330429930090934e-06,2.719522013716419372e-05
3.069047619047619246e+00,3.029554839263079060e-06,1.664137219283149535e-05
3.069841269841270037e+00,1.030456931522191518e-05,2.680924374913953777e-06
3.070634920634920828e+00,1.738597651625573958e-05,-1.211938053011494984e-05
3.071428571428571619e+00,2.210401918557233431e-05,-2.454909181417420195e-05
3.072222222222222410e+00,2.268146315376016811e-05,-3.161524294093792344e-05
3.073015873015873201e+00,1.823429788615034603e-05,-3.137215961352397375e-05
3.073809523809523991e+00,9.061820506946286421e-06,-2.351421409654306797e-05
3.074603174603174782e+00,-3.361765117656714525e-06,-9.595482016023682042e-06
3.075396825396825573e+00,-1.670072064364964596e-05,7.188557836082540848e-06
3.076190476190476364e+00,-2.830236620266605532e-05,2.264555931281610806e-05
3.076984126984127155e+00,-3.583506322871532544e-05,3.255285978492344917e-05
3.077777777777777946e+00,-3.784613654417520078e-05,3.374314550101995642e-05
3.078571428571428736e+00,-3.408062534236749381e-05,2.503684078735084653e-05
3.079365079365079527e+00,-2.547717854204346812e-05,7.748820014132122108e-06
3.080158730158730318e+00,-1.386558375034851890e-05,-1.441741293809220244e-05
3.080952380952381109e+00,-1.478182759292921908e-06,-3.612376393693303314e-05
3.081746031746031900e+00,9.578878320690338644e-06,-5.166035194410761579e-05
3.082539682539682691e+00,1.776611647682799512e-05,-5.642087851645799079e-05
3.083333333333333481e+00,2.237972743284717079e-05,-4.819528869966366449e-05
3.084126984126984272e+00,2.361335440001180818e-05,-2.788511394856043452e-05
3.084920634920635063e+00,2.241250237925168184e-05,6.208871921696162050e-07
3.085714285714285854e+00,2.015256249030116602e-05,3.142194372800949273e-05
3.086507936507936645e+00,1.821154383914791856e-05,5.815101956599846546e-05
3.087301587301587436e+00,1.754972228083838751e-05,7.560375955682730690e-05
3.088095238095238226e+00,1.842057345351598581e-05,8.094678742238454626e-05
3.088888888888889017e+00,2.030244993416793263e-05,7.418618267442872243e-05
3.089682539682539808e+00,2.207244483122314775e-05,5.785829005971191352e-05
3.090476190476190599e+00,2.237157031112921722e-05,3.614023096743003291e-05
3.091269841269841390e+00,2.005445030135316281e-05,1.368939449210792099e-05
3.092063492063492181e+00,1.458885630636503890e-05,-5.477702626428302294e-06
3.092857142857142971e+00,6.279906984722517973e-06,-1.881817754709484277e-05
3.093650793650793762e+00,-3.757324938393287612e-06,-2.564745090527178976e-05
3.094444444444444553e+00,-1.387656662516479852e-05,-2.702044276205798322e-05
3.095238095238095344e+00,-2.234823933882880558e-05,-2.516862326595852101e-05
3.096031746031746135e+00,-2.783349001002008099e-05,-2.266505474875051335e-05
3.096825396825396925e+00,-2.972943140876048050e-05,-2.157070550744272439e-05
3.097619047619047716e+00,-2.828068863876256406e-05,-2.282492763275095830e-05
3.098412698412698507e+00,-2.444324075006852479e-05,-2.605971485620335506e-05
3.099206349206349298e+00,-1.957145441021710232e-05,-2.986644233137769407e-05
3.100000000000000089e+00,-1.504052275835289511e-05,-3.238970115124560877e-05
3.100793650793650880e+00,-1.190854693780373760e-05,-3.202633262056983512e-05
3.101587301587301670e+00,-1.068627998935813211e-05,-2.799286020585984650e-05
3.102380952380952461e+00,-1.124729302073581113e-05,-2.058342331917856866e-05
3.103174603174603252e+00,-1.289164924660769243e-05,-1.105144291620035380e-05
3.103968253968254043e+00,-1.455863797965767413e-05,-1.179200586344382082e-06
3.104761904761904834e+00,-1.514635398639631581e-05,7.294434096053842503e-06
3.105555555555555625e+00,-1.384564399187991737e-05,1.317907271028874343e-05
3.106349206349206415e+00,-1.037476665794186404e-05,1.610465414935617371e-05
3.107142857142857206e+00,-5.037908483239717989e-06,1.649428567095072979e-05
3.107936507936507997e+00,1.394103863418656258e-06,1.528128997052204880e-05
3.108730158730158788e+00,7.916102728296509867e-06,1.348943762133094674e-05
3.109523809523809579e+00,1.354301559956745884e-05,1.182165629669028664e-05
3.110317460317460370e+00,1.751041478396592253e-05,1.038530745472974392e-05
3.111111111111111160e+00,1.938251096015458042e-05,8.635584894595443414e-06
3.111904761904761951e+00,1.906703904079610413e-05,5.556621869677659292e-06
3.112698412698412742e+00,1.676036607524756438e-05,3.478247175010704118e-08
3.113492063492063533e+00,1.285300917466091275e-05,-8.676723067221150354e-06
3.114285714285714324e+00,7.823657745853255759e-06,-2.053294749343239907e-05
3.115079365079365115e+00,2.147864297989612085e-06,-3.443667547949858882e-05
3.115873015873015905e+00,-3.754122234656594271e-06,-4.822796678040507817e-05
3.116666666666666696e+00,-9.515195087091566422e-06,-5.895610455046731247e-05
3.117460317460317487e+00,-1.477128532533217790e-05,-6.341250278729211522e-05
3.118253968253968278e+00,-1.909659682735064440e-05,-5.884827265428562674e-05
3.119047619047619069e+00,-2.197323347446556154e-05,-4.373968745676842074e-05
3.119841269841269860e+00,-2.283457549258392452e-05,-1.840968414884096204e-05
3.120634920634920650e+00,-2.118760638996093474e-05,1.470252700798102644e-05
3.121428571428571441e+00,-1.677917725751188423e-05,5.127012207568724136e-05
3.122222222222222232e+00,-9.746609408055571528e-06,8.580765795012289200e-05
3.123015873015873023e+00,-6.933041156514780197e-07,1.127285351259929650e-04
3.123809523809523814e+00,9.348760332508607561e-06,1.274432691250915487e-04
3.124603174603174605e+00,1.907367962791600929e-05,1.272151033556876635e-04
3.125396825396825395e+00,2.714007961286034210e-05,1.116025208759734226e-04
3.126190476190476186e+00,3.243244246196682912e-05,8.246403615846114199e-05
3.126984126984126977e+00,3.427777344286830858e-05,4.359944043115750780e-05
3.127777777777777768e+00,3.256542853535852259e-05,1.300481281204437593e-07
3.128571428571428559e+00,2.774682971230772816e-05,-4.228591664007483759e-05
3.129365079365079350e+00,2.072344358524865976e-05,-7.830240097658255482e-05
3.130158730158730140e+00,1.265628220465872025e-05,-1.036746521390550076e-04
3.130952380952380931e+00,4.742655034767343741e-06,-1.158508149852347993e-04
3.131746031746031722e+00,-1.992774208047436639e-06,-1.142597706402220380e-04
3.132539682539682513e+00,-6.850490881192123325e-06,-1.002621222628264193e-04
3.133333333333333304e+00,-9.521427094791691455e-06,-7.680762210010164202e-05
3.134126984126984095e+00,-1.005735509731678239e-05,-4.788702365535109926e-05
3.134920634920634885e+00,-8.770872636582337277e-06,-1.787774495174534924e-05
3.135714285714285676e+00,-6.113670806268063683e-06,9.119243286426700020e-06
3.136507936507936467e+00,-2.579704429229655537e-06,2.985767639775398495e-05
3.137301587301587258e+00,1.348396362490236427e-06,4.235727434592923555e-05
3.138095238095238049e+00,5.224269254496492347e-06,4.609405360359999584e-05
3.138888888888888840e+00,8.660286759562140876e-06,4.195788115107681841e-05
3.139682539682539630e+00,1.135691698500664894e-05,3.200706959434244204e-05
3.140476190476190421e+00,1.312376723831011865e-05,1.907485902156970124e-05
3.141269841269841212e+00,1.387283944648323708e-05,6.286985775760738790e-06
3.142063492063492003e+00,1.358495373889473197e-05,-3.454315700183964859e-06
3.142857142857142794e+00,1.227253408148914807e-05,-7.958855166421802436e-06
3.143650793650793585e+00,9.964520283252944414e-06,-6.132793407280639251e-06
3.144444444444444375e+00,6.722803673029470304e-06,1.819839511253332938e-06
3.145238095238095166e+00,2.679003803746578677e-06,1.442290147156524240e-05
3.146031746031745957e+00,-1.931882310559249771e-06,2.916790488896487283e-05
3.146825396825396748e+00,-6.764042755036450513e-06,4.290991448954805754e-05
3.147619047619047539e+00,-1.139222272272536768e-05,5.235212585938364796e-05
3.148412698412698330e+00,-1.537991033047266123e-05,5.456568235129999203e-05
3.149206349206349120e+00,-1.836873326799818478e-05,4.750128750567636878e-05
3.149999999999999911e+00,-2.016350008460449780e-05,3.043779392845862025e-05
3.150793650793650702e+00,-2.078355315737885048e-05,4.287921519810619724e-06
3.151587301587301493e+00,-2.045729698286746767e-05,-2.832965188755094121e-05
3.152380952380952284e+00,-1.955420180419809061e-05,-6.331731525597580163e-05
3.153174603174603075e+00,-1.847170807487142746e-05,-9.563450714347538023e-05
3.153968253968253865e+00,-1.751299201270371678e-05,-1.200897056124947658e-04
3.154761904761904656e+00,-1.679728532615272133e-05,-1.322783133530785614e-04
3.155555555555555447e+00,-1.623547275185821523e-05,-1.295030074568687779e-04
3.156349206349206238e+00,-1.558369554753877777e-05,-1.114701510369729421e-04
3.157142857142857029e+00,-1.456268671821280752e-05,-8.055165989610528379e-05
3.157936507936507819e+00,-1.300640681940424135e-05,-4.146936823670487385e-05
3.158730158730158610e+00,-1.098630289962152376e-05,-4.039671261608383092e-07
3.159523809523809401e+00,-8.854947115455367071e-06,3.628813804239408678e-05
3.160317460317460192e+00,-7.171789678578042947e-06,6.342609041221257339e-05
3.161111111111110983e+00,-6.513330068344576583e-06,7.806902638995692517e-05
3.161904761904761774e+00,-7.218095584200916688e-06,8.002809328780518812e-05
3.162698412698412564e+00,-9.154726443751162463e-06,7.171844548333459503e-05
3.163492063492063355e+00,-1.161112915809927797e-05,5.740837085678802450e-05
3.164285714285714146e+00,-1.337375138109746162e-05,4.206352150793665485e-05
3.165079365079364937e+00,-1.300392538892664589e-05,3.008698048431491671e-05
3.165873015873015728e+00,-9.246162042064359933e-06,2.429324965727562601e-05
3.166666666666666519e+00,-1.451346551804760251e-06,2.539420560153209444e-05
3.167460317460317309e+00,1.011401389603076643e-05,3.211544204791551109e-05
3.168253968253968100e+00,2.417185947081110638e-05,4.184822589624247690e-05
3.169047619047618891e+00,3.859272759709069677e-05,5.156023370211605054e-05
3.169841269841269682e+00,5.079025754398772298e-05,5.862659797463753633e-05
3.170634920634920473e+00,5.827073454211914903e-05,6.133682869668031167e-05
3.171428571428571264e+00,5.921589737644626503e-05,5.902101156783454990e-05
3.172222222222222054e+00,5.295720870619474995e-05,5.190007847891005109e-05
3.173015873015872845e+00,4.021184543633548708e-05,4.082071531131056938e-05
3.173809523809523636e+00,2.300014083042191930e-05,2.699780366991966153e-05
3.174603174603174427e+00,4.243040085831739244e-06,1.181760488999305846e-05
3.175396825396825218e+00,-1.287524315697046793e-05,-3.299312425000809317e-06
3.176190476190476009e+00,-2.562523314889427056e-05,-1.700134872168735896e-05
3.176984126984126799e+00,-3.234472767809737863e-05,-2.810315704889174588e-05
3.177777777777777590e+00,-3.277682715848192596e-05,-3.569333915402470080e-05
3.178571428571428381e+00,-2.803681284239886232e-05,-3.925057435903174231e-05
3.179365079365079172e+00,-2.022547679133342852e-05,-3.874538735756186814e-05
3.180158730158729963e+00,-1.181771610154822790e-05,-3.468989494196368873e-05
3.180952380952380754e+00,-5.012341400805389100e-06,-2.810013225187791143e-05
3.181746031746031544e+00,-1.216530827625675958e-06,-2.035878362621024745e-05
3.182539682539682335e+00,-7.795115398848683681e-07,-1.299947827121691017e-05
3.183333333333333126e+00,-3.015865052017332058e-06,-7.458300423001034830e-06
3.184126984126983917e+00,-6.488308092985429148e-06,-4.841802730218461141e-06
3.184920634920634708e+00,-9.463349373803253144e-06,-5.747403075953259831e-06
3.185714285714285499e+00,-1.041876210079792223e-05,-1.015614390268031850e-05
3.186507936507936289e+00,-8.474721655355206478e-06,-1.741047098167412650e-05
3.187301587301587080e+00,-3.642447939918703367e-06,-2.628799049019451322e-05
3.188095238095238315e+00,3.168583859823778965e-06,-3.517328925425417869e-05
3.188888888888889106e+00,1.038270078736416162e-05,-4.230835899499794267e-05
3.189682539682539897e+00,1.616815679961503840e-05,-4.608080376379967741e-05
3.190476190476190688e+00,1.892109595649211527e-05,-4.530526734676533881e-05
3.191269841269841478e+00,1.770071303578569903e-05,-3.946520670537420774e-05
3.192063492063492269e+00,1.250295674259249062e-05,-2.888833805795962175e-05
3.192857142857143060e+00,4.297615683050171008e-06,-1.481754219146586839e-05
3.193650793650793851e+00,-5.188060504366589313e-06,6.764061362502598207e-07
3.194444444444444642e+00,-1.388919144539694858e-05,1.498553941526748143e-05
3.195238095238095433e+00,-1.991656908368500211e-05,2.545568262333945886e-05
3.196031746031746223e+00,-2.201798442144787128e-05,2.999688730465919958e-05
3.196825396825397014e+00,-1.985015184144507200e-05,2.766074243622178405e-05
3.197619047619047805e+00,-1.398484474791003370e-05,1.900665892995223873e-05
3.198412698412698596e+00,-5.668904606334695784e-06,6.119260188569999821e-06
3.199206349206349387e+00,3.556278551195245287e-06,-7.770373696542557263e-06
3.200000000000000178e+00,1.223732216197513138e-05,-1.899923740760620707e-05
3.200793650793650968e+00,1.928408221021402256e-05,-2.436695029110468058e-05
3.201587301587301759e+00,2.409052862549979345e-05,-2.199066153634893228e-05
3.202380952380952550e+00,2.651032224729754321e-05,-1.188515301521714417e-05
3.203174603174603341e+00,2.672854614397234064e-05,3.919269191102691362e-06
3.203968253968254132e+00,2.508799007592036638e-05,2.179658174988033023e-05
3.204761904761904923e+00,2.193709561228566034e-05,3.740580487029568851e-05
3.205555555555555713e+00,1.755702314280621198e-05,4.681075130982437931e-05
3.206349206349206504e+00,1.218801247262067986e-05,4.753252287599712321e-05
3.207142857142857295e+00,6.124141740485209010e-06,3.923841148705798206e-05
3.207936507936508086e+00,-1.897351687788690282e-07,2.386911712969827244e-05
3.208730158730158877e+00,-6.124940898061678743e-06,5.157713603052478859e-06
3.209523809523809668e+00,-1.093296377885146280e-05,-1.234100366236005680e-05
3.210317460317460458e+00,-1.389262999821840189e-05,-2.444934629633950358e-05
3.211111111111111249e+00,-1.448860015682200122e-05,-2.845288413022656497e-05
3.211904761904762040e+00,-1.255830307275593691e-05,-2.375593672159645388e-05
3.212698412698412831e+00,-8.363077465283344714e-06,-1.192102591667451888e-05
3.213492063492063622e+00,-2.570807970434897974e-06,3.893000554194980986e-06
3.214285714285714413e+00,3.840059986324550195e-06,1.988710592730152143e-05
3.215079365079365203e+00,9.736587994986594700e-06,3.265275429230134717e-05
3.215873015873015994e+00,1.402349217545264145e-05,3.996330054751729685e-05
3.216666666666666785e+00,1.583938810191030488e-05,4.112729730889778468e-05
3.217460317460317576e+00,1.472071677080219949e-05,3.687478395347835959e-05
3.218253968253968367e+00,1.070086676426643552e-05,2.889806223904235700e-05
3.219047619047619158e+00,4.321729449332773040e-06,1.924518832697155716e-05
3.219841269841269948e+00,-3.452541425014930020e-06,9.759078056764689801e-06
3.220634920634920739e+00,-1.141426472946016292e-05,1.696845706320790851e-06
3.221428571428571530e+00,-1.835916266934441664e-05,-4.411498613673329334e-06
3.222222222222222321e+00,-2.335533156779111912e-05,-8.677840807021914077e-06
3.223015873015873112e+00,-2.596737969067877027e-05,-1.161615850009273536e-05
3.223809523809523903e+00,-2.636172467134244502e-05,-1.385317050668742244e-05
3.224603174603174693e+00,-2.524164589208820737e-05,-1.588647538620576604e-05
3.225396825396825484e+00,-2.361467947694827956e-05,-1.794295708443541533e-05
3.226190476190476275e+00,-2.245811097353948466e-05,-1.994276922738247450e-05
3.226984126984127066e+00,-2.238951673397456744e-05,-2.155406570394172172e-05
3.227777777777777857e+00,-2.345005299418753025e-05,-2.232514268258901439e-05
3.228571428571428648e+00,-2.506990479785164909e-05,-2.187336227851573151e-05
3.229365079365079438e+00,-2.622450289206303633e-05,-2.008198704414970140e-05
3.230158730158730229e+00,-2.573034435006556808e-05,-1.723069841929647289e-05
3.230952380952381020e+00,-2.259097306884933214e-05,-1.399463274260483425e-05
3.231746031746031811e+00,-1.629574150863603355e-05,-1.129423294578641141e-05
3.232539682539682602e+00,-6.993055220172437900e-06,-1.003847241770376315e-05
3.233333333333333393e+00,4.503641008801960693e-06,-1.084536574828046977e-05
3.234126984126984183e+00,1.687499276421391628e-05,-1.382860625705483117e-05
3.234920634920634974e+00,2.857568906523465046e-05,-1.851119698647350897e-05
