Timestamp,Flexor carpi radialis,Extensor digitorum
2.000000000000000000e+00,1.263105053162891396e-04,1.471620161977216695e-05
2.000793650793650791e+00,1.213284482956543159e-04,4.627164842386441164e-05
2.001587301587301582e+00,8.490839920565072167e-05,6.276274865658295515e-05
2.002380952380952372e+00,1.955646263807744176e-05,5.739443356109650906e-05
2.003174603174603163e+00,-6.492622401980018205e-05,2.910146242268683045e-05
2.003968253968253954e+00,-1.536925439353777284e-04,-1.698792887518398598e-05
2.004761904761904745e+00,-2.305083068064466315e-04,-7.082941210463810267e-05
2.005555555555555536e+00,-2.817579870044790622e-04,-1.201372755643935068e-04
2.006349206349206327e+00,-2.996221129933754378e-04,-1.536603284298676552e-04
2.007142857142857117e+00,-2.835390537895316095e-04,-1.640640858854930330e-04
2.007936507936507908e+00,-2.396479745155870192e-04,-1.495875194647378428e-04
2.008730158730158699e+00,-1.785572580680755948e-04,-1.140994007453199644e-04
2.009523809523809490e+00,-1.122479819677355976e-04,-6.570904328858265622e-05
2.010317460317460281e+00,-5.106824901733692207e-05,-1.447022581971522247e-05
2.011111111111111072e+00,-1.614693797340566773e-06,3.013406493527016666e-05
2.011904761904761862e+00,3.405571572845854741e-05,6.129170992404880741e-05
2.012698412698412653e+00,5.785562631775524183e-05,7.609311050708884958e-05
2.013492063492063444e+00,7.407943288131847107e-05,7.568816317354692404e-05
2.014285714285714235e+00,8.737924373722536745e-05,6.443100577555900673e-05
2.015079365079365026e+00,1.009493173751818928e-04,4.832167425348945361e-05
2.015873015873015817e+00,1.154401265882915587e-04,3.322077475760560174e-05
2.016666666666666607e+00,1.288603127803450638e-04,2.334278662678448710e-05
2.017460317460317398e+00,1.374133934044695848e-04,2.040945140604253727e-05
2.018253968253968189e+00,1.369518001894628513e-04,2.361715546002373430e-05
2.019047619047618980e+00,1.245756363892703612e-04,3.032994732479703774e-05
2.019841269841269771e+00,9.987946253606782047e-05,3.722512721794657577e-05
2.020634920634920562e+00,6.545699000091360930e-05,4.152229994476582230e-05
2.021428571428571352e+00,2.649215403770326715e-05,4.192498004744968918e-05
2.022222222222222143e+00,-1.045607027646407908e-05,3.899374454665871243e-05
2.023015873015872934e+00,-3.911296178663591658e-05,3.483694029611793556e-05
2.023809523809523725e+00,-5.508606206204999864e-05,3.221321939735427250e-05
2.024603174603174516e+00,-5.692035437193541182e-05,3.333393715925671969e-05
2.025396825396825307e+00,-4.631818592195695398e-05,3.876816425932878699e-05
2.026190476190476097e+00,-2.751410508869351623e-05,4.684019985834789439e-05
2.026984126984126888e+00,-6.052764247242322889e-06,5.376888640928847616e-05
2.027777777777777679e+00,1.264589994965682243e-05,5.458188631985101994e-05
2.028571428571428470e+00,2.455473485168434760e-05,4.461245155489545062e-05
2.029365079365079261e+00,2.785742318887641581e-05,2.119683957549865015e-05
2.030158730158730052e+00,2.316334423584351973e-05,-1.492943836584208870e-05
2.030952380952380842e+00,1.310367333952124836e-05,-5.904587029683011406e-05
2.031746031746031633e+00,1.431165854063813734e-06,-1.030284490850476086e-04
2.032539682539682424e+00,-8.133340704136744122e-06,-1.371292736378918267e-04
2.033333333333333215e+00,-1.299577774548433280e-05,-1.525570837738073320e-04
2.034126984126984006e+00,-1.242397214330770529e-05,-1.441014328515617443e-04
2.034920634920634797e+00,-7.713283358639600823e-06,-1.119444450428147726e-04
2.035714285714285587e+00,-1.721175171637061490e-06,-6.204206088515078926e-05
2.036507936507936378e+00,2.118348874949323351e-06,-4.916867855448050210e-06
2.037301587301587169e+00,1.028600217384095169e-06,4.682288360539279285e-05
2.038095238095237960e+00,-6.006236484018762606e-06,8.158790914193812739e-05
2.038888888888888751e+00,-1.765270667724384889e-05,9.173108330672196027e-05
2.039682539682539542e+00,-3.041496375671225348e-05,7.551358583213802920e-05
2.040476190476190332e+00,-3.961589307144296223e-05,3.755848451885414422e-05
2.041269841269841123e+00,-4.090733549727240578e-05,-1.237305961859717010e-05
2.042063492063491914e+00,-3.182702107829669274e-05,-6.196953329686970702e-05
2.042857142857142705e+00,-1.286663214336593602e-05,-9.958536108326867533e-05
2.043650793650793496e+00,1.234088833521572787e-05,-1.171465709459960675e-04
2.044444444444444287e+00,3.782189737469985371e-05,-1.119218034065633510e-04
2.045238095238095077e+00,5.684574517140838579e-05,-8.673065459252676725e-05
2.046031746031745868e+00,6.385149977831561122e-05,-4.866672022991801416e-05
2.046825396825396659e+00,5.616913323961158805e-05,-6.828450670972834200e-06
2.047619047619047450e+00,3.501677761665189520e-05,3.023794695936388491e-05
2.048412698412698241e+00,5.424653133120017001e-06,5.668000833450796249e-05
2.049206349206349032e+00,-2.497555601133760530e-05,7.052622235147148588e-05
2.049999999999999822e+00,-4.801442455381232428e-05,7.365950758065752547e-05
2.050793650793650613e+00,-5.733023798561537413e-05,7.066057776729428488e-05
2.051587301587301404e+00,-5.029860049793426067e-05,6.693241227231040897e-05
2.052380952380952195e+00,-2.894758171777218753e-05,6.672323053995860161e-05
2.053174603174602986e+00,4.417757015298403890e-07,7.166876421293233510e-05
2.053968253968253777e+00,2.895799216867286344e-05,8.027574717236220226e-05
2.054761904761904567e+00,4.746109656293706782e-05,8.845643613879973911e-05
2.055555555555555358e+00,4.910723788606194618e-05,9.091806578121788796e-05
2.056349206349206149e+00,3.130732725656830390e-05,8.299070264608400646e-05
2.057142857142856940e+00,-3.421516472529376761e-06,6.236603475456445279e-05
2.057936507936507731e+00,-4.796055287396469683e-05,3.022460085101675523e-05
2.058730158730158522e+00,-9.232918042543289806e-05,-8.636635191489543429e-06
2.059523809523809312e+00,-1.261888014569620539e-04,-4.680031757205021256e-05
2.060317460317460103e+00,-1.414168826956729050e-04,-7.612742887530558791e-05
2.061111111111110894e+00,-1.340472811001488672e-04,-9.002298510441964082e-05
2.061904761904761685e+00,-1.050893911686066710e-04,-8.538371607866117579e-05
2.062698412698412920e+00,-6.009422383987004460e-05,-6.363434423877741073e-05
2.063492063492063711e+00,-7.683189715656096942e-06,-3.054343752482018861e-05
2.064285714285714501e+00,4.251779205557085640e-05,5.143033845765160001e-06
2.065079365079365292e+00,8.201511779341959707e-05,3.391023390558959151e-05
2.065873015873016083e+00,1.051659906692995784e-04,4.797191977862132759e-05
2.066666666666666874e+00,1.101133552755882938e-04,4.340217775300032969e-05
2.067460317460317665e+00,9.877231023258192886e-05,2.129363715297016594e-05
2.068253968253968456e+00,7.594637616592689289e-05,-1.244061437736115781e-05
2.069047619047619246e+00,4.787206244570888728e-05,-4.862583074036269323e-05
2.069841269841270037e+00,2.061520499785429860e-05,-7.732353494649651503e-05
2.070634920634920828e+00,-1.263608122062177394e-06,-9.053553193169809729e-05
2.071428571428571619e+00,-1.547727839701902808e-05,-8.432336047009561194e-05
2.072222222222222410e+00,-2.209669707523511623e-05,-5.977214994397652255e-05
2.073015873015873201e+00,-2.301577803595221918e-05,-2.260919250469087163e-05
2.073809523809523991e+00,-2.100714374321990667e-05,1.833780155199320650e-05
2.074603174603174782e+00,-1.867011216865662869e-05,5.339795060659296451e-05
2.075396825396825573e+00,-1.759173053554988444e-05,7.445856979003267226e-05
2.076190476190476364e+00,-1.796735872402512035e-05,7.692797016373994308e-05
2.076984126984127155e+00,-1.876451622264734351e-05,6.077657982681629626e-05
2.077777777777777946e+00,-1.831663188489218757e-05,3.039093943005846216e-05
2.078571428571428736e+00,-1.508582570248910298e-05,-6.709859878317872254e-06
2.079365079365079527e+00,-8.300014770200338696e-06,-4.191473058466874981e-05
2.080158730158730318e+00,1.743684286803488986e-06,-6.771543032961377861e-05
2.080952380952381109e+00,1.376321875697459490e-05,-7.943710754374806856e-05
2.081746031746031900e+00,2.587582395454669025e-05,-7.607648954887038964e-05
2.082539682539682691e+00,3.612035702976102743e-05,-6.011976455045379481e-05
2.083333333333333481e+00,4.295129101029930937e-05,-3.650111466270930820e-05
2.084126984126984272e+00,4.557325612155552902e-05,-1.106437013392924795e-05
2.084920634920635063e+00,4.403956499348574258e-05,1.102112619945597402e-05
2.085714285714285854e+00,3.910872022929726881e-05,2.646639867734489461e-05
2.086507936507936645e+00,3.193063830338092283e-05,3.439989183955053379e-05
2.087301587301587436e+00,2.369039969923106813e-05,3.615414931995063002e-05
2.088095238095238226e+00,1.533893982241000083e-05,3.444672539016156140e-05
2.088888888888889017e+00,7.481590064486217275e-06,3.226912960530668316e-05
2.089682539682539808e+00,4.118864469742649090e-07,3.185156342115482775e-05
2.090476190476190599e+00,-5.778467107342809515e-06,3.400262106946177993e-05
2.091269841269841390e+00,-1.108555996072622807e-05,3.797804606093082083e-05
2.092063492063492181e+00,-1.551341372885345200e-05,4.187016700543991064e-05
2.092857142857142971e+00,-1.903365500394839729e-05,4.336615994517544235e-05
2.093650793650793762e+00,-2.157990986915177386e-05,4.061954172196180219e-05
2.094444444444444553e+00,-2.307586370076506095e-05,3.294217706005465109e-05
2.095238095238095344e+00,-2.349204155877818262e-05,2.108093203756073169e-05
2.096031746031746135e+00,-2.290798196737018580e-05,6.993114418605681506e-06
2.096825396825396925e+00,-2.153913948033036341e-05,-6.771286413312098207e-06
2.097619047619047716e+00,-1.969298620177074025e-05,-1.782248776421457051e-05
2.098412698412698507e+00,-1.765309231325888628e-05,-2.453363042468530839e-05
2.099206349206349298e+00,-1.553758129998627599e-05,-2.631321548822418863e-05
2.100000000000000089e+00,-1.320830760574243516e-05,-2.353042901932344416e-05
2.100793650793650880e+00,-1.029427420710319062e-05,-1.720184752319083897e-05
2.101587301587301670e+00,-6.340528896905320148e-06,-8.593179802999346783e-06
2.102380952380952461e+00,-1.033494101289586190e-06,1.125859265994647105e-06
2.103174603174603252e+00,5.582008128971679701e-06,1.107779196489276184e-05
2.103968253968254043e+00,1.297865963000179764e-05,2.068303382694434994e-05
2.104761904761904834e+00,2.017127011123657715e-05,2.949774787018397289e-05
2.105555555555555625e+00,2.590048589869001328e-05,3.697387329400543548e-05
2.106349206349206415e+00,2.893652023741392413e-05,4.227413933102751873e-05
2.107142857142857206e+00,2.842421677760563944e-05,4.425701631125747296e-05
2.107936507936507997e+00,2.417325385251341903e-05,4.166144565801126724e-05
2.108730158730158788e+00,1.680788427287990900e-05,3.342122327816816847e-05
2.109523809523809579e+00,7.725662725791787540e-06,1.899720555949575349e-05
2.110317460317460370e+00,-1.138360794215184544e-06,-1.350911203202938441e-06
2.111111111111111160e+00,-7.701074081363242613e-06,-2.637779188441461065e-05
2.111904761904761951e+00,-1.019968731727008788e-05,-5.376507402678839289e-05
2.112698412698412742e+00,-7.642082252278626042e-06,-8.019105175752956898e-05
2.113492063492063533e+00,-1.323655744653352301e-07,-1.016607657017587653e-04
2.114285714285714324e+00,1.102545180275993341e-05,-1.141737812120815620e-04
2.115079365079365115e+00,2.350468573753587101e-05,-1.146710540954362742e-04
2.115873015873015905e+00,3.440669792100622737e-05,-1.020071591245328872e-04
2.116666666666666696e+00,4.090015692724519009e-05,-7.757106606362319291e-05
2.117460317460317487e+00,4.090522508427267437e-05,-4.524338744943039528e-05
2.118253968253968278e+00,3.366226343322007970e-05,-1.062035923142811757e-05
2.119047619047619069e+00,2.004922715423995455e-05,2.028331803268363566e-05
2.119841269841269860e+00,2.559282688985830825e-06,4.246721468740685467e-05
2.120634920634920650e+00,-1.509459643111645829e-05,5.311318919715509221e-05
2.121428571428571441e+00,-2.871715909655266354e-05,5.218817931973180214e-05
2.122222222222222232e+00,-3.460049614634775483e-05,4.233177695992787812e-05
2.123015873015873023e+00,-3.053137751912914701e-05,2.804763805857732196e-05
2.123809523809523814e+00,-1.658479286573640268e-05,1.439386712848596284e-05
2.124603174603174605e+00,4.541261445079126267e-06,5.521195326188511371e-06
2.125396825396825395e+00,2.781182593024564558e-05,3.480333810721419219e-06
2.126190476190476186e+00,4.678468253402080893e-05,7.660180733800964770e-06
2.126984126984126977e+00,5.504561784385101053e-05,1.503316905613355835e-05
2.127777777777777768e+00,4.785872214111824694e-05,2.114282255635932103e-05
2.128571428571428559e+00,2.362670086292514743e-05,2.155554182749950287e-05
2.129365079365079350e+00,-1.527637824765014135e-05,1.336660404137689303e-05
2.130158730158730140e+00,-6.263799798555377872e-05,-3.677639290262424532e-06
2.130952380952380931e+00,-1.095988072527289672e-04,-2.679278120552626988e-05
2.131746031746031722e+00,-1.466652050289116334e-04,-5.066261250011492131e-05
2.132539682539682513e+00,-1.660104276842767109e-04,-6.873915301827118393e-05
2.133333333333333304e+00,-1.634015497095004971e-04,-7.499144798785777554e-05
2.134126984126984095e+00,-1.391937405947540278e-04,-6.560961826374398138e-05
2.134920634920634885e+00,-9.813616505961156485e-05,-4.017638376984824621e-05
2.135714285714285676e+00,-4.810574482095989374e-05,-1.974728659963163078e-06
2.136507936507936467e+00,1.824541150566058401e-06,4.265428157350480284e-05
2.137301587301587258e+00,4.344913158054064951e-05,8.573399972141916060e-05
2.138095238095238049e+00,7.112082255095762749e-05,1.194817458972245906e-04
2.138888888888888840e+00,8.270287881104366632e-05,1.380660739575800800e-04
2.139682539682539630e+00,7.961960291048204874e-05,1.388356354073927662e-04
2.140476190476190421e+00,6.607315450663842939e-05,1.227166984438108797e-04
2.141269841269841212e+00,4.770086756294962218e-05,9.371886223446598146e-05
2.142063492063492003e+00,3.007147858704871491e-05,5.774785055543384533e-05
2.142857142857142794e+00,1.742129066806224929e-05,2.111526615069679165e-05
2.143650793650793585e+00,1.191556813703684830e-05,-1.081435314515889145e-05
2.144444444444444375e+00,1.353469250166218918e-05,-3.450925474043171556e-05
2.145238095238095166e+00,2.050017401959521908e-05,-4.856861636071433883e-05
2.146031746031745957e+00,3.003177002714938864e-05,-5.350780446476445111e-05
2.146825396825396748e+00,3.918628040984394544e-05,-5.120688074857396408e-05
2.147619047619047539e+00,4.555960392701968286e-05,-4.421152594224124304e-05
2.148412698412698330e+00,4.771073498450167504e-05,-3.504945746189296095e-05
2.149206349206349120e+00,4.526360791251416137e-05,-2.569204624065695775e-05
2.149999999999999911e+00,3.873530206979442430e-05,-1.725388147109214142e-05
2.150793650793650702e+00,2.920368372244680103e-05,-9.978194386970400958e-06
2.151587301587301493e+00,1.794756771819324285e-05,-3.500159982639114163e-06
2.152380952380952284e+00,6.166356240275268371e-06,2.685875169363191646e-06
2.153174603174603075e+00,-5.169564250087846781e-06,8.693393987404800390e-06
2.153968253968253865e+00,-1.534404245652670184e-05,1.382718235731710435e-05
2.154761904761904656e+00,-2.383900604122652641e-05,1.647421443841397786e-05
2.155555555555555447e+00,-3.025035052273362791e-05,1.444634362681393401e-05
2.156349206349206238e+00,-3.422433541476968549e-05,5.790615419619084747e-06
2.157142857142857029e+00,-3.545270197632270409e-05,-1.012342529612861750e-05
2.157936507936507819e+00,-3.374620038114957177e-05,-3.163780146467323528e-05
2.158730158730158610e+00,-2.917237960979066844e-05,-5.444360619341747786e-05
2.159523809523809401e+00,-2.220160730931363375e-05,-7.217342875123925275e-05
2.160317460317460192e+00,-1.377888954628974318e-05,-7.797088213806187089e-05
2.161111111111110983e+00,-5.250007447436244986e-06,-6.665595551964678190e-05
2.161904761904761774e+00,1.879520257702510773e-06,-3.680163233749748366e-05
2.162698412698412564e+00,6.306746105243778586e-06,8.027352352873443812e-06
2.163492063492063355e+00,7.315731988296872020e-06,5.941269809059577335e-05
2.164285714285714146e+00,5.066468537819790896e-06,1.057269102537655481e-04
2.165079365079364937e+00,6.862421404661264295e-07,1.349389244339797790e-04
2.165873015873015728e+00,-3.899452633289936959e-06,1.378384175847952920e-04
2.166666666666666519e+00,-6.401184870278928135e-06,1.107376336928955957e-04
2.167460317460317309e+00,-4.793456289297013878e-06,5.679464610132168727e-05
2.168253968253968100e+00,2.016130846333352715e-06,-1.452140389154702513e-05
2.169047619047618891e+00,1.368107437305248584e-05,-8.972917924090073464e-05
2.169841269841269682e+00,2.826515306717210452e-05,-1.547177637208268304e-04
2.170634920634920473e+00,4.254505664876923271e-05,-1.981614815726848351e-04
2.171428571428571264e+00,5.272018581669129481e-05,-2.139390530466619652e-04
2.172222222222222054e+00,5.535006774943940374e-05,-2.019456636392693032e-04
2.173015873015872845e+00,4.827378432255086604e-05,-1.672778323156526694e-04
2.173809523809523636e+00,3.127810936678524178e-05,-1.182590288625082702e-04
2.174603174603174427e+00,6.345584723891661024e-06,-6.401013531029980832e-05
2.175396825396825218e+00,-2.259673620686368926e-05,-1.226373719629629280e-05
2.176190476190476009e+00,-5.040397974616545490e-05,3.204871870105363525e-05
2.176984126984126799e+00,-7.178220073767721120e-05,6.717286192315332000e-05
2.177777777777777590e+00,-8.246764385752039484e-05,9.391039966210111653e-05
2.178571428571428381e+00,-8.022787603948740114e-05,1.143223441016968781e-04
2.179365079365079172e+00,-6.541406575585331177e-05,1.302602389231853977e-04
2.180158730158729963e+00,-4.090329468643191118e-05,1.422466340142706424e-04
2.180952380952380754e+00,-1.144332413893721346e-05,1.490679371310922238e-04
2.181746031746031544e+00,1.741989612595300449e-05,1.481782808714567654e-04
2.182539682539682335e+00,4.055429129801668508e-05,1.367492272305168206e-04
2.183333333333333126e+00,5.430532016316793226e-05,1.130116024604595508e-04
2.184126984126983917e+00,5.717719065502124869e-05,7.744729195590333373e-05
2.184920634920634708e+00,4.999164815048194442e-05,3.341088489788025221e-05
2.185714285714285499e+00,3.550702041315994959e-05,-1.309668881450458492e-05
2.186507936507936289e+00,1.761534938355877305e-05,-5.453677568869060808e-05
2.187301587301587080e+00,3.480190274562993814e-07,-8.357735861635470038e-05
2.188095238095238315e+00,-1.303365609515615382e-05,-9.499951801387271236e-05
2.188888888888889106e+00,-2.063212705529436744e-05,-8.720337405847496169e-05
2.189682539682539897e+00,-2.208153896491267518e-05,-6.284350830200880877e-05
2.190476190476190688e+00,-1.832097855247279402e-05,-2.836995973776151503e-05
2.191269841269841478e+00,-1.110765303177875527e-05,7.441527925320810554e-06
2.192063492063492269e+00,-2.444015421663432789e-06,3.561608288274161014e-05
2.192857142857143060e+00,5.922736517369354930e-06,4.923380257031846586e-05
2.193650793650793851e+00,1.281861466173559062e-05,4.522590787264599293e-05
2.194444444444444642e+00,1.773192388795044757e-05,2.520890843053880066e-05
2.195238095238095433e+00,2.069458679506878552e-05,-4.921907060801864103e-06
2.196031746031746223e+00,2.203371503606232253e-05,-3.658355089763759213e-05
2.196825396825397014e+00,2.210113822341455348e-05,-6.086771578343505833e-05
2.197619047619047805e+00,2.107988081172624555e-05,-7.100204813608773549e-05
2.198412698412698596e+00,1.892325787091855938e-05,-6.418627576466110461e-05
2.199206349206349387e+00,1.542525706723069762e-05,-4.227304916370529947e-05
2.200000000000000178e+00,1.037665425741889727e-05,-1.113079544606514955e-05
2.200793650793650968e+00,3.744036448724655043e-06,2.107958198997192408e-05
2.201587301587301759e+00,-4.186644217120997450e-06,4.619196089753205357e-05
2.202380952380952550e+00,-1.274782278169739325e-05,5.823899142503711931e-05
2.203174603174603341e+00,-2.094046128775569352e-05,5.497143013522753842e-05
2.203968253968254132e+00,-2.760517398031852213e-05,3.828962170690970734e-05
2.204761904761904923e+00,-3.168713285612257075e-05,1.349514807999254495e-05
2.205555555555555713e+00,-3.252602624606701945e-05,-1.238062574145659712e-05
2.206349206349206504e+00,-3.007687001648009451e-05,-3.263802866184893750e-05
2.207142857142857295e+00,-2.497864745323439444e-05,-4.272797676506248155e-05
2.207936507936508086e+00,-1.843591438083245977e-05,-4.131350697241833981e-05
2.208730158730158877e+00,-1.194096693383968908e-05,-3.033893164595032404e-05
2.209523809523809668e+00,-6.912655449271425325e-06,-1.418836673610498212e-05
2.210317460317460458e+00,-4.347849125708326552e-06,1.749934021671344789e-06
2.211111111111111249e+00,-4.575425549843720721e-06,1.269148005852934036e-05
2.211904761904762040e+00,-7.179060306729300677e-06,1.581546920583580936e-05
2.212698412698412831e+00,-1.111794065261827769e-05,1.103260369213231194e-05
2.213492063492063622e+00,-1.502425105191389591e-05,9.588354859958315512e-07
2.214285714285714413e+00,-1.760043549252670507e-05,-9.904232875262620773e-06
2.215079365079365203e+00,-1.799784583358244230e-05,-1.655802705259376331e-05
2.215873015873015994e+00,-1.605373382689901686e-05,-1.506893247731625565e-05
2.216666666666666785e+00,-1.230346773415509690e-05,-3.854691812966177519e-06
2.217460317460317576e+00,-7.756503095515867717e-06,1.566905547231106934e-05
2.218253968253968367e+00,-3.502721918111059609e-06,3.926398518625364901e-05
2.219047619047619158e+00,-2.753695907249498290e-07,6.083513826195511041e-05
2.219841269841269948e+00,1.879129998882736351e-06,7.396538676992126665e-05
2.220634920634920739e+00,3.694770424943442707e-06,7.364888448460367844e-05
2.221428571428571530e+00,6.479626676921547673e-06,5.777159753460117810e-05
2.222222222222222321e+00,1.164613463064425392e-05,2.790496531443610150e-05
2.223015873015873112e+00,2.011709107802194587e-05,-1.086968604609232307e-05
2.223809523809523903e+00,3.180988987011426140e-05,-5.111303565542785952e-05
2.224603174603174693e+00,4.539397942671983226e-05,-8.484539964814373936e-05
2.225396825396825484e+00,5.843593564637344050e-05,-1.054953388042942635e-04
2.226190476190476275e+00,6.792311115076557319e-05,-1.094231415172664375e-04
2.226984126984127066e+00,7.103645595696427147e-05,-9.663919187959806067e-05
2.227777777777777857e+00,6.596372351489180241e-05,-7.059887830369219010e-05
2.228571428571428648e+00,5.252227843602785845e-05,-3.719094095166010290e-05
2.229365079365079438e+00,3.239602985845220381e-05,-3.205571888896582624e-06
2.230158730158730229e+00,8.879439642746547390e-06,2.532595853791281957e-05
2.230952380952381020e+00,-1.384603789383705765e-05,4.449784149045697744e-05
2.231746031746031811e+00,-3.172936654404025144e-05,5.324872313251925347e-05
2.232539682539682602e+00,-4.187376437642277701e-05,5.325278774125611372e-05
2.233333333333333393e+00,-4.325386587121460654e-05,4.804480458560458537e-05
2.234126984126984183e+00,-3.690011711545791159e-05,4.167458117750967638e-05
2.234920634920634974e+00,-2.549859230453196480e-05,3.732349796555881082e-05
2.235714285714285765e+00,-1.254753944304982562e-05,3.630932633614019966e-05
2.236507936507936556e+00,-1.348633649626032180e-06,3.776996303054695373e-05
2.237301587301587347e+00,5.852243275701970105e-06,3.910280545970231888e-05
2.238095238095238138e+00,8.323551074488282726e-06,3.700185054909412805e-05
2.238888888888888928e+00,6.792119944136174182e-06,2.874238582972337506e-05
2.239682539682539719e+00,2.929481116897516716e-06,1.327848811159819899e-05
2.240476190476190510e+00,-1.409614385830368427e-06,-8.220266590433145571e-06
2.241269841269841301e+00,-4.906977251114807214e-06,-3.257383174583389717e-05
2.242063492063492092e+00,-7.202018455604244889e-06,-5.546082805558194887e-05
2.242857142857142883e+00,-8.892880666975710779e-06,-7.264480422892476597e-05
2.243650793650793673e+00,-1.116976208248915101e-05,-8.113974216133055715e-05
2.244444444444444464e+00,-1.525456199385202039e-05,-7.994333667643883381e-05
2.245238095238095255e+00,-2.184283553861356977e-05,-7.013631502590353709e-05
2.246031746031746046e+00,-3.068990474747058380e-05,-5.436019509357076885e-05
2.246825396825396837e+00,-4.041956578820860225e-05,-3.587281880903868376e-05
2.247619047619047628e+00,-4.860497688392241187e-05,-1.750076446954984972e-05
2.248412698412698418e+00,-5.216162477932456676e-05,-8.400115002294028902e-07
2.249206349206349209e+00,-4.805218388989231359e-05,1.401298060677046930e-05
2.250000000000000000e+00,-3.420488027801421143e-05,2.808778084448734994e-05
2.250793650793650791e+00,-1.041927270884465365e-05,4.264796753236673832e-05
2.251587301587301582e+00,2.104990450234902783e-05,5.812703121920923915e-05
2.252380952380952372e+00,5.550826645356100208e-05,7.334625732150869065e-05
2.253174603174603163e+00,8.655392451145095219e-05,8.539098949300385761e-05
2.253968253968253954e+00,1.074145528209843143e-04,9.027550570751279751e-05
2.254761904761904745e+00,1.125710753330583848e-04,8.421895704782254193e-05
2.255555555555555536e+00,9.923458060214767761e-05,6.511656536567325454e-05
2.256349206349206327e+00,6.824972294702096336e-05,3.370216157087005610e-05
2.257142857142857117e+00,2.412966137794145632e-05,-6.026309195963105062e-06
2.257936507936507908e+00,-2.583794148977347198e-05,-4.733472742923929233e-05
2.258730158730158699e+00,-7.319812438390619627e-05,-8.215978787893719209e-05
2.259523809523809490e+00,-1.102084173143672117e-04,-1.030409594822640287e-04
2.260317460317460281e+00,-1.314666101950023327e-04,-1.050474881534314131e-04
2.261111111111111072e+00,-1.348599176090698956e-04,-8.715183490406860293e-05
2.261904761904761862e+00,-1.216513704316720356e-04,-5.264506454812199635e-05
2.262698412698412653e+00,-9.579935962355407583e-05,-8.459352919092985427e-06
2.263492063492063444e+00,-6.280690507672172056e-05,3.642525638952040447e-05
2.264285714285714235e+00,-2.845870935740337393e-05,7.306304931512084980e-05
2.265079365079365026e+00,2.255987233548768336e-06,9.457388732874123587e-05
2.265873015873015817e+00,2.585782067654566883e-05,9.762360400903786443e-05
2.266666666666666607e+00,4.067642567729191948e-05,8.301585702982672180e-05
2.267460317460317398e+00,4.677618874367049417e-05,5.528776620522655208e-05
2.268253968253968189e+00,4.560545756794468289e-05,2.144420950610769684e-05
2.269047619047618980e+00,3.948620258407473360e-05,-1.082700648220644762e-05
2.269841269841269771e+00,3.105725135605932289e-05,-3.499220478148252887e-05
2.270634920634920562e+00,2.276629580678606380e-05,-4.709623030819081710e-05
2.271428571428571352e+00,1.648099506568688659e-05,-4.644737843186218593e-05
2.272222222222222143e+00,1.326310222354270526e-05,-3.545894644776849679e-05
2.273015873015872934e+00,1.332452113186548955e-05,-1.876291941010695428e-05
2.273809523809523725e+00,1.615747752024175048e-05,-1.861698149760734752e-06
2.274603174603174516e+00,2.079676100243779859e-05,1.034553867103731231e-05
2.275396825396825307e+00,2.613416527774935284e-05,1.481514764890166137e-05
2.276190476190476097e+00,3.118437078561209160e-05,1.108697147333574276e-05
2.276984126984126888e+00,3.522160052193543578e-05,1.294363923410150023e-06
2.277777777777777679e+00,3.776950301359607111e-05,-1.056000296853174894e-05
2.278571428571428470e+00,3.850125078954773496e-05,-1.986889760051187918e-05
2.279365079365079261e+00,3.714643216818169324e-05,-2.286163009838820316e-05
2.280158730158730052e+00,3.348134035237886237e-05,-1.780178567699853548e-05
2.280952380952380842e+00,2.741682211983526184e-05,-5.606383862851053310e-06
2.281746031746031633e+00,1.913575795683572186e-05,1.027552196239186959e-05
2.282539682539682424e+00,9.204097171430482161e-06,2.470398119450898411e-05
2.283333333333333215e+00,-1.410385043984326966e-06,3.223052670741013715e-05
2.284126984126984006e+00,-1.144432914768434568e-05,2.870121291096726693e-05
2.284920634920634797e+00,-1.956174802491274066e-05,1.264648538140855552e-05
2.285714285714285587e+00,-2.464428352228177974e-05,-1.399326414752488259e-05
2.286507936507936378e+00,-2.606722516395214631e-05,-4.611175478068219551e-05
2.287301587301587169e+00,-2.387140846731502443e-05,-7.665543151109872097e-05
2.288095238095237960e+00,-1.876725661088096998e-05,-9.847383610174482256e-05
2.288888888888888751e+00,-1.196202641371992717e-05,-1.062217260446708211e-04
2.289682539682539542e+00,-4.861356252603562504e-06,-9.772351867278203711e-05
2.290476190476190332e+00,1.265723988511495451e-06,-7.442639329706998274e-05
2.291269841269841123e+00,5.566097201299501814e-06,-4.089068082133000010e-05
2.292063492063491914e+00,7.759243202168086896e-06,-3.550109848996582380e-06
2.292857142857142705e+00,8.142296702807343584e-06,3.086494806086669104e-05
2.293650793650793496e+00,7.452454395271648615e-06,5.682160329305021792e-05
2.294444444444444287e+00,6.626839344624814928e-06,7.105370381772783863e-05
2.295238095238095077e+00,6.520203474183850574e-06,7.300463143332987931e-05
2.296031746031745868e+00,7.647896179806018641e-06,6.460739510948202433e-05
2.296825396825396659e+00,1.001471734857783640e-05,4.952185261786940955e-05
2.297619047619047450e+00,1.307077776071915053e-05,3.206602888642304646e-05
2.298412698412698241e+00,1.580731503096624514e-05,1.613221501261918037e-05
2.299206349206349032e+00,1.697566061465494833e-05,4.356344865861244171e-06
2.299999999999999822e+00,1.538764687353497918e-05,-2.278870098599622732e-06
2.300793650793650613e+00,1.023692916782330651e-05,-4.349210171529494223e-06
2.301587301587301404e+00,1.366536833455232411e-06,-3.469495615310622507e-06
2.302380952380952195e+00,-1.059695699149408097e-05,-1.524004891162667591e-06
2.303174603174602986e+00,-2.430441766477567920e-05,1.040884123974624261e-07
2.303968253968253777e+00,-3.795040614163260083e-05,1.043145778929423688e-06
2.304761904761904567e+00,-4.967887208393092916e-05,2.002433849933517927e-06
2.305555555555555358e+00,-5.799776664029051014e-05,4.382179420685843891e-06
2.306349206349206149e+00,-6.206044302192936172e-05,9.584655445983729618e-06
2.307142857142856940e+00,-6.172738123794743433e-05,1.829559554008745290e-05
2.307936507936507731e+00,-5.741613461242891088e-05,2.999985972405267584e-05
2.308730158730158522e+00,-4.982918620447154671e-05,4.289479688472195310e-05
2.309523809523809312e+00,-3.968045032839605994e-05,5.422758813099494923e-05
2.310317460317460103e+00,-2.751733045652003873e-05,6.096371130502535704e-05
2.311111111111110894e+00,-1.368129399410378251e-05,6.061411926407961603e-05
2.311904761904761685e+00,1.602880096204721876e-06,5.200426270915010061e-05
2.312698412698412920e+00,1.805319281102874795e-05,3.576032707679565703e-05
2.313492063492063711e+00,3.513126419854138721e-05,1.433696874864657312e-05
2.314285714285714501e+00,5.188138751538130193e-05,-8.470646628626022571e-06
2.315079365079365292e+00,6.686881115253229312e-05,-2.842475029421101502e-05
2.315873015873016083e+00,7.826684438520177295e-05,-4.190407678156261829e-05
2.316666666666666874e+00,8.411480824095085291e-05,-4.681967322542152316e-05
2.317460317460317665e+00,8.272319817512122488e-05,-4.313553464450072911e-05
2.318253968253968456e+00,7.314926316881052888e-05,-3.286399976026299348e-05
2.319047619047619246e+00,5.562284608551368634e-05,-1.953823707343323670e-05
2.319841269841270037e+00,3.178353632064207586e-05,-7.279075090695685483e-06
2.320634920634920828e+00,4.607939788766531233e-06,3.263227224094349220e-07
2.321428571428571619e+00,-2.202994365182667433e-05,1.238708328693397293e-06
2.322222222222222410e+00,-4.411454453837847765e-05,-4.436279848891270879e-06
2.323015873015873201e+00,-5.838807413312433950e-05,-1.448849392805210890e-05
2.323809523809523991e+00,-6.313672431257499212e-05,-2.530902146738803882e-05
2.324603174603174782e+00,-5.861066941583692696e-05,-3.305875861867886957e-05
2.325396825396825573e+00,-4.692987551758737440e-05,-3.492405725161441224e-05
2.326190476190476364e+00,-3.149554381824872250e-05,-3.004582066329812559e-05
2.326984126984127155e+00,-1.608452414855634548e-05,-1.982066978684672643e-05
2.327777777777777946e+00,-3.889009239739096922e-06,-7.481618138939429859e-06
2.328571428571428736e+00,3.240139800901413803e-06,2.909372619440597670e-06
2.329365079365079527e+00,5.157987137609362096e-06,7.748203479075744450e-06
2.330158730158730318e+00,3.314983884513679752e-06,5.058670241841876523e-06
2.330952380952381109e+00,2.084883093274696770e-07,-4.824449738824760779e-06
2.331746031746031900e+00,-1.450056424251435167e-06,-1.928600416230772722e-05
2.332539682539682691e+00,3.865270180635098851e-07,-3.417284875303948713e-05
2.333333333333333481e+00,6.438134537740651174e-06,-4.500664184903222539e-05
2.334126984126984272e+00,1.585106532908189418e-05,-4.827050919610627008e-05
2.334920634920635063e+00,2.644306356171283285e-05,-4.236954167952318337e-05
2.335714285714285854e+00,3.536630867929045472e-05,-2.800629912217345778e-05
2.336507936507936645e+00,3.999495799780387146e-05,-7.918061152140332343e-06
2.337301587301587436e+00,3.877827067509967781e-05,1.389949693639770693e-05
2.338095238095238226e+00,3.179630597783994662e-05,3.324818618330819544e-05
2.338888888888889017e+00,2.082013135212844085e-05,4.678110070089092244e-05
2.339682539682539808e+00,8.817031210861986422e-06,5.277988307317639548e-05
2.340476190476190599e+00,-9.721346091174426539e-07,5.145367273635513149e-05
2.341269841269841390e+00,-6.089350733099614881e-06,4.469434353666466034e-05
2.342063492063492181e+00,-5.689363278953099357e-06,3.538418008801372082e-05
2.342857142857142971e+00,-8.582873533766998754e-07,2.648032783610534309e-05
2.343650793650793762e+00,5.679693502097630239e-06,2.015273301487204995e-05
2.344444444444444553e+00,1.036354956678961384e-05,1.722046328501787688e-05
2.345238095238095344e+00,9.859167968718838998e-06,1.703390928439000180e-05
2.346031746031746135e+00,2.091769813928435466e-06,1.781846683544946938e-05
2.346825396825396925e+00,-1.302269183723866994e-05,1.736310925553605840e-05
2.347619047619047716e+00,-3.334795012102105522e-05,1.383794148385721081e-05
2.348412698412698507e+00,-5.489505982781611780e-05,6.485903748897483566e-06
2.349206349206349298e+00,-7.274106838568310295e-05,-4.031173730500573433e-06
2.350000000000000089e+00,-8.229392234182686297e-05,-1.575001534957579401e-05
2.350793650793650880e+00,-8.056930008838492129e-05,-2.596139253809894698e-05
2.351587301587301670e+00,-6.710278410568449757e-05,-3.203393578311977208e-05
2.352380952380952461e+00,-4.420479670241187988e-05,-3.224349278592356755e-05
2.353174603174603252e+00,-1.646119781393420921e-05,-2.634600034997492660e-05
2.353968253968254043e+00,1.038537609358565140e-05,-1.572392864975810336e-05
2.354761904761904834e+00,3.086054589464338528e-05,-3.069766051770122369e-06
2.355555555555555625e+00,4.110473100802473369e-05,8.308647824548981751e-06
2.356349206349206415e+00,3.979005011572664922e-05,1.538609267264777231e-05
2.357142857142857206e+00,2.837330825620661270e-05,1.628468966165674085e-05
2.357936507936507997e+00,1.062615532185522887e-05,1.084562951954928732e-05
2.358730158730158788e+00,-8.417953520347953167e-06,6.956495227985964521e-07
2.359523809523809579e+00,-2.379416132394941420e-05,-1.126196633368616156e-05
2.360317460317460370e+00,-3.183474251315180086e-05,-2.179074581544607664e-05
2.361111111111111160e+00,-3.096727079949813119e-05,-2.836396929052333594e-05
2.361904761904761951e+00,-2.190666275207745124e-05,-2.990817310857177738e-05
2.362698412698412742e+00,-7.254483194937604890e-06,-2.697198058892052804e-05
2.363492063492063533e+00,9.325489967603248012e-06,-2.129996110011166363e-05
2.364285714285714324e+00,2.410343608181818070e-05,-1.503406990250062449e-05
2.365079365079365115e+00,3.419094021042500117e-05,-9.876963024050986473e-06
2.365873015873015905e+00,3.814787028365254927e-05,-6.513257588032383615e-06
2.366666666666666696e+00,3.616439548329148220e-05,-4.452505564945372202e-06
2.367460317460317487e+00,2.980533650662701696e-05,-2.299370675740273327e-06
2.368253968253968278e+00,2.141936909792218455e-05,1.675203578898971023e-06
2.369047619047619069e+00,1.340524654932157201e-05,8.859659073788215129e-06
2.369841269841269860e+00,7.559646006087002807e-06,1.972469089313500277e-05
2.370634920634920650e+00,4.689270086333446645e-06,3.349244371276276406e-05
2.371428571428571441e+00,4.566655885361665068e-06,4.812502868850110290e-05
2.372222222222222232e+00,6.188686472348765589e-06,6.063456196940054162e-05
2.373015873015873023e+00,8.209344960849811158e-06,6.766761968469754576e-05
2.373809523809523814e+00,9.390390110686352315e-06,6.627923883773094449e-05
2.374603174603174605e+00,8.940266876691268982e-06,5.476332497674441197e-05
2.375396825396825395e+00,6.669753949536474031e-06,3.334756381004906742e-05
2.376190476190476186e+00,2.957872870088361773e-06,4.527717322724720352e-06
2.376984126984126977e+00,-1.424988031533874075e-06,-2.714473635993156660e-05
2.377777777777777768e+00,-5.558969434622539920e-06,-5.587742346891902959e-05
2.378571428571428559e+00,-8.600982150103923476e-06,-7.591787636378378610e-05
2.379365079365079350e+00,-9.938322769269537004e-06,-8.298111436354571667e-05
2.380158730158730140e+00,-9.251939773043482918e-06,-7.541566172774845193e-05
2.380952380952380931e+00,-6.507619539516065838e-06,-5.475237822448864153e-05
2.381746031746031722e+00,-1.910133835583356415e-06,-2.545551962281750779e-05
2.382539682539682513e+00,4.149728879698319895e-06,6.077921925744492502e-06
2.383333333333333304e+00,1.114176637604942077e-05,3.302150043137330954e-05
2.384126984126984095e+00,1.843721490394992438e-05,4.974506381894210034e-05
2.384920634920634885e+00,2.534979689063873685e-05,5.314605451097146341e-05
2.385714285714285676e+00,3.118207383368832973e-05,4.333589196316566542e-05
2.386507936507936467e+00,3.528005656987590733e-05,2.349608813689673046e-05
2.387301587301587258e+00,3.709621423644847199e-05,-1.050366020045603318e-06
2.388095238095238049e+00,3.625593421582749755e-05,-2.427942111605052461e-05
2.388888888888888840e+00,3.261712515120939934e-05,-4.100444080923856691e-05
2.389682539682539630e+00,2.631223552020027791e-05,-4.809473974212692622e-05
2.390476190476190421e+00,1.776794361365191497e-05,-4.507558477624274681e-05
2.391269841269841212e+00,7.703951334981271704e-06,-3.399608576480362939e-05
2.392063492063492003e+00,-2.890243252293593970e-06,-1.864332144437749479e-05
2.392857142857142794e+00,-1.281400860829008373e-05,-3.342400145629300126e-06
2.393650793650793585e+00,-2.077271767142176864e-05,8.313976618224055493e-06
2.394444444444444375e+00,-2.556732911753013552e-05,1.444445965404980714e-05
2.395238095238095166e+00,-2.634022680423596396e-05,1.528840356563958879e-05
2.396031746031745957e+00,-2.282528054688592295e-05,1.293783046826628515e-05
2.396825396825396748e+00,-1.552832168307210117e-05,1.049049672186796064e-05
2.397619047619047539e+00,-5.766973594656946622e-06,1.089965132600575204e-05
2.398412698412698330e+00,4.475277700624752183e-06,1.588619915808290521e-05
2.399206349206349120e+00,1.288501860052763208e-05,2.525229557816013781e-05
2.399999999999999911e+00,1.730245747906683721e-05,3.680724929564406641e-05
2.400793650793650702e+00,1.626330655605442977e-05,4.693825667037073167e-05
2.401587301587301493e+00,9.467072281149486166e-06,5.168080754728558593e-05
2.402380952380952284e+00,-1.984397417822328658e-06,4.799704088787553848e-05
2.403174603174603075e+00,-1.571264716095201262e-05,3.488141550341392923e-05
2.403968253968253865e+00,-2.859753955970656972e-05,1.392014863389896671e-05
2.404761904761904656e+00,-3.762073020608903772e-05,-1.093528872378666915e-05
2.405555555555555447e+00,-4.077201749524106379e-05,-3.437383227228185152e-05
2.406349206349206238e+00,-3.770513136031180754e-05,-5.122013723767315796e-05
2.407142857142857029e+00,-2.988901479307066311e-05,-5.793068766967861575e-05
2.407936507936507819e+00,-2.017255184843113429e-05,-5.358996701227709537e-05
2.408730158730158610e+00,-1.189046071954981950e-05,-4.009514427896324919e-05
2.409523809523809401e+00,-7.798710123268805860e-06,-2.151039147812060364e-05
2.410317460317460192e+00,-9.185794407014101338e-06,-2.832593205011871181e-06
2.411111111111110983e+00,-1.545136200778507495e-05,1.144261299275712977e-05
2.411904761904761774e+00,-2.429602022492902030e-05,1.854200342470699661e-05
2.412698412698412564e+00,-3.246724266855188513e-05,1.809037975233530209e-05
2.413492063492063355e+00,-3.681638565023166672e-05,1.206665507183882032e-05
2.414285714285714146e+00,-3.530852757844524020e-05,4.071544022540982712e-06
2.415079365079364937e+00,-2.764216432764993441e-05,-1.861756338786592614e-06
2.415873015873015728e+00,-1.528526388039824213e-05,-2.550043145652857694e-06
2.416666666666666519e+00,-9.571593159028653681e-07,3.344525829741453158e-06
2.417460317460317309e+00,1.222192444129202887e-05,1.488390056896941001e-05
2.418253968253968100e+00,2.161354718557979680e-05,2.909103170466217016e-05
2.419047619047618891e+00,2.572141572406051944e-05,4.177258307921978027e-05
2.419841269841269682e+00,2.448958284235050258e-05,4.869797755960165840e-05
2.420634920634920473e+00,1.921571301566921700e-05,4.681567474005919995e-05
2.421428571428571264e+00,1.214151863361401065e-05,3.517075570355174832e-05
2.422222222222222054e+00,5.835257033862598182e-06,1.525706640669638507e-05
2.423015873015872845e+00,2.512815998579260963e-06,-9.310124567328329333e-06
2.423809523809523636e+00,3.455916393020532804e-06,-3.371424518952354703e-05
2.424603174603174427e+00,8.669380730176717899e-06,-5.318142883162657196e-05
2.425396825396825218e+00,1.686810288224108886e-05,-6.418587792653397087e-05
2.426190476190476009e+00,2.580617914381079495e-05,-6.528215662212658000e-05
2.426984126984126799e+00,3.287499629831292387e-05,-5.735553936425444706e-05
2.427777777777777590e+00,3.582404032844497790e-05,-4.324568004844147912e-05
2.428571428571428381e+00,3.341345080713056451e-05,-2.685379972176957222e-05
2.429365079365079172e+00,2.580531847762907620e-05,-1.197058876849901434e-05
2.430158730158729963e+00,1.455559086703880600e-05,-1.149495995980179267e-06
2.430952380952380754e+00,2.182398264407918901e-06,5.030067612439600103e-06
2.431746031746031544e+00,-8.568511989611517525e-06,8.047794844864927138e-06
2.432539682539682335e+00,-1.552409903049494785e-05,1.080371686970414833e-05
2.433333333333333126e+00,-1.768427802414380601e-05,1.642782719743297778e-05
2.434126984126983917e+00,-1.543246411609321418e-05,2.691680158002240800e-05
2.434920634920634708e+00,-1.031000652632695528e-05,4.206173925562775790e-05
2.435714285714285499e+00,-4.453760369057793218e-06,5.906180123217694887e-05
2.436507936507936289e+00,1.079177685676870195e-07,7.301997910288700983e-05
2.437301587301587080e+00,2.079883808567148601e-06,7.824935942977442535e-05
2.438095238095238315e+00,1.263172659655393502e-06,7.005178310872285793e-05
2.438888888888889106e+00,-1.444205826587739049e-06,4.643795965571687425e-05
2.439682539682539897e+00,-4.405372381426447918e-06,9.210306529203285373e-06
2.440476190476190688e+00,-5.853565363387558217e-06,-3.602476629735854762e-05
2.441269841269841478e+00,-4.562388094632675108e-06,-8.102344366005182527e-05
2.442063492063492269e+00,-3.568701551484571073e-07,-1.169496656091542001e-04
2.442857142857143060e+00,5.716510471502314892e-06,-1.366650768945504941e-04
2.443650793650793851e+00,1.164001055011505914e-05,-1.365309914585302608e-04
2.444444444444444642e+00,1.503982559442962429e-05,-1.171867161319292011e-04
2.445238095238095433e+00,1.399124751007382459e-05,-8.315969547377813039e-05
2.446031746031746223e+00,7.771364951133026796e-06,-4.154440981605741942e-05
2.446825396825397014e+00,-2.682106882495380329e-06,-2.063362288793485863e-07
2.447619047619047805e+00,-1.478128887637531112e-05,3.399587642543534062e-05
2.448412698412698596e+00,-2.482434135429274427e-05,5.656234737147289987e-05
2.449206349206349387e+00,-2.896241948507743676e-05,6.601874022443215506e-05
2.450000000000000178e+00,-2.435560441841451161e-05,6.381614065733317957e-05
2.450793650793650968e+00,-1.018451193911844641e-05,5.356361239171687414e-05
2.451587301587301759e+00,1.180878766950820322e-05,3.984499156393681387e-05
2.452380952380952550e+00,3.746008962639788708e-05,2.695620606392286019e-05
2.453174603174603341e+00,6.101746480989577500e-05,1.789132122049276948e-05
2.453968253968254132e+00,7.647902959959271242e-05,1.380863021305229034e-05
2.454761904761904923e+00,7.909280215258684770e-05,1.405853401469125182e-05
2.455555555555555713e+00,6.662433961900656018e-05,1.670268689896605536e-05
2.456349206349206504e+00,4.004716564354794819e-05,1.933703884473268899e-05
2.457142857142857295e+00,3.451007820566474952e-06,1.996691677650986563e-05
2.457936507936508086e+00,-3.683291988261805123e-05,1.767724207797337637e-05
2.458730158730158877e+00,-7.367175197296156684e-05,1.290197002662704218e-05
2.459523809523809668e+00,-1.007511529336035233e-04,7.219981624024920296e-06
2.460317460317460458e+00,-1.139362016608633975e-04,2.758981712327713146e-06
2.461111111111111249e+00,-1.120202967452426377e-04,1.418299299714782027e-06
2.461904761904762040e+00,-9.671294874488860541e-05,4.171838156567664058e-06
2.462698412698412831e+00,-7.195485946216183585e-05,1.066707265012028080e-05
2.463492063492063622e+00,-4.282247557116352900e-05,1.922835312235418554e-05
2.464285714285714413e+00,-1.434165762089711319e-05,2.725822994670242173e-05
2.465079365079365203e+00,9.513605869746827114e-06,3.194082832162392676e-05
2.465873015873015994e+00,2.645458041784067634e-05,3.108211658764009372e-05
2.466666666666666785e+00,3.606039423062857381e-05,2.386460093954198788e-05
2.467460317460317576e+00,3.951970978178234527e-05,1.127001827031853022e-05
2.468253968253968367e+00,3.902789210985516995e-05,-4.022721912726499642e-06
2.469047619047619158e+00,3.701057148529909917e-05,-1.830616179071054613e-05
2.469841269841269948e+00,3.538489720009132606e-05,-2.791707814012551146e-05
2.470634920634920739e+00,3.505342205862398277e-05,-3.038423152339287726e-05
2.471428571428571530e+00,3.575284586175857173e-05,-2.527066963980425336e-05
2.472222222222222321e+00,3.627793942044951005e-05,-1.441494594113895950e-05
2.473015873015873112e+00,3.500177309051989743e-05,-1.459757893480861686e-06
2.473809523809523903e+00,3.053465661509700721e-05,9.223453131527340900e-06
2.474603174603174693e+00,2.231696254694481298e-05,1.391226403158794108e-05
2.475396825396825484e+00,1.094510543062873820e-05,1.079781961130214880e-05
2.476190476190476275e+00,-1.894860607073890489e-06,7.251438727823240343e-07
2.476984126984127066e+00,-1.387497847147010209e-05,-1.286478916318219914e-05
2.477777777777777857e+00,-2.269731041216223858e-05,-2.482533921616174189e-05
2.478571428571428648e+00,-2.674736438572291277e-05,-2.979474051933953959e-05
2.479365079365079438e+00,-2.550567448661834210e-05,-2.385876733179593688e-05
2.480158730158730229e+00,-1.960613191559989503e-05,-5.901311051040566209e-06
2.480952380952381020e+00,-1.057231517940545909e-05,2.174944528504404437e-05
2.481746031746031811e+00,-3.657921660451640258e-07,5.358060853987625102e-05
2.482539682539682602e+00,9.092928835496298095e-06,8.203601864544594424e-05
2.483333333333333393e+00,1.630759248628954424e-05,9.930025452662514661e-05
2.484126984126984183e+00,2.043282966162019093e-05,9.930784732652912089e-05
2.484920634920634974e+00,2.133626444829675372e-05,7.945757518847597226e-05
2.485714285714285765e+00,1.951827090006624631e-05,4.153462353948413727e-05
2.486507936507936556e+00,1.592504300814262102e-05,-8.478032035688261100e-06
2.487301587301587347e+00,1.169841941535079478e-05,-6.170720183316777050e-05
2.488095238095238138e+00,7.912741083797723471e-06,-1.084711725372807802e-04
2.488888888888888928e+00,5.351171082479366895e-06,-1.405348502732843910e-04
2.489682539682539719e+00,4.365086370264098349e-06,-1.529040688087009636e-04
2.490476190476190510e+00,4.839978105280158603e-06,-1.447247076853170234e-04
2.491269841269841301e+00,6.266968817959632588e-06,-1.191610120033914378e-04
2.492063492063492092e+00,7.898199067939552808e-06,-8.239497921045006788e-05
2.492857142857142883e+00,8.949199649381322065e-06,-4.205582799969433090e-05
2.493650793650793673e+00,8.801626740428377332e-06,-5.473443268736329782e-06
2.494444444444444464e+00,7.157586378062823813e-06,2.183663641754269457e-05
2.495238095238095255e+00,4.106243109292672922e-06,3.712290136082716473e-05
2.496031746031746046e+00,8.541724745768187758e-08,4.060771545916261029e-05
2.496825396825396837e+00,-4.249716745883082052e-06,3.498201259628046212e-05
2.497619047619047628e+00,-8.211209240804941234e-06,2.438318920638734031e-05
2.498412698412698418e+00,-1.126019320563710770e-05,1.315599506512586667e-05
2.499206349206349209e+00,-1.313078966296963981e-05,4.717047275904313098e-06
2.500000000000000000e+00,-1.385967859569607475e-05,7.997629523793460586e-07
2.500793650793650791e+00,-1.371667393069013913e-05,1.258634015102204843e-06
2.501587301587301582e+00,-1.306563704634109828e-05,4.461748691141598190e-06
2.502380952380952372e+00,-1.220896327404742695e-05,8.121685855731763338e-06
2.503174603174603163e+00,-1.127405540159724090e-05,1.026727672502469535e-05
2.503968253968253954e+00,-1.018545211863563924e-05,1.000892598488041052e-05
2.504761904761904745e+00,-8.736721893549836444e-06,7.828364067558989730e-06
2.505555555555555536e+00,-6.740282461470239111e-06,5.304288905951542484e-06
2.506349206349206327e+00,-4.201682543236197501e-06,4.396983502985901538e-06
2.507142857142857117e+00,-1.449196504814556067e-06,6.572179143617271647e-06
2.507936507936507908e+00,8.427332243130622375e-07,1.208976405626530079e-05
2.508730158730158699e+00,1.767816785153368915e-06,1.971396726774182680e-05
2.509523809523809490e+00,4.276338160318924288e-07,2.695967992647788308e-05
2.510317460317460281e+00,-3.763173262368367450e-06,3.082366642905777807e-05
2.511111111111111072e+00,-1.080347819572073756e-05,2.879567319283491658e-05
2.511904761904761862e+00,-1.996933607727267501e-05,1.983567791207248486e-05
2.512698412698412653e+00,-2.988372750257505987e-05,4.979749943258346271e-06
2.513492063492063444e+00,-3.878702129446052522e-05,-1.267191664106052842e-05
2.514285714285714235e+00,-4.492326499996815317e-05,-2.863670104284659498e-05
2.515079365079365026e+00,-4.691415259234428298e-05,-3.821895963458369656e-05
2.515873015873015817e+00,-4.400875048298555342e-05,-3.780837824220482446e-05
2.516666666666666607e+00,-3.616186679461099005e-05,-2.591104855297045805e-05
2.517460317460317398e+00,-2.396769321803883545e-05,-3.629766911524496666e-06
2.518253968253968189e+00,-8.515833953718164172e-06,2.550021629008547477e-05
2.519047619047618980e+00,8.770532729089353254e-06,5.624134940140836526e-05
2.519841269841269771e+00,2.628910966369136821e-05,8.275892553641119303e-05
2.520634920634920562e+00,4.240826580384466455e-05,9.984967510917567451e-05
2.521428571428571352e+00,5.561886275546264777e-05,1.040230138795980222e-04
2.522222222222222143e+00,6.468241225983231214e-05,9.419656874341314132e-05
2.523015873015872934e+00,6.875925061346694668e-05,7.185957189782390194e-05
2.523809523809523725e+00,6.750128950167697439e-05,4.068923085748859191e-05
2.524603174603174516e+00,6.110092966697343016e-05,5.733928319273903546e-06
2.525396825396825307e+00,5.029056451277001997e-05,-2.763401699684034336e-05
2.526190476190476097e+00,3.628403672361678285e-05,-5.475854857294932035e-05
2.526984126984126888e+00,2.065070988426906105e-05,-7.251211554055833522e-05
2.527777777777777679e+00,5.121913620661060828e-06,-7.971928153867517230e-05
2.528571428571428470e+00,-8.652930592335905099e-06,-7.712465222063112961e-05
2.529365079365079261e+00,-1.936439886288838589e-05,-6.694911581856071413e-05
2.530158730158730052e+00,-2.626576555258843774e-05,-5.218345124379322481e-05
2.530952380952380842e+00,-2.930657435675539378e-05,-3.583615821126395512e-05
2.531746031746031633e+00,-2.913204868635167424e-05,-2.035157484616411403e-05
2.532539682539682424e+00,-2.692794413946254887e-05,-7.334923088519645995e-06
2.533333333333333215e+00,-2.412994035287837130e-05,2.407428275669827932e-06
2.534126984126984006e+00,-2.206132531204863868e-05,8.620800542564739064e-06
2.534920634920634797e+00,-2.159473581859024921e-05,1.130763978686022810e-05
2.535714285714285587e+00,-2.293532637069038455e-05,1.052048928366376010e-05
2.536507936507936378e+00,-2.558772288007640642e-05,6.309674524860858469e-06
2.537301587301587169e+00,-2.850969374183123835e-05,-1.177358428488855871e-06
2.538095238095237960e+00,-3.039816883936641704e-05,-1.150048715709750550e-05
2.538888888888888751e+00,-3.002309429893582405e-05,-2.372295841031831607e-05
2.539682539682539542e+00,-2.652832230472337396e-05,-3.629984402895841119e-05
2.540476190476190332e+00,-1.964276587237131645e-05,-4.714933031877680572e-05
2.541269841269841123e+00,-9.770582744355484666e-06,-5.395372210242749131e-05
2.542063492063491914e+00,2.052078651021210942e-06,-5.465437232256941102e-05
2.542857142857142705e+00,1.432927565552055475e-05,-4.800782215472722882e-05
2.543650793650793496e+00,2.537897714225704137e-05,-3.401946930447934586e-05
2.544444444444444287e+00,3.365433792245209869e-05,-1.410705384554815671e-05
2.545238095238095077e+00,3.804211825127771308e-05,9.060509897413623675e-06
2.546031746031745868e+00,3.807188108424533300e-05,3.201872273214031994e-05
2.546825396825396659e+00,3.399070278998871905e-05,5.117759988316870770e-05
2.547619047619047450e+00,2.668649272155532027e-05,6.358845184840260841e-05
2.548412698412698241e+00,1.747485611177879841e-05,6.764437154248417522e-05
2.549206349206349032e+00,7.799188078707535053e-06,6.352020372550784652e-05
2.549999999999999822e+00,-1.076928553928879558e-06,5.318319073926184383e-05
2.550793650793650613e+00,-8.298091595706087845e-06,3.990881175541120590e-05
2.551587301587301404e+00,-1.350449680681825214e-05,2.739209272086899199e-05
2.552380952380952195e+00,-1.676933728179554576e-05,1.869205302355559146e-05
2.553174603174602986e+00,-1.843312725636330211e-05,1.532329723510275074e-05
2.553968253968253777e+00,-1.891229398266949119e-05,1.678196806955331634e-05
2.554761904761904567e+00,-1.855047650656109728e-05,2.067633617737449527e-05
2.555555555555555358e+00,-1.754409933840957538e-05,2.346647630163186882e-05
2.556349206349206149e+00,-1.593509833186501217e-05,2.164142680183276228e-05
2.557142857142856940e+00,-1.364354057224966223e-05,1.300889491262948973e-05
2.557936507936507731e+00,-1.051430545630983084e-05,-2.311032703487536627e-06
2.558730158730158522e+00,-6.365216542764839127e-06,-2.155698582930999519e-05
2.559523809523809312e+00,-1.036955540046475279e-06,-3.984980085407353851e-05
2.560317460317460103e+00,5.550402781424110317e-06,-5.148028169265379676e-05
2.561111111111110894e+00,1.333483087137030466e-05,-5.160265719450762021e-05
2.561904761904761685e+00,2.205429527421659259e-05,-3.781792550777602908e-05
2.562698412698412920e+00,3.121051235755757241e-05,-1.115001499454068733e-05
2.563492063492063711e+00,4.007174932672489924e-05,2.390202725489620151e-05
2.564285714285714501e+00,4.772557765788122664e-05,6.028538115936247127e-05
2.565079365079365292e+00,5.318095290954372119e-05,9.006781021698039740e-05
2.565873015873016083e+00,5.550419575617851546e-05,1.064331601952681587e-04
2.566666666666666874e+00,5.396169867145714233e-05,1.054575734337719598e-04
2.567460317460317665e+00,4.814156707196477612e-05,8.715505568554753751e-05
2.568253968253968456e+00,3.803801112309772016e-05,5.546164803965722439e-05
2.569047619047619246e+00,2.409690236360593671e-05,1.713166890104072997e-05
2.569841269841270037e+00,7.226180008108952850e-06,-2.013700193454145574e-05
2.570634920634920828e+00,-1.123402824439673149e-05,-4.977645733982932969e-05
2.571428571428571619e+00,-2.960090447139556398e-05,-6.799185871793819442e-05
2.572222222222222410e+00,-4.601937366421932519e-05,-7.450363401548257204e-05
2.573015873015873201e+00,-5.871332028733414215e-05,-7.221293422309114538e-05
2.573809523809523991e+00,-6.628011621440655613e-05,-6.593648160854267862e-05
2.574603174603174782e+00,-6.795949263268104496e-05,-6.062515948725361384e-05
2.575396825396825573e+00,-6.380077661682407816e-05,-5.963431992444262887e-05
2.576190476190476364e+00,-5.467381779866219371e-05,-6.360073651945339127e-05
2.576984126984127155e+00,-4.210922369973446952e-05,-7.028907137904390147e-05
2.577777777777777946e+00,-2.799853474682557097e-05,-7.545572039339007106e-05
2.578571428571428736e+00,-1.422178273937770819e-05,-7.444360480477146911e-05
2.579365079365079527e+00,-2.289872588967970585e-06,-6.397608085205891979e-05
2.580158730158730318e+00,6.911681359410681457e-06,-4.354581259918256054e-05
2.580952380952381109e+00,1.321419572390761390e-05,-1.592812553062300637e-05
2.581746031746031900e+00,1.707187152332819913e-05,1.335998443165461919e-05
2.582539682539682691e+00,1.931436192444727537e-05,3.749981932002763643e-05
2.583333333333333481e+00,2.082174346139163167e-05,5.029355195800068896e-05
2.584126984126984272e+00,2.221766983906993387e-05,4.802754692460683988e-05
2.584920634920635063e+00,2.366862571165230563e-05,3.075573294203149565e-05
2.585714285714285854e+00,2.484717619076293201e-05,2.632074917864077506e-06
2.586507936507936645e+00,2.507190930339665198e-05,-2.884020108778438877e-05
2.587301587301587436e+00,2.358463424898745665e-05,-5.450549728300288304e-05
2.588095238095238226e+00,1.987958454975754388e-05,-6.582416113219075938e-05
2.588888888888889017e+00,1.397543652134180985e-05,-5.718125976652212888e-05
2.589682539682539808e+00,6.529893502721571572e-06,-2.765667773100931445e-05
2.590476190476190599e+00,-1.259275340214228894e-06,1.825047667016477530e-05
2.591269841269841390e+00,-7.952704448907311349e-06,7.124993658729354197e-05
2.592063492063492181e+00,-1.227999924886994686e-05,1.192279287422330782e-04
2.592857142857142971e+00,-1.352850117995085916e-05,1.501592630493454048e-04
2.593650793650793762e+00,-1.177785777422129060e-05,1.552398821231158949e-04
2.594444444444444553e+00,-7.896809454956900030e-06,1.313745620532898075e-04
2.595238095238095344e+00,-3.294791147646689283e-06,8.228010110603552261e-05
2.596031746031746135e+00,5.019428085587839049e-07,1.783387219408147798e-05
2.596825396825396925e+00,2.324387074794253528e-06,-4.820632883395764134e-05
2.597619047619047716e+00,1.739885456874873681e-06,-1.015243111599489480e-04
2.598412698412698507e+00,-7.876106273104968620e-07,-1.307397516719828727e-04
2.599206349206349298e+00,-4.020659846214008515e-06,-1.301727818804731130e-04
2.600000000000000089e+00,-6.335424753454230575e-06,-1.011818303200568163e-04
2.600793650793650880e+00,-6.268941080554406958e-06,-5.174759104997321026e-05
2.601587301587301670e+00,-3.065455224917499221e-06,5.580583689917344307e-06
2.602380952380952461e+00,2.950527907118472032e-06,5.683961304588906630e-05
2.603174603174603252e+00,1.030793994532736000e-05,9.008161614026254256e-05
2.603968253968254043e+00,1.668253524762925273e-05,9.818203378742410112e-05
2.604761904761904834e+00,1.949897326305230946e-05,8.032292621449958184e-05
2.605555555555555625e+00,1.669018180373562445e-05,4.183654296901670976e-05
2.606349206349206415e+00,7.396893551244166849e-06,-7.451975794122740201e-06
2.607142857142857206e+00,-7.615263837415454164e-06,-5.586929567484870320e-05
2.607936507936507997e+00,-2.597849166869586660e-05,-9.281014818425551642e-05
2.608730158730158788e+00,-4.421697950979349751e-05,-1.111987227164351475e-04
2.609523809523809579e+00,-5.859285086771360489e-05,-1.089187390941281062e-04
2.610317460317460370e+00,-6.606117401526346515e-05,-8.890459335125731606e-05
2.611111111111111160e+00,-6.504652393007129805e-05,-5.793079749061911100e-05
2.611904761904761951e+00,-5.580735924972785565e-05,-2.448667557081848350e-05
2.612698412698412742e+00,-4.028775901539987070e-05,3.628872782633397099e-06
2.613492063492063533e+00,-2.152066125050660817e-05,2.130504374397605905e-05
2.614285714285714324e+00,-2.784484074046535373e-06,2.718179964211547570e-05
2.615079365079365115e+00,1.322109035281756137e-05,2.355625065964388559e-05
2.615873015873015905e+00,2.494142909582885981e-05,1.525714122026744221e-05
2.616666666666666696e+00,3.213651356726740608e-05,7.896045195332058959e-06
2.617460317460317487e+00,3.564723464891124242e-05,6.054319895816132823e-06
2.618253968253968278e+00,3.687323003918812161e-05,1.195196555150895177e-05
2.619047619047619069e+00,3.715381850461564909e-05,2.498396459372030558e-05
2.619841269841269860e+00,3.725716497213270133e-05,4.224313786079208610e-05
2.620634920634920650e+00,3.713233778757885572e-05,5.982991761900946986e-05
2.621428571428571441e+00,3.598317019811680771e-05,7.446238810460180726e-05
2.622222222222222232e+00,3.261705443897893538e-05,8.476350775576232315e-05
2.623015873015873023e+00,2.594363906563536008e-05,9.170824938392374602e-05
2.623809523809523814e+00,1.546832500515326443e-05,9.803896183954511603e-05
2.624603174603174605e+00,1.638745215578623545e-06,1.068596372188002422e-04
2.625396825396825395e+00,-1.405778662117173843e-05,1.199269795897978721e-04
2.626190476190476186e+00,-2.929164162473043236e-05,1.362653645515997879e-04
2.626984126984126977e+00,-4.135790918059954421e-05,1.516373146884662153e-04
2.627777777777777768e+00,-4.781042690788369590e-05,1.591528710705971328e-04
2.628571428571428559e+00,-4.709861398400230043e-05,1.509652680962681695e-04
2.629365079365079350e+00,-3.902468742950431592e-05,1.206470696010990528e-04
2.630158730158730140e+00,-2.487844595126217960e-05,6.556453404434587988e-05
2.630952380952380931e+00,-7.195117819200442188e-06,-1.152159701109513895e-05
2.631746031746031722e+00,1.081099288648262767e-05,-1.022312182663883795e-04
2.632539682539682513e+00,2.599333897675624769e-05,-1.939130473174041842e-04
2.633333333333333304e+00,3.600686298783912213e-05,-2.722551511983996677e-04
2.634126984126984095e+00,3.983643996192036640e-05,-3.244337164988994929e-04
2.634920634920634885e+00,3.797981420314405077e-05,-3.419235582756391498e-04
2.635714285714285676e+00,3.223703383639114391e-05,-3.222425803411290302e-04
2.636507936507936467e+00,2.516809362164597200e-05,-2.692521029541654191e-04
2.637301587301587258e+00,1.937531496523621778e-05,-1.920323779865882035e-04
2.638095238095238049e+00,1.681568606940618869e-05,-1.026890995589060875e-04
2.638888888888888840e+00,1.833308775042285631e-05,-1.367577158975283501e-05
2.639682539682539630e+00,2.352518126762481428e-05,6.469018108481132271e-05
2.640476190476190421e+00,3.095232536930873685e-05,1.259142273004130574e-04
2.641269841269841212e+00,3.859685909401047672e-05,1.678523857892930268e-04
2.642063492063492003e+00,4.442359222201036867e-05,1.920566468523987852e-04
2.642857142857142794e+00,4.688554009094144135e-05,2.022400673804517651e-04
2.643650793650793585e+00,4.525067116739256629e-05,2.023826127057243469e-04
2.644444444444444375e+00,3.967999169799744762e-05,1.950719873012853804e-04
2.645238095238095166e+00,3.105579389892644369e-05,1.805975827288410439e-04
2.646031746031745957e+00,2.063117040833347025e-05,1.571031946324753011e-04
2.646825396825396748e+00,9.626251977485872737e-06,1.217849304267227937e-04
2.647619047619047539e+00,-1.092370955499633505e-06,7.275927640016928519e-05
2.648412698412698330e+00,-1.115324196166589438e-05,1.093712928350374690e-05
2.649206349206349120e+00,-2.061970495808361793e-05,-5.884057680788769371e-05
2.649999999999999911e+00,-2.977491738468725512e-05,-1.279463391870839758e-04
2.650793650793650702e+00,-3.884100356920691086e-05,-1.855002071959358466e-04
2.651587301587301493e+00,-4.772990295027790568e-05,-2.209203541084194726e-04
2.652380952380952284e+00,-5.590962074807632982e-05,-2.267576944309721823e-04
2.653174603174603075e+00,-6.244097378452143478e-05,-2.009704425456714362e-04
2.653968253968253865e+00,-6.619588516490841070e-05,-1.479501711222109021e-04
2.654761904761904656e+00,-6.620892416559776819e-05,-7.795990890389420868e-05
2.655555555555555447e+00,-6.205323381524103707e-05,-5.063353697968083006e-06
2.656349206349206238e+00,-5.409953702327034020e-05,5.599339850048421570e-05
2.657142857142857029e+00,-4.353950433804809443e-05,9.320535640906281189e-05
2.657936507936507819e+00,-3.213319310135919485e-05,1.001734238670217949e-04
2.658730158730158610e+00,-2.174253351987757857e-05,7.764267113027979489e-05
2.659523809523809401e+00,-1.379366278895639662e-05,3.327045782283821859e-05
2.660317460317460192e+00,-8.839610846141182385e-06,-2.034390875858745965e-05
2.661111111111110983e+00,-6.367240291180241347e-06,-6.885184408844090287e-05
2.661904761904761774e+00,-4.923016388779695383e-06,-9.971510574909756518e-05
2.662698412698412564e+00,-2.541981513014282390e-06,-1.051952091883428885e-04
2.663492063492063355e+00,2.626182713820182661e-06,-8.402985496007534276e-05
2.664285714285714146e+00,1.167045857601057265e-05,-4.143797156955558503e-05
2.665079365079364937e+00,2.445407754917082704e-05,1.246331361521369933e-05
2.665873015873015728e+00,3.949544474112682039e-05,6.535845816684744496e-05
2.666666666666666519e+00,5.425081018355502774e-05,1.058237004426712237e-04
2.667460317460317309e+00,6.572093231947356384e-05,1.260196505392242427e-04
2.668253968253968100e+00,7.120443118260587367e-05,1.233468801446217160e-04
2.669047619047618891e+00,6.899381316181383921e-05,1.007274819315162731e-04
2.669841269841269682e+00,5.884390020564703047e-05,6.552736449667878214e-05
2.670634920634920473e+00,4.210043331891368944e-05,2.744554468981135408e-05
2.671428571428571264e+00,2.144352408842514182e-05,-4.077727839493565909e-06
2.672222222222222054e+00,2.858168149069507721e-07,-2.226774821409254263e-05
2.673015873015872845e+00,-1.803282959456724944e-05,-2.460131808213245519e-05
2.673809523809523636e+00,-3.103003750264502500e-05,-1.314131254050369241e-05
2.674603174603174427e+00,-3.760997864055602919e-05,6.451676654834056201e-06
2.675396825396825218e+00,-3.818498180496592584e-05,2.689074928444935812e-05
2.676190476190476009e+00,-3.438195108794708170e-05,4.156910850549830236e-05
2.676984126984126799e+00,-2.845963249738373203e-05,4.647562516894463910e-05
2.677777777777777590e+00,-2.262850439422550803e-05,4.116539104526893656e-05
2.678571428571428381e+00,-1.845849717342353953e-05,2.855936437068904248e-05
2.679365079365079172e+00,-1.651536660019969761e-05,1.370306824003564073e-05
2.680158730158729963e+00,-1.630823520914237535e-05,1.906131574057890918e-06
2.680952380952380754e+00,-1.655496788249270727e-05,-3.139272396817604463e-06
2.681746031746031544e+00,-1.568015989520103493e-05,-6.462626638538493819e-07
2.682539682539682335e+00,-1.238414169590138778e-05,7.014709657802773495e-06
2.683333333333333126e+00,-6.100726064817631148e-06,1.520585491320894503e-05
2.684126984126983917e+00,2.791806774622017275e-06,1.876338197004691062e-05
2.684920634920634708e+00,1.305294755299140772e-05,1.398798391809425534e-05
2.685714285714285499e+00,2.291096109299966193e-05,1.833662995811939877e-07
2.686507936507936289e+00,3.053537957737195317e-05,-1.980343924029605160e-05
2.687301587301587080e+00,3.451722008352460112e-05,-4.024742825280938386e-05
2.688095238095238315e+00,3.422608870409668764e-05,-5.423565271866199566e-05
2.688888888888889106e+00,2.994057209796670177e-05,-5.588474160617511302e-05
2.689682539682539897e+00,2.270435220574018397e-05,-4.241758877997536044e-05
2.690476190476190688e+00,1.394579121097380799e-05,-1.543857558221865353e-05
2.691269841269841478e+00,4.989805796468049570e-06,1.905970726247028466e-05
2.692063492063492269e+00,-3.357953988008217738e-06,5.207274746766987078e-05
2.692857142857143060e+00,-1.099962146724358015e-05,7.402578931135952837e-05
2.693650793650793851e+00,-1.844590559352642773e-05,7.758752038958423563e-05
2.694444444444444642e+00,-2.648299067143749093e-05,5.999266943827611856e-05
2.695238095238095433e+00,-3.573650996466013862e-05,2.412726792313600301e-05
2.696031746031746223e+00,-4.627966208333338441e-05,-2.200638946418447342e-05
2.696825396825397014e+00,-5.740376511868423566e-05,-6.734543758094634438e-05
2.697619047619047805e+00,-6.762325198965110954e-05,-1.007828025205429107e-04
2.698412698412698596e+00,-7.493292954059840383e-05,-1.142725685412816192e-04
2.699206349206349387e+00,-7.726981960690577661e-05,-1.050980374772418526e-04
2.700000000000000178e+00,-7.306346368670525824e-05,-7.662132233459988584e-05
2.700793650793650968e+00,-6.171481306534566755e-05,-3.729871305769900150e-05
2.701587301587301759e+00,-4.385226886768842780e-05,1.737678211900400842e-06
2.702380952380952550e+00,-2.127846305145363482e-05,2.982717749254103101e-05
2.703174603174603341e+00,3.381360436934904554e-06,3.976019642129924797e-05
2.703968253968254132e+00,2.722867428076691354e-05,2.975152104060060202e-05
2.704761904761904923e+00,4.768881980207346350e-05,3.854124099735600195e-06
2.705555555555555713e+00,6.300675281615567230e-05,-2.930007841717023585e-05
2.706349206349206504e+00,7.252767698881265710e-05,-5.906451148503294630e-05
2.707142857142857295e+00,7.669954981362875335e-05,-7.589127046863243086e-05
2.707936507936508086e+00,7.679470332920602959e-05,-7.407396508388797488e-05
2.708730158730158877e+00,7.441978325042841681e-05,-5.332725536191894723e-05
2.709523809523809668e+00,7.095308799894573253e-05,-1.878044922930788670e-05
2.710317460317460458e+00,6.708234847759318243e-05,2.055960810406116617e-05
2.711111111111111249e+00,6.258912210331563791e-05,5.438906993601265308e-05
2.711904761904762040e+00,5.644871838024638136e-05,7.397614494819898978e-05
2.712698412698412831e+00,4.722260706045790154e-05,7.452283346809025538e-05
2.713492063492063622e+00,3.364322732029687322e-05,5.640125541034932794e-05
2.714285714285714413e+00,1.523638226841125226e-05,2.496921184516420774e-05
2.715079365079365203e+00,-7.207356378305608392e-06,-1.095902126343459754e-05
2.715873015873015994e+00,-3.149685881683218915e-05,-4.156484271107722755e-05
2.716666666666666785e+00,-5.435021586386656276e-05,-5.872034037536963381e-05
2.717460317460317576e+00,-7.211086263812370618e-05,-5.815723455666890008e-05
2.718253968253968367e+00,-8.166557998875412466e-05,-4.048901573480883970e-05
2.719047619047619158e+00,-8.126583340902466895e-05,-1.082495816622916793e-05
2.719841269841269948e+00,-7.098221223951217153e-05,2.284687452637904203e-05
2.720634920634920739e+00,-5.265749900955359568e-05,5.197534897463425426e-05
2.721428571428571530e+00,-2.940158965002203492e-05,6.976670540731357126e-05
2.722222222222222321e+00,-4.812411032332903505e-06,7.287277221599427709e-05
2.723015873015873112e+00,1.783862174390018381e-05,6.203640011348836216e-05
2.723809523809523903e+00,3.624707173129925234e-05,4.159219410979292044e-05
2.724603174603174693e+00,4.940546445271979260e-05,1.802922805140145583e-05
2.725396825396825484e+00,5.757008551372176766e-05,-1.933324355742920447e-06
2.726190476190476275e+00,6.189820932690927703e-05,-1.318807523406864074e-05
2.726984126984127066e+00,6.387524599627527808e-05,-1.348369617948938512e-05
2.727777777777777857e+00,6.471383371364869777e-05,-3.770845659898620744e-06
2.728571428571428648e+00,6.491431121247370143e-05,1.236309982829500894e-05
2.729365079365079438e+00,6.411862184461368270e-05,2.992812834775582638e-05
2.730158730158730229e+00,6.128997422198632894e-05,4.403739417857611732e-05
2.730952380952381020e+00,5.514703732458726081e-05,5.125342105292546156e-05
2.731746031746031811e+00,4.470862478428742296e-05,5.042022410770391992e-05
2.732539682539682602e+00,2.977957486986879373e-05,4.278703716134070467e-05
2.733333333333333393e+00,1.122778588208799034e-05,3.142906341132109565e-05
2.734126984126984183e+00,-9.044309248793123157e-06,2.015972425603446003e-05
2.734920634920634974e+00,-2.844984624630499641e-05,1.226585799985818028e-05
2.735714285714285765e+00,-4.430807145683910640e-05,9.452012330528239320e-06
2.736507936507936556e+00,-5.450905699648321947e-05,1.132695906277945759e-05
2.737301587301587347e+00,-5.805137313856264771e-05,1.559817391545516622e-05
2.738095238095238138e+00,-5.528761034622069518e-05,1.890102758416986321e-05
2.738888888888888928e+00,-4.780652340963770328e-05,1.797071702874763119e-05
2.739682539682539719e+00,-3.799389936297923166e-05,1.075800863971682858e-05
2.740476190476190510e+00,-2.840590549166139458e-05,-2.869040271815723272e-06
2.741269841269841301e+00,-2.113226529583240817e-05,-2.103841993966869571e-05
2.742063492063492092e+00,-1.731781961485878788e-05,-4.040251566695303713e-05
2.742857142857142883e+00,-1.696262849787479483e-05,-5.710287157313196114e-05
2.743650793650793673e+00,-1.904759156546550323e-05,-6.787492128422246149e-05
2.744444444444444464e+00,-2.194384604169035590e-05,-7.095722857467496691e-05
2.745238095238095255e+00,-2.397566450141385832e-05,-6.652415134008411637e-05
2.746031746031746046e+00,-2.395186452179029159e-05,-5.650918506708374559e-05
2.746825396825396837e+00,-2.149437061443695116e-05,-4.388939438621539628e-05
2.747619047619047628e+00,-1.707636728013169964e-05,-3.168322122427783704e-05
2.748412698412698418e+00,-1.179531676002249146e-05,-2.200192618076053552e-05
2.749206349206349209e+00,-6.991013543800043965e-06,-1.546019368294354173e-05
2.750000000000000000e+00,-3.842975016888219386e-06,-1.111953306108354834e-05
2.750793650793650791e+00,-3.054892936833047126e-06,-6.968369654054596664e-06
2.751587301587301582e+00,-4.690858993094690724e-06,-7.904961073409882049e-07
2.752380952380952372e+00,-8.189886813158164401e-06,8.835416109187944780e-06
2.753174603174603163e+00,-1.254708302949744028e-05,2.171948571454553222e-05
2.753968253968253954e+00,-1.660513727304189981e-05,3.572727653523660279e-05
2.754761904761904745e+00,-1.936363299927716818e-05,4.711959064575823523e-05
2.755555555555555536e+00,-2.021077733305736313e-05,5.155738112639584550e-05
2.756349206349206327e+00,-1.901838245818585554e-05,4.553063697846168210e-05
2.757142857142857117e+00,-1.609570867999337879e-05,2.778426490498833314e-05
2.757936507936507908e+00,-1.204233591469319263e-05,2.525539345677164726e-07
2.758730158730158699e+00,-7.558615348313756378e-06,-3.188641501170800911e-05
2.759523809523809490e+00,-3.267594009213046610e-06,-6.118649473878694570e-05
2.760317460317460281e+00,4.123955925149340510e-07,-7.977849965723721008e-05
2.761111111111111072e+00,3.321418933164123267e-06,-8.162191986861473409e-05
2.761904761904761862e+00,5.533096099307829506e-06,-6.449884657179223279e-05
2.762698412698412653e+00,7.268280399615976848e-06,-3.107962786497996290e-05
2.763492063492063444e+00,8.782939664662920280e-06,1.137178621954145501e-05
2.764285714285714235e+00,1.027029983847575236e-05,5.266615649223564709e-05
2.765079365079365026e+00,1.180441861160991864e-05,8.230535935522625924e-05
2.765873015873015817e+00,1.333158957040804588e-05,9.232010150030467237e-05
2.766666666666666607e+00,1.470055324834324077e-05,7.952211446117987540e-05
2.767460317460317398e+00,1.571834245103370754e-05,4.651486580873624488e-05
2.768253968253968189e+00,1.622095169264764551e-05,1.144998373548739465e-06
2.769047619047618980e+00,1.614708143825733513e-05,-4.548717326457185232e-05
2.769841269841269771e+00,1.559472201927931874e-05,-8.192480564072863265e-05
2.770634920634920562e+00,1.483215500119144700e-05,-9.935282939959053170e-05
2.771428571428571352e+00,1.424076977775803016e-05,-9.385328575636781153e-05
2.772222222222222143e+00,1.419235304650400238e-05,-6.729995395642894053e-05
2.773015873015872934e+00,1.489799311843583248e-05,-2.669194806410465860e-05
2.773809523809523725e+00,1.628936640302094675e-05,1.782021000577753374e-05
2.774603174603174516e+00,1.798929254065078506e-05,5.562493444690299536e-05
2.775396825396825307e+00,1.939565347619327923e-05,7.832380372229893507e-05
2.776190476190476097e+00,1.985701015645233570e-05,8.171516967625632106e-05
2.776984126984126888e+00,1.888220263906196318e-05,6.662688429719888414e-05
2.777777777777777679e+00,1.631409498358157061e-05,3.844148585310619393e-05
2.778571428571428470e+00,1.240916111612764247e-05,5.478157397075835556e-06
2.779365079365079261e+00,7.792215223727953210e-06,-2.332704067126025284e-05
2.780158730158730052e+00,3.292678294839880680e-06,-4.082058031299635878e-05
2.780952380952380842e+00,-2.920535121427472390e-07,-4.345817678898500461e-05
2.781746031746031633e+00,-2.432440736794667423e-06,-3.206036141321325517e-05
2.782539682539682424e+00,-3.024860066447915916e-06,-1.130904548652204472e-05
2.783333333333333215e+00,-2.419916467669433460e-06,1.183040492570501033e-05
2.784126984126984006e+00,-1.312333575346833149e-06,3.026279050989141191e-05
2.784920634920634797e+00,-5.284168937324856859e-07,3.883599060097333010e-05
2.785714285714285587e+00,-7.765313720219117693e-07,3.572431154952641718e-05
2.786507936507936378e+00,-2.430974125484736360e-06,2.274631364530094283e-05
2.787301587301587169e+00,-5.404154905714787460e-06,4.576410334156098361e-06
2.788095238095237960e+00,-9.139144763135386513e-06,-1.286033294946364754e-05
2.788888888888888751e+00,-1.273150243822538588e-05,-2.428764134024949929e-05
2.789682539682539542e+00,-1.516178778683277632e-05,-2.667612841936795040e-05
2.790476190476190332e+00,-1.558674218987403194e-05,-2.005848397866206848e-05
2.791269841269841123e+00,-1.360997405613069723e-05,-7.348744905808477904e-06
2.792063492063491914e+00,-9.449036546872536987e-06,6.722972446655996571e-06
2.792857142857142705e+00,-3.940753017061047106e-06,1.718757636050374679e-05
2.793650793650793496e+00,1.627798418450707167e-06,2.042953630078754560e-05
2.794444444444444287e+00,5.824523782146878022e-06,1.532225568745563396e-05
2.795238095238095077e+00,7.436022305128778185e-06,3.576315191491515124e-06
2.796031746031745868e+00,5.794987469363546292e-06,-1.080727144996796716e-05
2.796825396825396659e+00,9.848006566303207601e-07,-2.282837215411598786e-05
2.797619047619047450e+00,-6.135868097618395657e-06,-2.813388559074803908e-05
2.798412698412698241e+00,-1.410151813910332134e-05,-2.448443781808750731e-05
2.799206349206349032e+00,-2.116373490281144750e-05,-1.253740424311716737e-05
2.799999999999999822e+00,-2.568932209322142906e-05,4.329828186620781975e-06
2.800793650793650613e+00,-2.653059223662369994e-05,2.109033548668222711e-05
2.801587301587301404e+00,-2.327598837067348220e-05,3.266220024426441410e-05
2.802380952380952195e+00,-1.632506845599306842e-05,3.550958965556010554e-05
2.803174603174602986e+00,-6.778783337594058316e-06,2.876480435989505686e-05
2.803968253968253777e+00,3.820011209944928102e-06,1.455107873673563060e-05
2.804761904761904567e+00,1.382767751723258026e-05,-2.582831378076314886e-06
2.805555555555555358e+00,2.183658065091589775e-05,-1.696520681397551582e-05
2.806349206349206149e+00,2.692448822762523065e-05,-2.348463980857852434e-05
2.807142857142856940e+00,2.876141244810940942e-05,-1.917160923126192852e-05
2.807936507936507731e+00,2.756647504843891676e-05,-4.198925042074916399e-06
2.808730158730158522e+00,2.395682094937737899e-05,1.802142075155695333e-05
2.809523809523809312e+00,1.875855463288593974e-05,4.169377593858036521e-05
2.810317460317460103e+00,1.284340383769208773e-05,6.020162500887409122e-05
2.811111111111110894e+00,7.021430752341530437e-06,6.792379695127764188e-05
2.811904761904761685e+00,1.981451714804499157e-06,6.178906929541757654e-05
2.812698412698412920e+00,-1.751237382751161241e-06,4.214380151462924362e-05
2.813492063492063711e+00,-3.866346144314901687e-06,1.270457272065586399e-05
2.814285714285714501e+00,-4.332241656676327981e-06,-2.038858447995627399e-05
2.815079365079365292e+00,-3.447778430387536786e-06,-5.016554814633694649e-05
2.815873015873016083e+00,-1.844189372413637578e-06,-7.062703300498909538e-05
2.816666666666666874e+00,-4.044795836170784862e-07,-7.823689353826256045e-05
2.817460317460317665e+00,-8.842286616401100351e-08,-7.267826058175118873e-05
2.818253968253968456e+00,-1.678016183972986758e-06,-5.669076603902863180e-05
2.819047619047619246e+00,-5.486015599169107603e-06,-3.510248609468778687e-05
2.819841269841270037e+00,-1.109726129968565193e-05,-1.338927199879985166e-05
2.820634920634920828e+00,-1.723275177894588569e-05,3.823287215501436928e-06
2.821428571428571619e+00,-2.182610684606646983e-05,1.393222989779494690e-05
2.822222222222222410e+00,-2.236786363377314316e-05,1.692286067885791741e-05
2.823015873015873201e+00,-1.650407520362379490e-05,1.519095930352098051e-05
2.823809523809523991e+00,-2.787864711030686330e-06,1.265772943250961228e-05
2.824603174603174782e+00,1.859740684638194036e-05,1.339536393967565558e-05
2.825396825396825573e+00,4.536935260149770809e-05,2.013497458829746872e-05
2.826190476190476364e+00,7.314445575210604719e-05,3.310400484946304187e-05
2.826984126984127155e+00,9.602702517547301471e-05,4.959209144993996233e-05
2.827777777777777946e+00,1.077535871934414362e-04,6.446218594153779540e-05
2.828571428571428736e+00,1.031640089779851477e-04,7.154763718908189129e-05
2.829365079365079527e+00,7.962087230316969235e-05,6.558566933475458980e-05
2.830158730158730318e+00,3.796714859069961080e-05,4.412560355821646205e-05
2.830952380952381109e+00,-1.727925854799146940e-05,8.792796172799267063e-06
2.831746031746031900e+00,-7.859102346042586972e-05,-3.457628125857839394e-05
2.832539682539682691e+00,-1.368267669015624309e-04,-7.710271709270411324e-05
2.833333333333333481e+00,-1.830389444464206787e-04,-1.091010256207560841e-04
2.834126984126984272e+00,-2.102700307727915188e-04,-1.227577101231918072e-04
2.834920634920635063e+00,-2.149101344695454846e-04,-1.144173524781295280e-04
2.835714285714285854e+00,-1.972981878213951492e-04,-8.572578218438454685e-05
2.836507936507936645e+00,-1.614486272412812297e-04,-4.325609393806479947e-05
2.837301587301587436e+00,-1.140189719374499344e-04,3.243129247081407303e-06
2.838095238095238226e+00,-6.282290913471941371e-05,4.340631283751004478e-05
2.838888888888889017e+00,-1.527641591285887880e-05,6.884782588514163390e-05
2.839682539682539808e+00,2.287339209545083673e-05,7.509133549890411989e-05
2.840476190476190599e+00,4.831207439834618827e-05,6.237732236035038421e-05
2.841269841269841390e+00,6.034652486301073435e-05,3.523198716949647852e-05
2.842063492063492181e+00,6.058951818749367269e-05,1.007911163851600216e-06
2.842857142857142971e+00,5.230240022704710277e-05,-3.214806418407041664e-05
2.843650793650793762e+00,3.959326536246153593e-05,-5.732963214864921528e-05
2.844444444444444553e+00,2.665390807048741636e-05,-7.038015410209440747e-05
2.845238095238095344e+00,1.716924964118362134e-05,-7.053284362726568288e-05
2.846031746031746135e+00,1.396139889227743343e-05,-6.010247128033845924e-05
2.846825396825396925e+00,1.885149806367334896e-05,-4.340294308462232692e-05
2.847619047619047716e+00,3.265684747953086139e-05,-2.524485847270735767e-05
2.848412698412698507e+00,5.521380298471729423e-05,-9.448427212399033900e-06
2.849206349206349298e+00,8.534464469341081314e-05,2.214293871733782972e-06
2.850000000000000089e+00,1.207612870452795588e-04,1.035359145381923722e-05
2.850793650793650880e+00,1.579877156668694929e-04,1.747564683168422407e-05
2.851587301587301670e+00,1.924430798574997502e-04,2.681284432705056335e-05
2.852380952380952461e+00,2.188249342131444832e-04,4.082602507242123584e-05
2.853174603174603252e+00,2.318588348193303245e-04,5.987063651429731190e-05
2.853968253968254043e+00,2.273540405042482899e-04,8.151288032837711848e-05
2.854761904761904834e+00,2.033588944582898788e-04,1.008097039252553689e-04
2.855555555555555625e+00,1.610884873785621368e-04,1.115696135192417054e-04
2.856349206349206415e+00,1.052599698624372447e-04,1.082833273590400150e-04
2.857142857142857206e+00,4.356895556653274805e-05,8.815878562872564070e-05
2.857936507936507997e+00,-1.472767848115312980e-05,5.259650707924431253e-05
2.858730158730158788e+00,-6.086540629108083754e-05,7.539527871789472368e-06
2.859523809523809579e+00,-8.875999067683645882e-05,-3.758275918119538046e-05
2.860317460317460370e+00,-9.671494095871808420e-05,-7.218165340742898543e-05
2.861111111111111160e+00,-8.809455691818084317e-05,-8.752453843930624105e-05
2.861904761904761951e+00,-7.064394489370572647e-05,-7.952655636419813105e-05
2.862698412698412742e+00,-5.450507739457368110e-05,-5.036236969196272858e-05
2.863492063492063533e+00,-4.938455563332561142e-05,-8.263258829112736471e-06
2.864285714285714324e+00,-6.164218707518431329e-05,3.455018697148085917e-05
2.865079365079365115e+00,-9.216552698403062793e-05,6.524066331954350370e-05
2.865873015873015905e+00,-1.357161810245182375e-04,7.406291274990106166e-05
2.866666666666666696e+00,-1.820230901308381654e-04,5.733161237803051087e-05
2.867460317460317487e+00,-2.183898843836908858e-04,1.876231413035554476e-05
2.868253968253968278e+00,-2.331412257570762237e-04,-3.127289651104058366e-05
2.869047619047619069e+00,-2.189821056915572568e-04,-7.846863997284249631e-05
2.869841269841269860e+00,-1.753397258545481212e-04,-1.086084227905966958e-04
2.870634920634920650e+00,-1.089946987264318098e-04,-1.117715375172993855e-04
2.871428571428571441e+00,-3.273782278374087382e-05,-8.546874998429182199e-05
2.872222222222222232e+00,3.768092114994015733e-05,-3.570223246576823819e-05
2.873015873015873023e+00,8.754836975183275818e-05,2.445132736091068084e-05
2.873809523809523814e+00,1.070596165087124682e-04,7.838191055571861452e-05
2.874603174603174605e+00,9.399493365180634785e-05,1.106165093966325272e-04
2.875396825396825395e+00,5.445136858807504384e-05,1.112838776206075597e-04
2.876190476190476186e+00,1.408880093420497509e-06,7.907796413358431824e-05
2.876984126984126977e+00,-4.851808262907118645e-05,2.182168966273303310e-05
2.877777777777777768e+00,-7.933199970437719920e-05,-4.560505730347545614e-05
2.878571428571428559e+00,-7.983629633285074020e-05,-1.054402213251245891e-04
2.879365079365079350e+00,-4.666817386032280710e-05,-1.421187668601393513e-04
2.880158730158730140e+00,1.465689852893131100e-05,-1.467234498781820140e-04
2.880952380952380931e+00,9.103903701953592199e-05,-1.194322613918369179e-04
2.881746031746031722e+00,1.651317484652457292e-04,-6.922517067353026958e-05
2.882539682539682513e+00,2.198024362467173329e-04,-1.100352624638698849e-05
2.883333333333333304e+00,2.424211682010572646e-04,3.892253426953011741e-05
2.884126984126984095e+00,2.277432015776864865e-04,6.758722797022017714e-05
2.884920634920634885e+00,1.786368233245104584e-04,6.899182426375325740e-05
2.885714285714285676e+00,1.046164047358192842e-04,4.562076652150255516e-05
2.886507936507936467e+00,1.879743664520138342e-05,7.487189218923831446e-06
2.887301587301587258e+00,-6.570745189757052425e-05,-3.098195472739679744e-05
2.888095238095238049e+00,-1.388657157447549474e-04,-5.531756258618239838e-05
2.888888888888888840e+00,-1.954371564155061095e-04,-5.536830626897093445e-05
2.889682539682539630e+00,-2.349544264624141027e-04,-2.837146847192748990e-05
2.890476190476190421e+00,-2.601638210114363492e-04,2.016224849407059744e-05
2.891269841269841212e+00,-2.746047676938103929e-04,7.799183973988470340e-05
2.892063492063492003e+00,-2.802675137313423025e-04,1.296497722221413666e-04
2.892857142857142794e+00,-2.762075490194429656e-04,1.608934396606283312e-04
2.893650793650793585e+00,-2.586271199687931893e-04,1.628446795237639059e-04
2.894444444444444375e+00,-2.223975319915738320e-04,1.346515086493274733e-04
2.895238095238095166e+00,-1.634915379420244052e-04,8.390193778335212091e-05
2.896031746031745957e+00,-8.149060590362701558e-05,2.461621047841907632e-05
2.896825396825396748e+00,1.869959799004482942e-05,-2.669662700121377960e-05
2.897619047619047539e+00,1.265732150183604800e-04,-5.586081234579075685e-05
2.898412698412698330e+00,2.274438272611553819e-04,-5.535221349706011327e-05
2.899206349206349120e+00,3.053441622052820116e-04,-2.678913065358855153e-05
2.899999999999999911e+00,3.467389057661696139e-04,1.923944949889588193e-05
2.900793650793650702e+00,3.440730108807536791e-04,6.604413446618314927e-05
2.901587301587301493e+00,2.981280277106641017e-04,9.559803517911091473e-05
2.902380952380952284e+00,2.184239914018131618e-04,9.379507514038789543e-05
2.903174603174603075e+00,1.214210331229333665e-04,5.465745679785603990e-05
2.903968253968253865e+00,2.688422628505055133e-05,-1.773013138147332211e-05
2.904761904761904656e+00,-4.670228806815415702e-05,-1.101047377868947304e-04
2.905555555555555447e+00,-8.648974614654380698e-05,-2.034503476224802925e-04
2.906349206349206238e+00,-8.821697362086947049e-05,-2.779453949710870690e-04
2.907142857142857029e+00,-5.692516700751142528e-05,-3.179666525459152906e-04
2.907936507936507819e+00,-5.196021035906487102e-06,-3.156978641099189640e-04
2.908730158730158610e+00,5.062269459291539499e-05,-2.723969023859527981e-04
2.909523809523809401e+00,9.513964787662022979e-05,-1.971809571352745808e-04
2.910317460317460192e+00,1.182255396645367053e-04,-1.039614264304358196e-04
2.911111111111110983e+00,1.176448770898257226e-04,-7.623020184259120994e-06
2.911904761904761774e+00,9.924913625103360618e-05,7.939769413887159792e-05
2.912698412698412564e+00,7.468812893409629663e-05,1.492585733786618376e-04
2.913492063492063355e+00,5.732313457278705003e-05,1.991913909535325794e-04
2.914285714285714146e+00,5.754961624391363273e-05,2.304544432563549871e-04
2.915079365079364937e+00,7.892650317597906928e-05,2.463302111909725957e-04
2.915873015873015728e+00,1.163177144541444101e-04,2.499651374177409196e-04
2.916666666666666519e+00,1.567161368809015737e-04,2.428179426814649415e-04
2.917460317460317309e+00,1.826582487883959295e-04,2.242144748223870887e-04
2.918253968253968100e+00,1.773441327901473827e-04,1.920906623371258857e-04
2.919047619047618891e+00,1.299951189844647417e-04,1.445868973455145595e-04
2.919841269841269682e+00,3.982588450086993866e-05,8.187913589417990820e-05
2.920634920634920473e+00,-8.263237483152914152e-05,7.562984271198140976e-06
2.921428571428571264e+00,-2.173511992349328186e-04,-7.096387598206558948e-05
2.922222222222222054e+00,-3.393392546460648391e-04,-1.433913387063609284e-04
2.923015873015872845e+00,-4.246833486286625322e-04,-1.985444868233929197e-04
2.923809523809523636e+00,-4.564605899615408868e-04,-2.270826772169455045e-04
2.924603174603174427e+00,-4.289159218086930530e-04,-2.240739974933495914e-04
2.925396825396825218e+00,-3.487753267451671716e-04,-1.906349052530628230e-04
2.926190476190476009e+00,-2.333619012839231353e-04,-1.340619084636511375e-04
2.926984126984126799e+00,-1.060729611683917549e-04,-6.632587308788857991e-05
2.927777777777777590e+00,9.505124298338306338e-06,-1.296560816272689082e-06
2.928571428571428381e+00,9.523306746636296888e-05,4.856539038499002050e-05
2.929365079365079172e+00,1.423260738657301208e-04,7.517921220792243755e-05
2.930158730158729963e+00,1.525862904341815525e-04,7.670960398889268672e-05
2.930952380952380754e+00,1.367723352188096174e-04,5.783629992988873213e-05
2.931746031746031544e+00,1.106783137683728016e-04,2.832719129908204902e-05
2.932539682539682335e+00,9.006506788019246000e-05,2.463392722625287304e-07
2.933333333333333126e+00,8.585151185471269649e-05,-1.549599129218642827e-05
2.934126984126983917e+00,1.008921548182524654e-04,-1.232501834960176536e-05
2.934920634920634708e+00,1.292513117894573840e-04,9.995022075694215232e-06
2.935714285714285499e+00,1.582082322501553195e-04,4.516057952139907768e-05
2.936507936507936289e+00,1.724426072878555282e-04,8.205714624343822105e-05
2.937301587301587080e+00,1.591772562564328054e-04,1.079778351552474212e-04
2.938095238095238315e+00,1.127207672122679233e-04,1.124493032154408675e-04
2.938888888888889106e+00,3.699416287689057575e-05,9.058684554050665976e-05
2.939682539682539897e+00,-5.478619408026973213e-05,4.499639971480526198e-05
2.940476190476190688e+00,-1.432523126029451740e-04,-1.440102500641174624e-05
2.941269841269841478e+00,-2.080021426641472516e-04,-7.270437619091343602e-05
2.942063492063492269e+00,-2.332527482587479131e-04,-1.139964322594864217e-04
2.942857142857143060e+00,-2.124113153653694487e-04,-1.258786844747133754e-04
2.943650793650793851e+00,-1.502218621747818149e-04,-1.032600018243497099e-04
2.944444444444444642e+00,-6.181209234020972152e-05,-5.023181556822439221e-05
2.945238095238095433e+00,3.114961036393800375e-05,2.058621162566534149e-05
2.946031746031746223e+00,1.061257929280976707e-04,9.109237341109764413e-05
2.946825396825397014e+00,1.456045955059437618e-04,1.423271938021220635e-04
2.947619047619047805e+00,1.415633442525600653e-04,1.594548222245229863e-04
2.948412698412698596e+00,9.730195527181435139e-05,1.357911210327915786e-04
2.949206349206349387e+00,2.622689657937173562e-05,7.478054941930083882e-05
2.950000000000000178e+00,-5.199033604089982043e-05,-1.068533482666708240e-05
2.950793650793650968e+00,-1.167751397096451174e-04,-1.015152073455986506e-04
2.951587301587301759e+00,-1.520546622132616210e-04,-1.773893951701872819e-04
2.952380952380952550e+00,-1.502449426434070774e-04,-2.220475147532603179e-04
2.953174603174603341e+00,-1.137737009260746785e-04,-2.273359181719512617e-04
2.953968253968254132e+00,-5.380695959047232860e-05,-1.948450212619332630e-04
2.954761904761904923e+00,1.333985581000938212e-05,-1.347710109768628659e-04
2.955555555555555713e+00,7.096779260512277006e-05,-6.252825799496493202e-05
2.956349206349206504e+00,1.065058707531756971e-04,5.731164318765931047e-06
2.957142857142857295e+00,1.144967805906593132e-04,5.734213361231375942e-05
2.957936507936508086e+00,9.732555760634727939e-05,8.596555447607912676e-05
2.958730158730158877e+00,6.368021757134775199e-05,9.240306858360472703e-05
2.959523809523809668e+00,2.539431685995310219e-05,8.334810162087655152e-05
2.960317460317460458e+00,-6.266810493001247388e-06,6.859491172940588124e-05
2.961111111111111249e+00,-2.374613484691880707e-05,5.762264410282517827e-05
2.961904761904762040e+00,-2.489576354399453879e-05,5.659592132967391240e-05
2.962698412698412831e+00,-1.286828385888646889e-05,6.663353963627928977e-05
2.963492063492063622e+00,5.604215180317235085e-06,8.376254853393377202e-05
2.964285714285714413e+00,2.287734974948575249e-05,1.004609866133866075e-04
2.965079365079365203e+00,3.310550107728086645e-05,1.082604568779373078e-04
2.965873015873015994e+00,3.414602663514597412e-05,1.006192690930650575e-04
2.966666666666666785e+00,2.810515127661276368e-05,7.522204085670723770e-05
2.967460317460317576e+00,2.040928216726770793e-05,3.502202026509866536e-05
2.968253968253968367e+00,1.772500808937507353e-05,-1.230864543372242862e-05
2.969047619047619158e+00,2.538446089525178980e-05,-5.639871940723741305e-05
2.969841269841269948e+00,4.512503611280478937e-05,-8.710203273465971677e-05
2.970634920634920739e+00,7.388527067203455134e-05,-9.746174852519707361e-05
2.971428571428571530e+00,1.041164425870869244e-04,-8.580806116707418861e-05
2.972222222222222321e+00,1.256298104787541639e-04,-5.633356539798486408e-05
2.973015873015873112e+00,1.285146805368719825e-04,-1.795691764027438066e-05
2.973809523809523903e+00,1.062828606495631152e-04,1.819597927531810771e-05
2.974603174603174693e+00,5.826440190961724384e-05,4.195708035481600004e-05
2.975396825396825484e+00,-9.533858126858481695e-06,4.700317782478793211e-05
2.976190476190476275e+00,-8.544795671085348039e-05,3.261510573407527531e-05
2.976984126984127066e+00,-1.548412572113611952e-04,3.781076569694014455e-06
2.977777777777777857e+00,-2.037487588975333446e-04,-3.039626537123859615e-05
2.978571428571428648e+00,-2.224777728833542178e-04,-5.951070595258226454e-05
2.979365079365079438e+00,-2.081386132384601122e-04,-7.501336151463400574e-05
2.980158730158730229e+00,-1.653599381661144700e-04,-7.273656173021108217e-05
2.980952380952381020e+00,-1.049695625792411717e-04,-5.400458092038618334e-05
2.981746031746031811e+00,-4.103192174571297358e-05,-2.502586195227796023e-05
2.982539682539682602e+00,1.288249957065320622e-05,5.186346451971087540e-06
2.983333333333333393e+00,4.712220661785582751e-05,2.767734953456795890e-05
2.984126984126984183e+00,5.813231877744385261e-05,3.630445258611146787e-05
2.984920634920634974e+00,4.884011297294951060e-05,2.954909685363989617e-05
2.985714285714285765e+00,2.723657053077703909e-05,1.085517454965833747e-05
2.986507936507936556e+00,3.656155522257109280e-06,-1.258820671037664507e-05
2.987301587301587347e+00,-1.239200736683932573e-05,-3.222363079165227603e-05
2.988095238095238138e+00,-1.490317305881257500e-05,-4.090302279213906423e-05
2.988888888888888928e+00,-2.832059363770653057e-06,-3.518121969283854084e-05
2.989682539682539719e+00,1.999402975451293569e-05,-1.640850029051772231e-05
2.990476190476190510e+00,4.634640727839821491e-05,9.690129538374080224e-06
2.991269841269841301e+00,6.791506680957381300e-05,3.478050244540922153e-05
2.992063492063492092e+00,7.776013547750527304e-05,5.047709470654395607e-05
2.992857142857142883e+00,7.221102909069010629e-05,5.094309195985537658e-05
2.993650793650793673e+00,5.173939839106760622e-05,3.478158487775817506e-05
2.994444444444444464e+00,2.064417633871556919e-05,5.647483587808337517e-06
2.995238095238095255e+00,-1.428432169835982416e-05,-2.864931076060965825e-05
2.996031746031746046e+00,-4.568908556688201257e-05,-5.833882300160081854e-05
2.996825396825396837e+00,-6.758745016700794749e-05,-7.455242163270039306e-05
2.997619047619047628e+00,-7.677811698475134274e-05,-7.196913987794133043e-05
2.998412698412698418e+00,-7.334891605826040551e-05,-5.041083875947681761e-05
2.999206349206349209e+00,-6.021433766736555485e-05,-1.490282555807128844e-05
3.000000000000000000e+00,-4.191270908681875003e-05,2.576953779856867551e-05
3.000793650793650791e+00,-2.309451876540752271e-05,6.152565216339740044e-05
3.001587301587301582e+00,-7.179432529137305711e-06,8.375126546542679973e-05
3.002380952380952372e+00,4.441344285125085343e-06,8.761047069332147388e-05
3.003174603174603163e+00,1.247787235862944828e-05,7.330424917845831825e-05
3.003968253968253954e+00,1.913926300646223830e-05,4.593638106255392274e-05
3.004761904761904745e+00,2.710444088478073369e-05,1.400353441534976347e-05
3.005555555555555536e+00,3.842653623620707095e-05,-1.308992409300353199e-05
3.006349206349206327e+00,5.372650763778171162e-05,-2.778697075422465314e-05
3.007142857142857117e+00,7.191450074568637399e-05,-2.658588067673079764e-05
3.007936507936507908e+00,9.049389454186678469e-05,-1.102980500968826563e-05
3.008730158730158699e+00,1.063191577507977589e-04,1.282673686087831285e-05
3.009523809523809490e+00,1.165511392528376978e-04,3.632016087994562086e-05
3.010317460317460281e+00,1.195095001560714904e-04,5.089320694128545320e-05
3.011111111111111072e+00,1.151620253433073337e-04,5.082897505217104519e-05
3.011904761904761862e+00,1.050994023104445658e-04,3.518372113321284862e-05
3.012698412698412653e+00,9.199377501168458740e-05,8.298013164619853527e-06
3.013492063492063444e+00,7.869085633648478903e-05,-2.134130314459401964e-05
3.014285714285714235e+00,6.720058451552794613e-05,-4.361975941248597000e-05
3.015079365079365026e+00,5.790397019366452666e-05,-4.997177889102423493e-05
3.015873015873015817e+00,4.926724098282790490e-05,-3.624417330413693804e-05
3.016666666666666607e+00,3.823898913990140381e-05,-4.343851139071958763e-06
3.017460317460317398e+00,2.130939031418335709e-05,3.786736206916462987e-05
3.018253968253968189e+00,-4.028161650745772954e-06,7.844897888891700570e-05
3.019047619047618980e+00,-3.788027085595224665e-05,1.045495248704776111e-04
3.019841269841269771e+00,-7.717187200844500888e-05,1.060267821444708578e-04
3.020634920634920562e+00,-1.159106310280977694e-04,7.852138423459183235e-05
3.021428571428571352e+00,-1.466005860272137206e-04,2.506523993154540395e-05
3.022222222222222143e+00,-1.624700829669033480e-04,-4.434523154562667626e-05
3.023015873015872934e+00,-1.598023130207803968e-04,-1.152004012905882510e-04
3.023809523809523725e+00,-1.395130876340693439e-04,-1.722803321904149839e-04
3.024603174603174516e+00,-1.073071364698650659e-04,-2.036489259005759491e-04
3.025396825396825307e+00,-7.222590956044095593e-05,-2.036095701317617830e-04
3.026190476190476097e+00,-4.399456216632053327e-05,-1.737943324712463988e-04
3.026984126984126888e+00,-3.002851867876448697e-05,-1.222290829334059226e-04
3.027777777777777679e+00,-3.308421623651930149e-05,-6.084185859452569291e-05
3.028571428571428470e+00,-5.031273536375360935e-05,-2.249800480943746835e-06
3.029365079365079261e+00,-7.401707631997532966e-05,4.326736256608610607e-05
3.030158730158730052e+00,-9.389193913373251757e-05,6.986306321374789426e-05
3.030952380952380842e+00,-1.000936463480127690e-04,7.686387759369496574e-05
3.031746031746031633e+00,-8.625900431898106077e-05,6.811787623609688981e-05
3.032539682539682424e+00,-5.161425211699103210e-05,5.028457616259335186e-05
3.033333333333333215e+00,-1.568867392819050798e-06,3.065828554694945862e-05
3.034126984126984006e+00,5.340089701914827488e-05,1.518635786576057791e-05
3.034920634920634797e+00,1.003145426880639634e-04,7.199526095227832974e-06
3.035714285714285587e+00,1.270399978601356272e-04,7.081250193162160569e-06
3.036507936507936378e+00,1.255567154347548978e-04,1.279879380288872511e-05
3.037301587301587169e+00,9.425248010976298595e-05,2.100704683319948616e-05
3.038095238095237960e+00,3.861370949036217650e-05,2.834512353030638654e-05
3.038888888888888751e+00,-2.990906287803581074e-05,3.255122774772501712e-05
3.039682539682539542e+00,-9.657875393968512012e-05,3.309768962834480508e-05
3.040476190476190332e+00,-1.468796737445463333e-04,3.118639085833077714e-05
3.041269841269841123e+00,-1.699149027927663116e-04,2.913196970162341119e-05
3.042063492063491914e+00,-1.607984907224359133e-04,2.935415264877645929e-05
3.042857142857142705e+00,-1.214611155160930643e-04,3.333327412936548233e-05
3.043650793650793496e+00,-5.977201054115875565e-05,4.089547749333256676e-05
3.044444444444444287e+00,1.263599053843345725e-05,5.007692037417003119e-05
3.045238095238095077e+00,8.314198338379202228e-05,5.762144852931202197e-05
3.046031746031745868e+00,1.407647500669995957e-04,5.997189116447493621e-05
3.046825396825396659e+00,1.780614090931864114e-04,5.447320418250711587e-05
3.047619047619047450e+00,1.919976493873413841e-04,4.042909741642518903e-05
3.048412698412698241e+00,1.837859816097195907e-04,1.965265651420388201e-05
3.049206349206349032e+00,1.579254386500913781e-04,-3.746217160040586655e-06
3.049999999999999822e+00,1.208102689485670883e-04,-2.437570376513592616e-05
3.050793650793650613e+00,7.929137760409059777e-05,-3.713297587526785882e-05
3.051587301587301404e+00,3.948902979608450521e-05,-3.884296565067037269e-05
3.052380952380952195e+00,6.013491796286458490e-06,-2.940260399203441707e-05
3.053174603174602986e+00,-1.838797663913039948e-05,-1.201795985968901571e-05
3.053968253968253777e+00,-3.282588103839931872e-05,7.567704741963397197e-06
3.054761904761904567e+00,-3.799928157540403165e-05,2.262872562482990050e-05
3.055555555555555358e+00,-3.575222145038129968e-05,2.734336363718148521e-05
3.056349206349206149e+00,-2.854329484668451707e-05,1.848081932233684949e-05
3.057142857142856940e+00,-1.892257733548887729e-05,-3.584475488559647973e-06
3.057936507936507731e+00,-9.107696910007597114e-06,-3.482994132354083828e-05
3.058730158730158522e+00,-7.224624766427027730e-07,-6.855116673825482356e-05
3.059523809523809312e+00,5.290066360913769316e-06,-9.708605179539177234e-05
3.060317460317460103e+00,8.620701442530274221e-06,-1.138096006517274602e-04
3.061111111111110894e+00,9.480034746397486640e-06,-1.148180570677186443e-04
3.061904761904761685e+00,8.471306303637954929e-06,-9.982248159006317813e-05
3.062698412698412920e+00,6.468779603234062760e-06,-7.203763201136436029e-05
3.063492063492063711e+00,4.489843692904883048e-06,-3.716677177488178496e-05
3.064285714285714501e+00,3.540784628256534283e-06,-1.822706974931500584e-06
3.065079365079365292e+00,4.427604849372147190e-06,2.816799099251672214e-05
3.065873015873016083e+00,7.545866772308227873e-06,4.914434581679067213e-05
3.066666666666666874e+00,1.269153492270763991e-05,6.033811601169942367e-05
3.067460317460317665e+00,1.895960768803942140e-05,6.377111686679835312e-05
3.068253968253968456e+00,2.480305404991646194e-05,6.335156318232939556e-05
3.069047619047619246e+00,2.829677038417997332e-05,6.342095934283897331e-05
3.069841269841270037e+00,2.758958463743612217e-05,6.717727021134967146e-05
3.070634920634920828e+00,2.144991079595437713e-05,7.545487670603567604e-05
3.071428571428571619e+00,9.749832624290126563e-06,8.624633264103318138e-05
3.072222222222222410e+00,-6.278815165331511525e-06,9.513801843009722040e-05
3.073015873015873201e+00,-2.413150114560231446e-05,9.657303929511375153e-05
3.073809523809523991e+00,-4.048076006488219962e-05,8.561544311707695279e-05
3.074603174603174782e+00,-5.190447804566870020e-05,5.971829963103549797e-05
3.075396825396825573e+00,-5.572691451376367522e-05,1.994480201900824401e-05
3.076190476190476364e+00,-5.076376069969105174e-05,-2.879848040386841695e-05
3.076984126984127155e+00,-3.776791820760002055e-05,-7.868281151629868899e-05
3.077777777777777946e+00,-1.943109546296614275e-05,-1.208281750851404260e-04
3.078571428571428736e+00,1.000959944824111011e-07,-1.475792858575234205e-04
3.079365079365079527e+00,1.611151320989536611e-05,-1.544855962208263947e-04
3.080158730158730318e+00,2.442388857445713384e-05,-1.413969162976475252e-04
3.080952380952381109e+00,2.246385755396920967e-05,-1.124072723209900543e-04
3.081746031746031900e+00,1.005677280343888559e-05,-7.473808918996829235e-05
3.082539682539682691e+00,-1.026139428933747281e-05,-3.690627891016732301e-05
3.083333333333333481e+00,-3.354106148433636973e-05,-6.643936651131201276e-06
3.084126984126984272e+00,-5.334637903302149535e-05,1.093945914213551199e-05
3.084920634920635063e+00,-6.319167648264814975e-05,1.451331584481995321e-05
3.085714285714285854e+00,-5.820602468174592326e-05,6.702036773414319223e-06
3.086507936507936645e+00,-3.661810731338438935e-05,-6.783503951081792863e-06
3.087301587301587436e+00,-6.223201057322965513e-07,-1.883773615623802171e-05
3.088095238095238226e+00,4.370594107072061366e-05,-2.300705843761431427e-05
3.088888888888889017e+00,8.754042051536306925e-05,-1.531321205901757678e-05
3.089682539682539808e+00,1.212735088549061308e-04,4.651120344050750328e-06
3.090476190476190599e+00,1.368528238214069496e-04,3.363755236060863766e-05
3.091269841269841390e+00,1.298633871222885168e-04,6.566708453470309682e-05
3.092063492063492181e+00,1.007480043245202663e-04,9.369360218765028904e-05
3.092857142857142971e+00,5.475306689363994208e-05,1.115306199372685100e-04
3.093650793650793762e+00,5.439093658303291175e-07,1.154822990175632225e-04
3.094444444444444553e+00,-5.213200043295095185e-05,1.052020240556436262e-04
3.095238095238095344e+00,-9.500033227723429698e-05,8.354666178969390319e-05
3.096031746031746135e+00,-1.231904936094173016e-04,5.552733533969492853e-05
3.096825396825396925e+00,-1.359205965876023579e-04,2.675242483880999937e-05
3.097619047619047716e+00,-1.358042968267243083e-04,1.888503994536650309e-06
3.098412698412698507e+00,-1.271896099137418443e-04,-1.642101669318646952e-05
3.099206349206349298e+00,-1.142787268974101625e-04,-2.796190657641503178e-05
3.100000000000000089e+00,-9.976331055727064143e-05,-3.467042180125737933e-05
3.100793650793650880e+00,-8.439014874987492236e-05,-3.977906330661201402e-05
3.101587301587301670e+00,-6.744101308921088809e-05,-4.657648212482368903e-05
3.102380952380952461e+00,-4.776930681688793228e-05,-5.708430960586568202e-05
3.103174603174603252e+00,-2.489544853811362122e-05,-7.106736536982332026e-05
3.103968253968254043e+00,2.710650963507744519e-07,-8.579003026860221705e-05
3.104761904761904834e+00,2.531334515506551542e-05,-9.672383367522824566e-05
3.105555555555555625e+00,4.679017413938443522e-05,-9.903936930052050088e-05
3.106349206349206415e+00,6.113807239757237629e-05,-8.935446451268582878e-05
3.107142857142857206e+00,6.571451318170797235e-05,-6.707313989170264590e-05
3.107936507936507997e+00,5.968780317681994670e-05,-3.482476424672945628e-05
3.108730158730158788e+00,4.452744169582565563e-05,2.116812861624542554e-06
3.109523809523809579e+00,2.394616543316949365e-05,3.720131597676047490e-05
3.110317460317460370e+00,3.269127537462591808e-06,6.432017444877280411e-05
3.111111111111111160e+00,-1.166620123004104448e-05,7.938600460011261046e-05
3.111904761904761951e+00,-1.586197683360878889e-05,8.134589777587083114e-05
3.112698412698412742e+00,-6.465518512569077813e-06,7.235414611798485045e-05
3.113492063492063533e+00,1.629500729157828308e-05,5.705658903590505758e-05
3.114285714285714324e+00,4.881853081541953193e-05,4.119041736388855699e-05
3.115079365079365115e+00,8.462723195091206494e-05,2.990532425902517785e-05
3.115873015873015905e+00,1.156072916675854757e-04,2.629262229397957913e-05
3.116666666666666696e+00,1.337537610819172610e-04,3.053795736753070651e-05
3.117460317460317487e+00,1.330366128850462128e-04,3.992557908825484147e-05
3.118253968253968278e+00,1.109560844886363422e-04,4.969441466477444351e-05
3.119047619047619069e+00,6.939845815464730614e-05,5.453887897692851974e-05
3.119841269841269860e+00,1.452397145876637063e-05,5.037882326959869047e-05
3.120634920634920650e+00,-4.438358704618921907e-05,3.590236306055846044e-05
3.121428571428571441e+00,-9.690975331350645328e-05,1.335720477647188306e-05
3.122222222222222232e+00,-1.338755654106080510e-04,-1.179387445280338950e-05
3.123015873015873023e+00,-1.494394987253349185e-04,-3.239598450494091304e-05
3.123809523809523814e+00,-1.423352080119103208e-04,-4.189451506553591270e-05
3.124603174603174605e+00,-1.159040245125325815e-04,-3.663510984469503019e-05
3.125396825396825395e+00,-7.696438594013334396e-05,-1.735066575425504059e-05
3.126190476190476186e+00,-3.390883605713457608e-05,1.071155790722428750e-05
3.126984126984126977e+00,5.396214850678670301e-06,3.910247281498970830e-05
3.127777777777777768e+00,3.534890522551700971e-05,5.854366471337346033e-05
3.128571428571428559e+00,5.359683069781623880e-05,6.166984737254812838e-05
3.129365079365079350e+00,6.111122650068027701e-05,4.534268532198319773e-05
3.130158730158730140e+00,6.142340104205385246e-05,1.183357064679209112e-05
3.130952380952380931e+00,5.927981203794651429e-05,-3.154200462565376616e-05
3.131746031746031722e+00,5.908626316572652526e-05,-7.432289609402798424e-05
3.132539682539682513e+00,6.354261302004147647e-05,-1.058317530404650645e-04
3.133333333333333304e+00,7.281214235355600614e-05,-1.182569485152872290e-04
3.134126984126984095e+00,8.443548442725112098e-05,-1.089205466990410390e-04
3.134920634920634885e+00,9.401732382627211700e-05,-8.103550241105630632e-05
3.135714285714285676e+00,9.652383432488046138e-05,-4.275843474759012062e-05
3.136507936507936467e+00,8.786553209515579155e-05,-4.852847241508379955e-06
3.137301587301587258e+00,6.633536646041907894e-05,2.236785250252555052e-05
3.138095238095238049e+00,3.346309503948955810e-05,3.198289043503545187e-05
3.138888888888888840e+00,-6.030175429811270374e-06,2.247238759529939330e-05
3.139682539682539630e+00,-4.524214860620748367e-05,-1.820895865421826790e-06
3.140476190476190421e+00,-7.681858192544014925e-05,-3.198200133054553677e-05
3.141269841269841212e+00,-9.490251193400960886e-05,-5.723573437837700152e-05
3.142063492063492003e+00,-9.671463357319641204e-05,-6.825474768603851728e-05
3.142857142857142794e+00,-8.329081538969788348e-05,-6.000231507299200797e-05
3.143650793650793585e+00,-5.917478802976868342e-05,-3.320709112927167946e-05
3.144444444444444375e+00,-3.118407927360875308e-05,5.938516687789966697e-06
3.145238095238095166e+00,-6.622747243930018127e-06,4.766977649843735424e-05
3.146031746031745957e+00,8.559426756752588583e-06,8.149564804770916882e-05
3.146825396825396748e+00,1.117437295303051917e-05,9.917021436790829944e-05
3.147619047619047539e+00,1.414910872138708046e-06,9.699207888122863880e-05
3.148412698412698330e+00,-1.744948170868184935e-05,7.682731785865370598e-05
3.149206349206349120e+00,-4.017702003498669564e-05,4.556781333200946797e-05
3.149999999999999911e+00,-6.110637649137788967e-05,1.314077731493101723e-05
3.150793650793650702e+00,-7.568066044753381423e-05,-1.040141826421583694e-05
3.151587301587301493e+00,-8.149326137738207318e-05,-1.788483565920554030e-05
3.152380952380952284e+00,-7.858572874391015406e-05,-7.225313275862546428e-06
3.153174603174603075e+00,-6.899068493652717507e-05,1.781842468335287415e-05
3.153968253968253865e+00,-5.575108888857523371e-05,4.859199826007674287e-05
3.154761904761904656e+00,-4.177639508115369305e-05,7.394981250798302009e-05
3.155555555555555447e+00,-2.889716503923830593e-05,8.345933383831562224e-05
3.156349206349206238e+00,-1.738345877743765637e-05,7.050199718259988861e-05
3.157142857142857029e+00,-6.040269169012257280e-06,3.436365720235138709e-05
3.157936507936507819e+00,7.177680635840044993e-06,-1.932668700164435208e-05
3.158730158730158610e+00,2.423929337664007893e-05,-7.997199162796458038e-05
3.159523809523809401e+00,4.609300748458243285e-05,-1.348027185505538299e-04
3.160317460317460192e+00,7.199769158853857546e-05,-1.722480267839673050e-04
3.161111111111110983e+00,9.933595812128701778e-05,-1.848636072484272238e-04
3.161904761904761774e+00,1.239830634039022815e-04,-1.709824267173515550e-04
3.162698412698412564e+00,1.411616010032644886e-04,-1.347149600828727388e-04
3.163492063492063355e+00,1.465878927458026551e-04,-8.445150055137993518e-05
3.164285714285714146e+00,1.376245533196739155e-04,-3.041778693101728422e-05
3.165079365079364937e+00,1.141159245783829448e-04,1.798106033665456313e-05
3.165873015873015728e+00,7.863391693819555585e-05,5.432310697655203500e-05
3.166666666666666519e+00,3.601889114016602655e-05,7.632954745071813391e-05
3.167460317460317309e+00,-7.676572343697332215e-06,8.580600971878216002e-05
3.168253968253968100e+00,-4.653464930853469940e-05,8.746729578026336772e-05
3.169047619047618891e+00,-7.601656604241747224e-05,8.702674887688338721e-05
3.169841269841269682e+00,-9.376761170527680306e-05,8.911364481254920641e-05
3.170634920634920473e+00,-9.981271996242867663e-05,9.561988099278751830e-05
3.171428571428571264e+00,-9.617010956168478000e-05,1.049559606290238512e-04
3.172222222222222054e+00,-8.606104840172409075e-05,1.124495682957928235e-04
3.173015873015872845e+00,-7.296214855575261656e-05,1.118130235380996056e-04
3.173809523809523636e+00,-5.974599075623656459e-05,9.730290858764649670e-05
3.174603174603174427e+00,-4.811174414921462759e-05,6.595660144044718579e-05
3.175396825396825218e+00,-3.842825072502714407e-05,1.919201577570315377e-05
3.176190476190476009e+00,-3.000082657833257863e-05,-3.682565482532636897e-05
3.176984126984126799e+00,-2.165077019733454379e-05,-9.229820756226026965e-05
3.177777777777777590e+00,-1.240181234267835955e-05,-1.361510277118734230e-04
3.178571428571428381e+00,-2.037326298082550836e-06,-1.589485575078404133e-04
3.179365079365079172e+00,8.658792473178224326e-06,-1.554738608540592274e-04
3.180158730158729963e+00,1.805345175452967356e-05,-1.261970283037430686e-04
3.180952380952380754e+00,2.415329830314154761e-05,-7.724117564202085350e-05
3.181746031746031544e+00,2.527101627238467716e-05,-1.891752458766652776e-05
3.182539682539682335e+00,2.065360041689166793e-05,3.672983623519221008e-05
3.183333333333333126e+00,1.086243580398980282e-05,7.872566952592089957e-05
3.184126984126983917e+00,-2.236305449870234292e-06,9.962586181363383947e-05
3.184920634920634708e+00,-1.589033058413811308e-05,9.705334935323997483e-05
3.185714285714285499e+00,-2.716754018081973476e-05,7.394827740140596790e-05
3.186507936507936289e+00,-3.372198440515235507e-05,3.750272091406010497e-05
3.187301587301587080e+00,-3.436607034601330533e-05,-2.888250087815086931e-06
3.188095238095238315e+00,-2.926743464631773311e-05,-3.805234556929389789e-05
3.188888888888889106e+00,-1.972959849616164057e-05,-6.116324175446397884e-05
3.189682539682539897e+00,-7.663054884907499010e-06,-6.904124991045670044e-05
3.190476190476190688e+00,5.052780101023585481e-06,-6.240886510039598514e-05
3.191269841269841478e+00,1.710158219270652423e-05,-4.516986478048607226e-05
3.192063492063492269e+00,2.799246815300523896e-05,-2.298992391625352441e-05
3.192857142857143060e+00,3.797952226168855021e-05,-1.593232326418892945e-06
3.193650793650793851e+00,4.767212560569815177e-05,1.474337152233012853e-05
3.194444444444444642e+00,5.747345214965567160e-05,2.407199704689941575e-05
3.195238095238095433e+00,6.705882617943779078e-05,2.681727042085908002e-05
3.196031746031746223e+00,7.511771745254587900e-05,2.507355062161415932e-05
3.196825396825397014e+00,7.951095943955082703e-05,2.150160125119402442e-05
3.197619047619047805e+00,7.785025258274642067e-05,1.826019858297914323e-05
3.198412698412698596e+00,6.834345052554066755e-05,1.632414297875259466e-05
3.199206349206349387e+00,5.063627232190070083e-05,1.535707697369621800e-05
3.200000000000000178e+00,2.636215842038322580e-05,1.411370158813383323e-05
3.200793650793650968e+00,-8.167659225597585513e-07,1.119485122947214142e-05
3.201587301587301759e+00,-2.576471073462907800e-05,5.887579375051536455e-06
3.202380952380952550e+00,-4.295287224680635624e-05,-1.205866831105206180e-06
3.203174603174603341e+00,-4.783786643284115966e-05,-8.004635882795478201e-06
3.203968253968254132e+00,-3.818908045296367766e-05,-1.138501910851369469e-05
3.204761904761904923e+00,-1.497788232960050649e-05,-8.158385027975336944e-06
3.205555555555555713e+00,1.747923419360969529e-05,3.677127919285008026e-06
3.206349206349206504e+00,5.224130716993286445e-05,2.382983289453392912e-05
3.207142857142857295e+00,8.120116144127580452e-05,4.918221012256038759e-05
3.207936507936508086e+00,9.694165658589212059e-05,7.410992652689764901e-05
3.208730158730158877e+00,9.453349013714762233e-05,9.166624650391969292e-05
3.209523809523809668e+00,7.281717499202192167e-05,9.537215985331914730e-05
3.210317460317460458e+00,3.481397938839462343e-05,8.115038656827468536e-05
3.211111111111111249e+00,-1.289790765597423371e-05,4.885200214899236153e-05
3.211904761904762040e+00,-6.174135970169492026e-05,2.868320247244340200e-06
3.212698412698412831e+00,-1.032457060787394946e-04,-4.848505516060506120e-05
3.213492063492063622e+00,-1.311038170741808380e-04,-9.478840236780648732e-05
3.214285714285714413e+00,-1.425623299043279175e-04,-1.261156663533038015e-04
3.215079365079365203e+00,-1.387354801098754321e-04,-1.356678382469422232e-04
3.215873015873015994e+00,-1.238023058825260460e-04,-1.216351057687236915e-04
3.216666666666666785e+00,-1.034145295117445740e-04,-8.772159121811680393e-05
3.217460317460317576e+00,-8.285761283442761010e-05,-4.220191479458534976e-05
3.218253968253968367e+00,-6.551952718451309235e-05,4.189203978866947839e-06
3.219047619047619158e+00,-5.207831438155262240e-05,4.094888376781278519e-05
3.219841269841269948e+00,-4.059881187802277087e-05,6.039045494068811111e-05
3.220634920634920739e+00,-2.748690566338043563e-05,5.948393862503108573e-05
3.221428571428571530e+00,-9.021591812749289258e-06,4.050248748371013650e-05
3.222222222222222321e+00,1.698740987579642158e-05,1.031447378591941549e-05
3.223015873015873112e+00,4.993132515108285704e-05,-2.150675127930242088e-05
3.223809523809523903e+00,8.595111017055547626e-05,-4.528743640475565735e-05
3.224603174603174693e+00,1.185049508517578066e-04,-5.391180668554041447e-05
3.225396825396825484e+00,1.398574207886849963e-04,-4.483103087388347184e-05
3.226190476190476275e+00,1.431158338930195245e-04,-2.084931673342385109e-05
3.226984126984127066e+00,1.242638704575768399e-04,1.059900548537587253e-05
3.227777777777777857e+00,8.361427140595812171e-05,3.957428384477535885e-05
3.228571428571428648e+00,2.623030715415886922e-05,5.662938866080955281e-05
3.229365079365079438e+00,-3.887257751223184652e-05,5.581459449934598300e-05
3.230158730158730229e+00,-1.005952032947681401e-04,3.671616914918624040e-05
3.230952380952381020e+00,-1.482214212685929288e-04,4.784978681415440851e-06
3.231746031746031811e+00,-1.738142372854681024e-04,-3.024678184809069610e-05
3.232539682539682602e+00,-1.738827877428682092e-04,-5.739071937584221139e-05
3.233333333333333393e+00,-1.498932018433271098e-04,-6.787008086913864154e-05
3.234126984126984183e+00,-1.075697172717437491e-04,-5.788028550220126155e-05
3.234920634920634974e+00,-5.529791089577551776e-05,-2.977993144808172073e-05
3.235714285714285765e+00,-2.154606694732247297e-06,8.583918123412797145e-06
3.236507936507936556e+00,4.390803689651932141e-05,4.613261588502644116e-05
