Timestamp,Flexor carpi radialis,Extensor digitorum
2.000000000000000000e+00,6.232199815990816034e-06,-2.269556619764084068e-05
2.000793650793650791e+00,2.018955167431879825e-06,-4.154934038857452296e-05
2.001587301587301582e+00,-3.117095307907746366e-06,-6.295898082395459618e-05
2.002380952380952372e+00,-8.419187393817164142e-06,-8.193991135555531505e-05
2.003174603174603163e+00,-1.336572591826518059e-05,-9.338092768544560985e-05
2.003968253968253954e+00,-1.769771300405275166e-05,-9.317698250675331367e-05
2.004761904761904745e+00,-2.134425745954146992e-05,-7.922316697347605815e-05
2.005555555555555536e+00,-2.427151951595148672e-05,-5.205405112203064709e-05
2.006349206349206327e+00,-2.630018294954374102e-05,-1.498845977956947851e-05
2.007142857142857117e+00,-2.694795886241097807e-05,2.628208633636457134e-05
2.007936507936507908e+00,-2.535916306014766205e-05,6.464342838058551846e-05
2.008730158730158699e+00,-2.038242698573667369e-05,9.293324512937872241e-05
2.009523809523809490e+00,-1.083917853514556778e-05,1.055067003375326657e-04
2.010317460317460281e+00,4.024450485099040201e-06,9.964225553695690266e-05
2.011111111111111072e+00,2.398936351431564409e-05,7.638043211734023882e-05
2.011904761904761862e+00,4.738859077494126998e-05,4.046797043237585964e-05
2.012698412698412653e+00,7.092172968939695291e-05,-6.763112505436962946e-07
2.013492063492063444e+00,8.995248353691083758e-05,-3.872707189679459937e-05
2.014285714285714235e+00,9.937550514129279804e-05,-6.644169881568050284e-05
2.015079365079365026e+00,9.494676311009732470e-05,-7.929800412581272727e-05
2.015873015873015817e+00,7.473233065070609027e-05,-7.634266368580010600e-05
2.016666666666666607e+00,4.015023932519253734e-05,-6.007685557927547608e-05
2.017460317460317398e+00,-3.887671557763163252e-06,-3.549372024101948809e-05
2.018253968253968189e+00,-4.991415535401362645e-05,-8.609959633684584037e-06
2.019047619047618980e+00,-8.965489734535593200e-05,1.505616452686656490e-05
2.019841269841269771e+00,-1.160020050250569679e-04,3.164358120377725294e-05
2.020634920634920562e+00,-1.246141359474074348e-04,3.949037425642952737e-05
2.021428571428571352e+00,-1.147672641160617788e-04,3.902676699395672504e-05
2.022222222222222143e+00,-8.935829333745291391e-05,3.217733120833682597e-05
2.023015873015872934e+00,-5.416558825316732871e-05,2.153549417793402350e-05
2.023809523809523725e+00,-1.656742361493411840e-05,9.589144631810298002e-06
2.024603174603174516e+00,1.604222088737359783e-05,-1.779139101196486765e-06
2.025396825396825307e+00,3.785712220157229357e-05,-1.140590805961949199e-05
2.026190476190476097e+00,4.593952191555921404e-05,-1.861420810513185643e-05
2.026984126984126888e+00,4.083487134219919478e-05,-2.282061046170236250e-05
2.027777777777777679e+00,2.631167834938300556e-05,-2.324113348074389359e-05
2.028571428571428470e+00,8.271777990407959164e-06,-1.889365522470350093e-05
2.029365079365079261e+00,-6.861410509223534505e-06,-8.912559865217463436e-06
2.030158730158730052e+00,-1.381930721377130798e-05,6.993303591393914820e-06
2.030952380952380842e+00,-9.786349756347682754e-06,2.816752561575297539e-05
2.031746031746031633e+00,4.973439768908391111e-06,5.286733002978824791e-05
2.032539682539682424e+00,2.724838880298375307e-05,7.838763641803562826e-05
2.033333333333333215e+00,5.167526505659218955e-05,1.013967862311606645e-04
2.034126984126984006e+00,7.199256360258770692e-05,1.184025040112776688e-04
2.034920634920634797e+00,8.249002374907168369e-05,1.262650230925657267e-04
2.035714285714285587e+00,7.936513506908407414e-05,1.226934924483059279e-04
2.036507936507936378e+00,6.168847156976138557e-05,1.066905512869319948e-04
2.037301587301587169e+00,3.172497682992936628e-05,7.891625493191371517e-05
2.038095238095237960e+00,-5.508414603888354806e-06,4.190283522149310222e-05
2.038888888888888751e+00,-4.336705726310423830e-05,-6.966987166839369511e-09
2.039682539682539542e+00,-7.510486328615019827e-05,-4.113134057005287514e-05
2.040476190476190332e+00,-9.540167853439020468e-05,-7.536499826141459006e-05
2.041269841269841123e+00,-1.014887658556145775e-04,-9.739644893208250845e-05
2.042063492063491914e+00,-9.359031787608010301e-05,-1.039218207825198684e-04
2.042857142857142705e+00,-7.460749839354049399e-05,-9.448647537174957632e-05
2.043650793650793496e+00,-4.919506094734542941e-05,-7.165386006925213212e-05
2.044444444444444287e+00,-2.253709400942061067e-05,-4.039146581008705607e-05
2.045238095238095077e+00,8.311906914099392622e-07,-6.829851918044923132e-06
2.046031746031745868e+00,1.787905006067947475e-05,2.320778268077680780e-05
2.046825396825396659e+00,2.747022818374072128e-05,4.541936875961958756e-05
2.047619047619047450e+00,3.028304734844511562e-05,5.762557809474228769e-05
2.048412698412698241e+00,2.835852305620217685e-05,5.968905035033578892e-05
2.049206349206349032e+00,2.442689884905412310e-05,5.296051322879568565e-05
2.049999999999999822e+00,2.117282308162076349e-05,3.959286599827396234e-05
2.050793650793650613e+00,2.058190293457456710e-05,2.201277483556384257e-05
2.051587301587301404e+00,2.348067672857202654e-05,2.666769078422413094e-06
2.052380952380952195e+00,2.934592049591254335e-05,-1.603801463599634141e-05
2.053174603174602986e+00,3.641869994787215329e-05,-3.180700679924785998e-05
2.053968253968253777e+00,4.211331875694012897e-05,-4.274181023135364472e-05
2.054761904761904567e+00,4.366352872615470788e-05,-4.786433541964048223e-05
2.055555555555555358e+00,3.889832602604230346e-05,-4.767457572545362340e-05
2.056349206349206149e+00,2.698296061258384932e-05,-4.437902310885906778e-05
2.057142857142856940e+00,8.907183246317365913e-06,-4.148073689621803217e-05
2.057936507936507731e+00,-1.249862483030933869e-05,-4.270391689752251445e-05
2.058730158730158522e+00,-3.312474909280769126e-05,-5.059795782622054960e-05
2.059523809523809312e+00,-4.860273002134730052e-05,-6.539438044332712805e-05
2.060317460317460103e+00,-5.545067406755607129e-05,-8.461521565815344670e-05
2.061111111111110894e+00,-5.194527675681334693e-05,-1.036039207616112743e-04
2.061904761904761685e+00,-3.845997550502619597e-05,-1.167771907134552924e-04
2.062698412698412920e+00,-1.725729454822831440e-05,-1.191648027642406877e-04
2.063492063492063711e+00,8.069800631441725641e-06,-1.077693507897874403e-04
2.064285714285714501e+00,3.325764425322640702e-05,-8.238848320845089759e-05
2.065079365079365292e+00,5.398141740815880853e-05,-4.572445616526158834e-05
2.065873015873016083e+00,6.641458913467201389e-05,-2.799214844564099676e-06
2.066666666666666874e+00,6.781144372942423542e-05,4.014390591541818680e-05
2.067460317460317665e+00,5.711771095988162658e-05,7.696202883509766618e-05
2.068253968253968456e+00,3.545653537460810432e-05,1.028298908987391677e-04
2.069047619047619246e+00,6.220073119530970613e-06,1.150716736127571096e-04
2.069841269841270037e+00,-2.545443706023764181e-05,1.134523442387456603e-04
2.070634920634920828e+00,-5.380780661190994336e-05,9.992713911680208342e-05
2.071428571428571619e+00,-7.386467372464717998e-05,7.797210342476897104e-05
2.072222222222222410e+00,-8.263956902477190129e-05,5.169072251266392979e-05
2.073015873015873201e+00,-7.973507216105163778e-05,2.491851023027082565e-05
2.073809523809523991e+00,-6.717696847098387797e-05,5.331611494486584530e-07
2.074603174603174782e+00,-4.861364404912379630e-05,-1.988314218632710357e-05
2.075396825396825573e+00,-2.819465281698026738e-05,-3.598858633627451749e-05
2.076190476190476364e+00,-9.489117742401293406e-06,-4.831769856378357225e-05
2.076984126984127155e+00,5.269439212119038882e-06,-5.778405737517228191e-05
2.077777777777777946e+00,1.546042655290046802e-05,-6.523346220359492714e-05
2.078571428571428736e+00,2.186486511508654163e-05,-7.115058285219236743e-05
2.079365079365079527e+00,2.607248448239784806e-05,-7.550990877937958760e-05
2.080158730158730318e+00,2.970467760155556629e-05,-7.769990706076567984e-05
2.080952380952381109e+00,3.370507828405622925e-05,-7.648180038781701999e-05
2.081746031746031900e+00,3.793746720311050167e-05,-7.004281544268054730e-05
2.082539682539682691e+00,4.122814991650447530e-05,-5.627977377244320787e-05
2.083333333333333481e+00,4.182598825198148302e-05,-3.340951252749603463e-05
2.084126984126984272e+00,3.810385254333989045e-05,-8.281825399871475960e-07
2.084920634920635063e+00,2.925464257754329709e-05,4.007179664949867774e-05
2.085714285714285854e+00,1.575947092868184294e-05,8.551606990469580059e-05
2.086507936507936645e+00,-4.981062813990581463e-07,1.296771512778222175e-04
2.087301587301587436e+00,-1.647560901184899810e-05,1.657369870219420566e-04
2.088095238095238226e+00,-2.848066277658291238e-05,1.874134995316152803e-04
2.088888888888889017e+00,-3.281890937449601027e-05,1.905001256996747584e-04
2.089682539682539808e+00,-2.648287629880462238e-05,1.739644147553396952e-04
2.090476190476190599e+00,-7.839964936057271469e-06,1.403038352102470884e-04
2.091269841269841390e+00,2.270109465991768270e-05,9.506992762534966944e-05
2.092063492063492181e+00,6.212838801564951662e-05,4.566685688124369431e-05
2.092857142857142971e+00,1.045780661113233256e-04,-3.016253744133370792e-07
2.093650793650793762e+00,1.416969127490475065e-04,-3.671904421364165081e-05
2.094444444444444553e+00,1.638554950533931858e-04,-6.019934217383807575e-05
2.095238095238095344e+00,1.622001894411609856e-04,-7.051337454916289178e-05
2.096031746031746135e+00,1.311586367608461522e-04,-7.009694735437065158e-05
2.096825396825396925e+00,7.068240377556929345e-05,-6.287478797245725699e-05
2.097619047619047716e+00,-1.259396659348518670e-05,-5.288198438970414058e-05
2.098412698412698507e+00,-1.058857291595908948e-04,-4.319093517867126221e-05
2.099206349206349298e+00,-1.926117458766815746e-04,-3.543780915074180447e-05
2.100000000000000089e+00,-2.561028542144745137e-04,-2.992430338668739196e-05
2.100793650793650880e+00,-2.836824324527561125e-04,-2.605169193228548390e-05
2.101587301587301670e+00,-2.699109497397936958e-04,-2.282519574930060792e-05
2.102380952380952461e+00,-2.179877619725380158e-04,-1.927627423752301662e-05
2.103174603174603252e+00,-1.388857571205056088e-04,-1.475250819961356651e-05
2.103968253968254043e+00,-4.852551542792633301e-05,-9.059314714834763288e-06
2.104761904761904834e+00,3.611875368258993219e-05,-2.440520565464829371e-06
2.105555555555555625e+00,1.008581211339714133e-04,4.588631247489198742e-06
2.106349206349206415e+00,1.371058432046092131e-04,1.148171872326161455e-05
2.107142857142857206e+00,1.431160615072281199e-04,1.785125675383882415e-05
2.107936507936507997e+00,1.235581180762101712e-04,2.350501437757051757e-05
2.108730158730158788e+00,8.772684689117511475e-05,2.831555738785932012e-05
2.109523809523809579e+00,4.693550241448373828e-05,3.201247785640410910e-05
2.110317460317460370e+00,1.174125614680743721e-05,3.403803970773052715e-05
2.111111111111111160e+00,-1.037376014603604523e-05,3.358282094794902292e-05
2.111904761904761951e+00,-1.638786169465312890e-05,2.983124039995581787e-05
2.112698412698412742e+00,-7.955820366063064670e-06,2.233581759928090967e-05
2.113492063492063533e+00,9.493128355045378361e-06,1.135527768323648057e-05
2.114285714285714324e+00,2.847385954080264208e-05,-2.019032734251479436e-06
2.115079365079365115e+00,4.153528249817771097e-05,-1.604440596775136673e-05
2.115873015873015905e+00,4.325034357482814815e-05,-2.877199574685764162e-05
2.116666666666666696e+00,3.168768209716623491e-05,-3.858525828389245348e-05
2.117460317460317487e+00,9.038695053676940380e-06,-4.461906250566314896e-05
2.118253968253968278e+00,-1.879509298132640976e-05,-4.690935225295706271e-05
2.119047619047619069e+00,-4.365080638837965163e-05,-4.624493867870380298e-05
2.119841269841269860e+00,-5.731749462188820676e-05,-4.380514156733159286e-05
2.120634920634920650e+00,-5.397403871280040302e-05,-4.072474946421356811e-05
2.121428571428571441e+00,-3.216016979840794285e-05,-3.772706398210723015e-05
2.122222222222222232e+00,4.355507984698510175e-06,-3.492482468089713868e-05
2.123015873015873023e+00,4.717206327447243493e-05,-3.182432508866723402e-05
2.123809523809523814e+00,8.525446037566175377e-05,-2.750009570979544010e-05
2.124603174603174605e+00,1.078255139276779938e-04,-2.087040791265070428e-05
2.125396825396825395e+00,1.073355097700877294e-04,-1.101583303959637530e-05
2.126190476190476186e+00,8.164750438119368445e-05,2.487380254801912188e-06
2.126984126984126977e+00,3.481086631302310872e-05,1.924862587512524799e-05
2.127777777777777768e+00,-2.379568902117335351e-05,3.782777579767150817e-05
2.128571428571428559e+00,-8.174124964406853536e-05,5.569552926569985797e-05
2.129365079365079350e+00,-1.266776763659926530e-04,6.950632382020492542e-05
2.130158730158730140e+00,-1.495197953126272815e-04,7.573355878432577802e-05
2.130952380952380931e+00,-1.467557047791948435e-04,7.157261517155368328e-05
2.131746031746031722e+00,-1.211406138529392326e-04,5.585601041902449109e-05
2.132539682539682513e+00,-8.053832522850705574e-05,2.965298190221597846e-05
2.133333333333333304e+00,-3.536124137064129062e-05,-3.693995957883802398e-06
2.134126984126984095e+00,4.434258349457004394e-06,-3.915047059939845571e-05
2.134920634920634885e+00,3.178395733484821935e-05,-7.103992240317632330e-05
2.135714285714285676e+00,4.374091469949192878e-05,-9.427938031293324180e-05
2.136507936507936467e+00,4.138840897913772382e-05,-1.054812579119352459e-04
2.137301587301587258e+00,2.877386417972073408e-05,-1.036529637816438373e-04
2.138095238095238049e+00,1.138701067534262511e-05,-9.033621170977049338e-05
2.138888888888888840e+00,-5.326496851858903548e-06,-6.916079471455423690e-05
2.139682539682539630e+00,-1.708087320566075887e-05,-4.491394497228435028e-05
2.140476190476190421e+00,-2.134849316265393930e-05,-2.233653596330613343e-05
2.141269841269841212e+00,-1.745739930260385925e-05,-4.945980575986750294e-06
2.142063492063492003e+00,-6.315677076685875406e-06,5.775189179747186417e-06
2.142857142857142794e+00,1.006280615694900081e-05,1.054802480093029102e-05
2.143650793650793585e+00,2.907216395953772140e-05,1.173926719196117369e-05
2.144444444444444375e+00,4.796782923458659914e-05,1.226864284974946285e-05
2.145238095238095166e+00,6.422807720513624128e-05,1.440435358521627480e-05
2.146031746031745957e+00,7.583273144262821491e-05,1.892671122743844940e-05
2.146825396825396748e+00,8.146447891791310360e-05,2.497662065437061972e-05
2.147619047619047539e+00,8.061279628639824899e-05,3.059693742551559297e-05
2.148412698412698330e+00,7.355467896693014464e-05,3.368175642500981264e-05
2.149206349206349120e+00,6.121639721487612176e-05,3.291903017426930038e-05
2.149999999999999911e+00,4.495949786917402991e-05,2.837927731296013237e-05
2.150793650793650702e+00,2.634754271309133216e-05,2.158239701464497302e-05
2.151587301587301493e+00,6.936198186702365394e-06,1.505463323202052540e-05
2.152380952380952284e+00,-1.188757395932833072e-05,1.151886782747701362e-05
2.153174603174603075e+00,-2.899923967752317068e-05,1.295634979473408104e-05
2.153968253968253865e+00,-4.355546625838574746e-05,1.984350878784718673e-05
2.154761904761904656e+00,-5.495284029063580446e-05,3.085720228679652519e-05
2.155555555555555447e+00,-6.276434876205356323e-05,4.320136989980995538e-05
2.156349206349206238e+00,-6.669243738838190598e-05,5.346515080400215654e-05
2.157142857142857029e+00,-6.655586738924411849e-05,5.869563250915156062e-05
2.157936507936507819e+00,-6.230680515580144276e-05,5.727868676591181519e-05
2.158730158730158610e+00,-5.406969962915919250e-05,4.931353395569611897e-05
2.159523809523809401e+00,-4.219311001332342334e-05,3.639573597628935196e-05
2.160317460317460192e+00,-2.729326196770903503e-05,2.097607587493546165e-05
2.161111111111110983e+00,-1.024894004725438468e-05,5.608692806859655147e-06
2.161904761904761774e+00,7.893232281268477868e-06,-7.625434898573508264e-06
2.162698412698412564e+00,2.610336789244061280e-05,-1.738874963987205877e-05
2.163492063492063355e+00,4.356648146002163369e-05,-2.308960507262932828e-05
2.164285714285714146e+00,5.975462952792396862e-05,-2.474698386709033057e-05
2.165079365079364937e+00,7.425749979902274275e-05,-2.284114035492970188e-05
2.165873015873015728e+00,8.639918321520294829e-05,-1.820741429168236785e-05
2.166666666666666519e+00,9.485803092233197488e-05,-1.195821115246228001e-05
2.167460317460317309e+00,9.759662894954304624e-05,-5.380783020533452067e-06
2.168253968253968100e+00,9.230188455761131753e-05,2.309574374825037075e-07
2.169047619047618891e+00,7.726774252550336764e-05,3.807478643900180135e-06
2.169841269841269682e+00,5.237551078087013403e-05,4.743271550374670942e-06
2.170634920634920473e+00,1.970294508881271280e-05,3.063419373617888982e-06
2.171428571428571264e+00,-1.659447882274387931e-05,-5.489329714766592248e-07
2.172222222222222054e+00,-5.117835125521994161e-05,-4.880776216229820412e-06
2.173015873015872845e+00,-7.889328762948346837e-05,-8.443027420959724153e-06
2.173809523809523636e+00,-9.609084813452267889e-05,-9.803752314257949141e-06
2.174603174603174427e+00,-1.014410840888362833e-04,-7.957571023493120000e-06
2.175396825396825218e+00,-9.600786099454665899e-05,-2.675960871122684170e-06
2.176190476190476009e+00,-8.266551577764162054e-05,5.257062857460123835e-06
2.176984126984126799e+00,-6.514967404321362829e-05,1.405651698433232978e-05
2.177777777777777590e+00,-4.709517406809982760e-05,2.130152789048081089e-05
2.178571428571428381e+00,-3.132964599849812743e-05,2.463215292709175003e-05
2.179365079365079172e+00,-1.953148915281312001e-05,2.256701468425708848e-05
2.180158730158729963e+00,-1.221322346098081014e-05,1.510010156853304994e-05
2.180952380952380754e+00,-8.914297354008484590e-06,3.778052638482310955e-06
2.181746031746031544e+00,-8.486940120912009545e-06,-8.814322577842439158e-06
2.182539682539682335e+00,-9.400657910520962156e-06,-1.994237052927899824e-05
2.183333333333333126e+00,-1.003608095179876178e-05,-2.758596591443972153e-05
2.184126984126983917e+00,-8.964050127459943443e-06,-3.092155245000668457e-05
2.184920634920634708e+00,-5.205125884677101854e-06,-3.028872998225463158e-05
2.185714285714285499e+00,1.556517523347619336e-06,-2.676861523758457717e-05
2.186507936507936289e+00,1.085716039826363362e-05,-2.164218565540310322e-05
2.187301587301587080e+00,2.149577570364416066e-05,-1.597114304911557940e-05
2.188095238095238315e+00,3.176411905618982959e-05,-1.041974882945908968e-05
2.188888888888889106e+00,3.982871442508930401e-05,-5.307404591791008947e-06
2.189682539682539897e+00,4.416229578755397045e-05,-7.965564639300153502e-07
2.190476190476190688e+00,4.389745843919737388e-05,2.909742138872567636e-06
2.191269841269841478e+00,3.900660264592217786e-05,5.461788673166508728e-06
2.192063492063492269e+00,3.027663909772605101e-05,6.387910441763296477e-06
2.192857142857143060e+00,1.910871056920399540e-05,5.223804528925972373e-06
2.193650793650793851e+00,7.210968782154362985e-06,1.681516773218908550e-06
2.194444444444444642e+00,-3.735869327502376407e-06,-4.208750939702521777e-06
2.195238095238095433e+00,-1.236785155475140633e-05,-1.202214984250933258e-05
2.196031746031746223e+00,-1.782960182163811574e-05,-2.092898945794423172e-05
2.196825396825397014e+00,-1.984435512528038046e-05,-2.973338300839686033e-05
2.197619047619047805e+00,-1.866867347183510470e-05,-3.695351695251352135e-05
2.198412698412698596e+00,-1.496332679083783622e-05,-4.095897321741308789e-05
2.199206349206349387e+00,-9.624234556024974447e-06,-4.019168951569110717e-05
2.200000000000000178e+00,-3.615561357409557010e-06,-3.348340068679689753e-05
2.200793650793650968e+00,2.165554963407800905e-06,-2.044125209730418948e-05
2.201587301587301759e+00,6.980656511809628221e-06,-1.814853371379551150e-06
2.202380952380952550e+00,1.030166626642199288e-05,2.028817958786710229e-05
2.203174603174603341e+00,1.183453372938623919e-05,4.246997267656844925e-05
2.203968253968254132e+00,1.152597390504973772e-05,6.046601703752849262e-05
2.204761904761904923e+00,9.558270865632041704e-06,6.990046707551740102e-05
2.205555555555555713e+00,6.330931583278378785e-06,6.724334053134362196e-05
2.206349206349206504e+00,2.424581069936848387e-06,5.075175523327445364e-05
2.207142857142857295e+00,-1.458320336261670235e-06,2.113796395105259999e-05
2.207936507936508086e+00,-4.579645425340867324e-06,-1.825708967973006068e-05
2.208730158730158877e+00,-6.276911649253998290e-06,-6.189527802614705660e-05
2.209523809523809668e+00,-6.088573592996210224e-06,-1.030294384708145398e-04
2.210317460317460458e+00,-3.871277120011230501e-06,-1.350307185121431882e-04
2.211111111111111249e+00,1.206745190639110868e-07,-1.527125196417448603e-04
2.211904761904762040e+00,5.223403165246955189e-06,-1.532899925319752030e-04
2.212698412698412831e+00,1.043883871294951180e-05,-1.367306352815390988e-04
2.213492063492063622e+00,1.459844265270050979e-05,-1.054648583271045872e-04
2.214285714285714413e+00,1.659277361655250497e-05,-6.364652328796903435e-05
2.215079365079365203e+00,1.562112782039464445e-05,-1.627858231043573988e-05
2.215873015873015994e+00,1.139998349149900199e-05,3.152170065435278598e-05
2.216666666666666785e+00,4.271417819373911509e-06,7.501924620052255563e-05
2.217460317460317576e+00,-4.821162600339065133e-06,1.101992698944002111e-04
2.218253968253968367e+00,-1.448166674637173232e-05,1.340851247754982437e-04
2.219047619047619158e+00,-2.309185932832316996e-05,1.451003579629514659e-04
2.219841269841269948e+00,-2.907057812306162452e-05,1.434118891412873163e-04
2.220634920634920739e+00,-3.111952146120444896e-05,1.310893040332602696e-04
2.221428571428571530e+00,-2.843180184251341711e-05,1.118857415738346511e-04
2.222222222222222321e+00,-2.085051274235751604e-05,9.052312035573925066e-05
2.223015873015873112e+00,-8.962726890679985022e-06,7.155696329013483739e-05
2.223809523809523903e+00,5.894535545413018916e-06,5.813096914719916583e-05
2.224603174603174693e+00,2.174252159608558397e-05,5.106673330464449366e-05
2.225396825396825484e+00,3.619644078999938034e-05,4.866881320715930821e-05
2.226190476190476275e+00,4.681577511515838962e-05,4.737959870626006674e-05
2.226984126984127066e+00,5.152534213689003920e-05,4.309930637014800972e-05
2.227777777777777857e+00,4.903551643677486228e-05,3.271805456749142928e-05
2.228571428571428648e+00,3.917499922593393026e-05,1.529901541424038349e-05
2.229365079365079438e+00,2.305354549603360549e-05,-7.527573854879317566e-06
2.230158730158730229e+00,2.988990838657380684e-06,-3.208003292035023404e-05
2.230952380952381020e+00,-1.784115115814532081e-05,-5.380347240629787693e-05
2.231746031746031811e+00,-3.600802308616282167e-05,-6.863567166426017604e-05
2.232539682539682602e+00,-4.858427309159007356e-05,-7.408815797466366398e-05
2.233333333333333393e+00,-5.382662079766368477e-05,-6.975401858342492945e-05
2.234126984126984183e+00,-5.155914980506987771e-05,-5.719804535528458158e-05
2.234920634920634974e+00,-4.312901614577641362e-05,-3.938015748391379391e-05
2.235714285714285765e+00,-3.096160602703548401e-05,-1.985522237840727603e-05
2.236507936507936556e+00,-1.787048904988209315e-05,-1.985222618037833738e-06
2.237301587301587347e+00,-6.339701479054290169e-06,1.166729719141953008e-05
2.238095238095238138e+00,2.012673463348696145e-06,1.968136265683363394e-05
2.238888888888888928e+00,6.654584073687074931e-06,2.185049593942527495e-05
2.239682539682539719e+00,8.024759855331418135e-06,1.903501829106137711e-05
2.240476190476190510e+00,7.174309297840347550e-06,1.286170795128689066e-05
2.241269841269841301e+00,5.319416892626755384e-06,5.334533349208873325e-06
2.242063492063492092e+00,3.458720694048613676e-06,-1.585393360436434940e-06
2.242857142857142883e+00,2.159130806259068783e-06,-6.369027331261104327e-06
2.243650793650793673e+00,1.538832903573516074e-06,-8.212028648111510248e-06
2.244444444444444464e+00,1.403596343926536271e-06,-7.172400033520638697e-06
2.245238095238095255e+00,1.448763874191224710e-06,-4.117505417256108485e-06
2.246031746031746046e+00,1.437265343778386803e-06,-4.799920275555835674e-07
2.246825396825396837e+00,1.295406798934578894e-06,2.136220817026505778e-06
2.247619047619047628e+00,1.112359238840729200e-06,2.417190187537129848e-06
2.248412698412698418e+00,1.067442987790145914e-06,-2.472681140327371395e-07
2.249206349206349209e+00,1.330722534939791341e-06,-5.520346173915272460e-06
2.250000000000000000e+00,1.983477936200314134e-06,-1.213967671842527453e-05
2.250793650793650791e+00,2.988766815898417442e-06,-1.822876168304101661e-05
2.251587301587301582e+00,4.217021446411755106e-06,-2.183221325738134532e-05
2.252380952380952372e+00,5.507352280996244257e-06,-2.152899176910113080e-05
2.253174603174603163e+00,6.730410958417074908e-06,-1.694469700921157380e-05
2.253968253968253954e+00,7.819880290439616612e-06,-9.008220712103987861e-06
2.254761904761904745e+00,8.757916289137679852e-06,1.374777558526558629e-07
2.255555555555555536e+00,9.525894610199245300e-06,7.579412502784710429e-06
2.256349206349206327e+00,1.005058798256500802e-05,1.035608889447052891e-05
2.257142857142857117e+00,1.017831112630704472e-05,6.296584171243825484e-06
2.257936507936507908e+00,9.697221923963464504e-06,-5.239808300591806926e-06
2.258730158730158699e+00,8.407859354376398726e-06,-2.294046543836646138e-05
2.259523809523809490e+00,6.221080931204345852e-06,-4.357922028514901264e-05
2.260317460317460281e+00,3.247376217415371875e-06,-6.254937819563813697e-05
2.261111111111111072e+00,-1.617282661825985348e-07,-7.480356825381692155e-05
2.261904761904761862e+00,-3.447752061476928576e-06,-7.602071841232925346e-05
2.262698412698412653e+00,-5.958487392861362842e-06,-6.375160380676769400e-05
2.263492063492063444e+00,-7.115844308179946136e-06,-3.825682064688854596e-05
2.264285714285714235e+00,-6.591650620300949059e-06,-2.770929942934042712e-06
2.265079365079365026e+00,-4.437513557540369137e-06,3.696361596572961960e-05
2.265873015873015817e+00,-1.125635755838695039e-06,7.384567099660233817e-05
2.266666666666666607e+00,2.518670289920739455e-06,1.009667785290928728e-04
2.267460317460317398e+00,5.484862049041101925e-06,1.131348383046401602e-04
2.268253968253968189e+00,6.814941203572486944e-06,1.079583006778100007e-04
2.269047619047618980e+00,5.865326948892311423e-06,8.624405531722822483e-05
2.269841269841269771e+00,2.538906206492300436e-06,5.167820666125987782e-05
2.270634920634920562e+00,-2.567590345125918447e-06,9.938444295903480768e-06
2.271428571428571352e+00,-8.149026567399868744e-06,-3.250493165980302876e-05
2.272222222222222143e+00,-1.234330001286470172e-05,-6.960505997409198551e-05
2.273015873015872934e+00,-1.305718581041550279e-05,-9.670908673294256318e-05
2.273809523809523725e+00,-8.438719108151046782e-06,-1.111174446760078216e-04
2.274603174603174516e+00,2.577225646721258016e-06,-1.122005055110713873e-04
2.275396825396825307e+00,1.976859018932124043e-05,-1.011620204455542036e-04
2.276190476190476097e+00,4.131828930610974878e-05,-8.060009407039086171e-05
2.276984126984126888e+00,6.384131712951400203e-05,-5.400472329749738954e-05
2.277777777777777679e+00,8.283746504374124749e-05,-2.526560015100991219e-05
2.278571428571428470e+00,9.355747101780577163e-05,1.813110718245255185e-06
2.279365079365079261e+00,9.212809455081128189e-05,2.402770622239390109e-05
2.280158730158730052e+00,7.663851365699606781e-05,3.930484564822613551e-05
2.280952380952380842e+00,4.782196899310827472e-05,4.712014451714303351e-05
2.281746031746031633e+00,9.057858487716978659e-06,4.860778524852743358e-05
2.282539682539682424e+00,-3.432179990864188651e-05,4.622035143065997151e-05
2.283333333333333215e+00,-7.614930241581338490e-05,4.296757030802069507e-05
2.284126984126984006e+00,-1.105696959356108883e-04,4.144917726109846834e-05
2.284920634920634797e+00,-1.329414654293124950e-04,4.300952502479227880e-05
2.285714285714285587e+00,-1.404174988654626323e-04,4.732633340035733056e-05
2.286507936507936378e+00,-1.322532921429128705e-04,5.259345673994346974e-05
2.287301587301587169e+00,-1.098724259205870017e-04,5.622406499655664187e-05
2.288095238095237960e+00,-7.666086555657292275e-05,5.579591271386309648e-05
2.288888888888888751e+00,-3.746519491253481003e-05,4.988175549278631063e-05
2.289682539682539542e+00,2.156935088950463147e-06,3.848408945769495401e-05
2.290476190476190332e+00,3.681150741526727801e-05,2.297445041619879157e-05
2.291269841269841123e+00,6.211883258681853031e-05,5.626424309069197529e-06
2.292063492063491914e+00,7.539589874679018474e-05,-1.105530062967481199e-05
2.292857142857142705e+00,7.603197542242851547e-05,-2.498943530992034709e-05
2.293650793650793496e+00,6.544756311311208735e-05,-3.497769136182220305e-05
2.294444444444444287e+00,4.662619364333787974e-05,-4.085922692730778553e-05
2.295238095238095077e+00,2.336293308177609776e-05,-4.334020151473319245e-05
2.296031746031745868e+00,-5.210982440540502943e-07,-4.358607290077040749e-05
2.296825396825396659e+00,-2.178146246653612586e-05,-4.274716855732805734e-05
2.297619047619047450e+00,-3.809136036642703894e-05,-4.159570825082192666e-05
2.298412698412698241e+00,-4.816206187431328745e-05,-4.038156144130987087e-05
2.299206349206349032e+00,-5.170998178532513264e-05,-3.891479113356727449e-05
2.299999999999999822e+00,-4.930361645539368834e-05,-3.680564080934427881e-05
2.300793650793650613e+00,-4.210489407372260449e-05,-3.375093178213242276e-05
2.301587301587301404e+00,-3.153938423740899774e-05,-2.974789229367976864e-05
2.302380952380952195e+00,-1.895900837946954179e-05,-2.514800359001878564e-05
2.303174603174602986e+00,-5.373126727464983320e-06,-2.053177561339043224e-05
2.303968253968253777e+00,8.682287763800577052e-06,-1.646260223865871170e-05
2.304761904761904567e+00,2.308871239222555954e-05,-1.322957088246149698e-05
2.305555555555555358e+00,3.789528120475438994e-05,-1.069633449091476249e-05
2.306349206349206149e+00,5.293387534132331339e-05,-8.332067216706197523e-06
2.307142857142856940e+00,6.743169528230519847e-05,-5.421749921468375595e-06
2.307936507936507731e+00,7.979805799257434946e-05,-1.368737943823169927e-06
2.308730158730158522e+00,8.773717574788635412e-05,4.043203718362183488e-06
2.309523809523809312e+00,8.873242576085397149e-05,1.054244884700441464e-05
2.310317460317460103e+00,8.079418961284019882e-05,1.745901237808860542e-05
2.311111111111110894e+00,6.323298881030477506e-05,2.396713858713807901e-05
2.311904761904761685e+00,3.717707915689138229e-05,2.937512544945020782e-05
2.312698412698412920e+00,5.617629420931779234e-06,3.334129537174520164e-05
2.313492063492063711e+00,-2.709112652257587226e-05,3.593017246287264019e-05
2.314285714285714501e+00,-5.616882448360901157e-05,3.749453054628603240e-05
2.315079365079365292e+00,-7.751371217614683282e-05,3.844705519312195018e-05
2.315873015873016083e+00,-8.863274666231959337e-05,3.903331154107033649e-05
2.316666666666666874e+00,-8.911508236825879605e-05,3.921131023470148197e-05
2.317460317460317665e+00,-8.053448380538481800e-05,3.868678312151719364e-05
2.318253968253968456e+00,-6.585522714793938623e-05,3.707940463760767672e-05
2.319047619047619246e+00,-4.855176313069315563e-05,3.414150499535175288e-05
2.319841269841270037e+00,-3.171143609364761822e-05,2.993676455357545120e-05
2.320634920634920828e+00,-1.737553793954653403e-05,2.490835581803954867e-05
2.321428571428571619e+00,-6.287435628055531693e-06,1.980926858426793746e-05
2.322222222222222410e+00,1.928612776718074955e-06,1.551607182177024998e-05
2.323015873015873201e+00,8.285958865154222804e-06,1.278687129734381817e-05
2.323809523809523991e+00,1.386911170703781761e-05,1.204328313725937217e-05
2.324603174603174782e+00,1.939092631734153278e-05,1.324741379528672718e-05
2.325396825396825573e+00,2.499128996657013209e-05,1.590909168760630860e-05
2.326190476190476364e+00,3.028015085639554303e-05,1.921075103777312095e-05
2.326984126984127155e+00,3.454749354280532470e-05,2.220085504295732308e-05
2.327777777777777946e+00,3.703926458183626013e-05,2.399662594493776036e-05
2.328571428571428736e+00,3.721186716804491791e-05,2.394928465573795999e-05
2.329365079365079527e+00,3.490217575137090724e-05,2.174575382848531010e-05
2.330158730158730318e+00,3.037831454906573178e-05,1.744004370333342830e-05
2.330952380952381109e+00,2.427141362834054126e-05,1.142227429395538257e-05
2.331746031746031900e+00,1.742259149685592375e-05,4.340544646629715369e-06
2.332539682539682691e+00,1.069817000667419434e-05,-3.010368138980644611e-06
2.333333333333333481e+00,4.824140866506747535e-06,-9.820783275031082357e-06
2.334126984126984272e+00,2.743533805672805671e-07,-1.539755189878830939e-05
2.334920634920635063e+00,-2.774245931744893387e-06,-1.926453922014939070e-05
2.335714285714285854e+00,-4.423767067411616476e-06,-2.120815386282838658e-05
2.336507936507936645e+00,-4.990311530541022390e-06,-2.126757635336703163e-05
2.337301587301587436e+00,-4.912022085110610758e-06,-1.969008746385574775e-05
2.338095238095238226e+00,-4.651327976282397917e-06,-1.687535426162223827e-05
2.338888888888889017e+00,-4.609492959383406980e-06,-1.332246133271157528e-05
2.339682539682539808e+00,-5.065335304527387884e-06,-9.580366211628304620e-06
2.340476190476190599e+00,-6.142392951237609044e-06,-6.194010189339733816e-06
2.341269841269841390e+00,-7.802544868970825081e-06,-3.639165413885292187e-06
2.342063492063492181e+00,-9.861151167617041605e-06,-2.249275130028517479e-06
2.342857142857142971e+00,-1.201929194650927990e-05,-2.150263699445229009e-06
2.343650793650793762e+00,-1.391063332575417604e-05,-3.225204253457349217e-06
2.344444444444444553e+00,-1.516074401604986903e-05,-5.126403104567104641e-06
2.345238095238095344e+00,-1.545369747058248199e-05,-7.342751130739507825e-06
2.346031746031746135e+00,-1.459596984619944045e-05,-9.320156921954152169e-06
2.346825396825396925e+00,-1.256434574277406640e-05,-1.062068372801447925e-05
2.347619047619047716e+00,-9.525296984916379700e-06,-1.108870765880019696e-05
2.348412698412698507e+00,-5.818222177558463988e-06,-1.097549063292526586e-05
2.349206349206349298e+00,-1.902438089367480993e-06,-1.096870915444653425e-05
2.350000000000000089e+00,1.723945021238952514e-06,-1.208818758761280856e-05
2.350793650793650880e+00,4.617835849450330983e-06,-1.544172032736030033e-05
2.351587301587301670e+00,6.477672146235937015e-06,-2.187725858279733631e-05
2.352380952380952461e+00,7.202389507214159589e-06,-3.160882329025796141e-05
2.353174603174603252e+00,6.907267632550911317e-06,-4.392153903101693322e-05
2.353968253968254043e+00,5.890022299882085750e-06,-5.706592050941108966e-05
2.354761904761904834e+00,4.552391176119819580e-06,-6.842640639544337829e-05
2.355555555555555625e+00,3.295281014432731745e-06,-7.499235253616087045e-05
2.356349206349206415e+00,2.415812941017291389e-06,-7.407617554813948819e-05
2.357142857142857206e+00,2.037082144790972888e-06,-6.412900628008014322e-05
2.357936507936507997e+00,2.092051046480893564e-06,-4.542821297904814750e-05
2.358730158730158788e+00,2.363635277915757470e-06,-2.038904848747655023e-05
2.359523809523809579e+00,2.562652928762463452e-06,6.687709318221945147e-06
2.360317460317460370e+00,2.413996585801923669e-06,3.047257125058084432e-05
2.361111111111111160e+00,1.723298052201539638e-06,4.590149140012099292e-05
2.361904761904761951e+00,4.086646666953585092e-07,4.954690065079122739e-05
2.362698412698412742e+00,-1.501301582074770720e-06,4.062798918441260605e-05
2.363492063492063533e+00,-3.888355471251327223e-06,2.132349109069008847e-05
2.364285714285714324e+00,-6.566108442634805068e-06,-3.709987253168439574e-06
2.365079365079365115e+00,-9.292859520824614644e-06,-2.844896751900842489e-05
2.365873015873015905e+00,-1.178051990300431394e-05,-4.690724654719263136e-05
2.366666666666666696e+00,-1.371282142288852847e-05,-5.447013956954749363e-05
2.367460317460317487e+00,-1.478350552426850534e-05,-4.888997277298308191e-05
2.368253968253968278e+00,-1.475414122626023240e-05,-3.080723700696555168e-05
2.369047619047619069e+00,-1.351734264778047772e-05,-3.751855390405204243e-06
2.369841269841269860e+00,-1.114100127151101899e-05,2.639274296952364939e-05
2.370634920634920650e+00,-7.869419817224228029e-06,5.245941005434159719e-05
2.371428571428571441e+00,-4.071014423880677076e-06,6.751090403021209514e-05
2.372222222222222232e+00,-1.445836732609207151e-07,6.653691229754611592e-05
2.373015873015873023e+00,3.584246251759568414e-06,4.790139276625873338e-05
2.373809523809523814e+00,6.938296244992773917e-06,1.407027468479578052e-05
2.374603174603174605e+00,9.907816125909217210e-06,-2.867935268949756581e-05
2.375396825396825395e+00,1.260699662295524351e-05,-7.156086673231383543e-05
2.376190476190476186e+00,1.518516369511053104e-05,-1.052837693452825506e-04
2.376984126984126977e+00,1.772476483392170898e-05,-1.222514274670701560e-04
2.377777777777777768e+00,2.016060913460070056e-05,-1.183564708507197857e-04
2.378571428571428559e+00,2.224664678163946322e-05,-9.386429332588290520e-05
2.379365079365079350e+00,2.358269223302150326e-05,-5.315421204497898050e-05
2.380158730158730140e+00,2.369792136189204473e-05,-3.469468724299873838e-06
2.380952380952380931e+00,2.217323794123000167e-05,4.687189947648270238e-05
2.381746031746031722e+00,1.877311232775600509e-05,9.026182556175553582e-05
2.382539682539682513e+00,1.355223664097029102e-05,1.211519935636858259e-04
2.383333333333333304e+00,6.905867010362244437e-06,1.367591861196507206e-04
2.384126984126984095e+00,-4.543758481487862039e-07,1.371313498060816962e-04
2.384920634920634885e+00,-7.597825433264262161e-06,1.247093019779858586e-04
2.385714285714285676e+00,-1.352400459219304491e-05,1.035580615779470331e-04
2.386507936507936467e+00,-1.733119670850546913e-05,7.843955243982186020e-05
2.387301587301587258e+00,-1.837335356018512521e-05,5.389467158383529896e-05
2.388095238095238049e+00,-1.638498416017656229e-05,3.349136236652945078e-05
2.388888888888888840e+00,-1.156362930113584038e-05,1.935404838029335404e-05
2.389682539682539630e+00,-4.601155851909311183e-06,1.202012038821322801e-05
2.390476190476190421e+00,3.350912441372103791e-06,1.059611974810204389e-05
2.391269841269841212e+00,1.080200414668453781e-05,1.313432239830016805e-05
2.392063492063492003e+00,1.614344212587706843e-05,1.712980137949544896e-05
2.392857142857142794e+00,1.796283537860213412e-05,2.004483409822863679e-05
2.393650793650793585e+00,1.541025374238432573e-05,1.978886029994232886e-05
2.394444444444444375e+00,8.533988596338385087e-06,1.510337871303927720e-05
2.395238095238095166e+00,-1.529029057997015107e-06,5.812936276237119834e-06
2.396031746031745957e+00,-1.262585957695799638e-05,-7.094146693617610105e-06
2.396825396825396748e+00,-2.198867090261638055e-05,-2.158940501369193931e-05
2.397619047619047539e+00,-2.691855399182446941e-05,-3.495031742697246591e-05
2.398412698412698330e+00,-2.557671699906531788e-05,-4.430596674399174767e-05
2.399206349206349120e+00,-1.762975025121020755e-05,-4.729498803192100668e-05
2.399999999999999911e+00,-4.516477849087428504e-06,-4.268341823484197973e-05
2.400793650793650702e+00,1.078536264288577868e-05,-3.076322252003217542e-05
2.401587301587301493e+00,2.446132807618039737e-05,-1.339280085138509901e-05
2.402380952380952284e+00,3.285424842048346474e-05,6.360793810426151951e-06
2.403174603174603075e+00,3.347018397475064552e-05,2.490197821256787114e-05
2.403968253968253865e+00,2.568570552873412105e-05,3.893382062885697003e-05
2.404761904761904656e+00,1.091396459667459137e-05,4.619835571910574921e-05
2.405555555555555447e+00,-7.838525586547704906e-06,4.591152588852293596e-05
2.406349206349206238e+00,-2.686276210433185255e-05,3.878340313914006962e-05
2.407142857142857029e+00,-4.275024465001610232e-05,2.667390858955769352e-05
2.407936507936507819e+00,-5.315271539869320872e-05,1.205468760882466610e-05
2.408730158730158610e+00,-5.708235340850908838e-05,-2.530214846208478736e-06
2.409523809523809401e+00,-5.474678697400053390e-05,-1.487803132132335156e-05
2.410317460317460192e+00,-4.708727007269636913e-05,-2.338663171632638055e-05
2.411111111111110983e+00,-3.526142682011694258e-05,-2.720128034172077049e-05
2.411904761904761774e+00,-2.028125155217368804e-05,-2.629572800863581896e-05
2.412698412698412564e+00,-2.920308266364482022e-06,-2.148177611991857692e-05
2.413492063492063355e+00,1.611255088726381936e-05,-1.428381649805054909e-05
2.414285714285714146e+00,3.583755226034309724e-05,-6.615313505390287554e-06
2.415079365079364937e+00,5.467658196276644592e-05,-2.760666908589117573e-07
2.415873015873015728e+00,7.031877702801585066e-05,3.586625016820073373e-06
2.416666666666666519e+00,7.991969301516885650e-05,4.827575607823319711e-06
2.417460317460317309e+00,8.067375758361136802e-05,4.276382423184397084e-06
2.418253968253968100e+00,7.065817987788122626e-05,3.308954292577486522e-06
2.419047619047618891e+00,4.969785595588390538e-05,3.195665859923331651e-06
2.419841269841269682e+00,1.990457585841414687e-05,4.519424302892082124e-06
2.420634920634920473e+00,-1.442112923537431926e-05,6.914782253042102781e-06
2.421428571428571264e+00,-4.762853676177655179e-05,9.211178498783988004e-06
2.422222222222222054e+00,-7.408444830950623500e-05,9.876840225451987521e-06
2.423015873015872845e+00,-8.960426867478427538e-05,7.557212194730086725e-06
2.423809523809523636e+00,-9.243340599619492956e-05,1.512983767657570781e-06
2.424603174603174427e+00,-8.345634249216636364e-05,-8.153868886674095056e-06
2.425396825396825218e+00,-6.563888574395155661e-05,-2.050631604731393661e-05
2.426190476190476009e+00,-4.299899022075714749e-05,-3.397306004440184550e-05
2.426984126984126799e+00,-1.950984186077700172e-05,-4.668094116426058755e-05
2.427777777777777590e+00,1.741925374958745935e-06,-5.683968053246228082e-05
2.428571428571428381e+00,1.898348169575436056e-05,-6.308636222945618625e-05
2.429365079365079172e+00,3.175660318968922201e-05,-6.470778019140387518e-05
2.430158730158729963e+00,4.058183002368680918e-05,-6.170333875154889488e-05
2.430952380952380754e+00,4.643357299931200754e-05,-5.470680800234008570e-05
2.431746031746031544e+00,5.018957163553014038e-05,-4.482165594257828578e-05
2.432539682539682335e+00,5.220284479448350571e-05,-3.343072838210742642e-05
2.433333333333333126e+00,5.211372201373227667e-05,-2.202262626049002363e-05
2.434126984126983917e+00,4.897337467209148871e-05,-1.204648012940091764e-05
2.434920634920634708e+00,4.167470544847163937e-05,-4.779196926151829795e-06
2.435714285714285499e+00,2.957952819938567760e-05,-1.179541903818305356e-06
2.436507936507936289e+00,1.312072920471155010e-05,-1.717438499805695688e-06
2.437301587301587080e+00,-5.896749312456336417e-06,-6.196232550902107648e-06
2.438095238095238315e+00,-2.450634421113428169e-05,-1.361435479233934930e-05
2.438888888888889106e+00,-3.930914550764724443e-05,-2.212857606826681812e-05
2.439682539682539897e+00,-4.747186402133870149e-05,-2.917942469728118424e-05
2.440476190476190688e+00,-4.758305275178769446e-05,-3.182018950680302167e-05
2.441269841269841478e+00,-4.000662210463956799e-05,-2.725486740487809836e-05
2.442063492063492269e+00,-2.661015558309398943e-05,-1.353724040243240649e-05
2.442857142857143060e+00,-1.003379475051588307e-05,9.686469732729808063e-06
2.443650793650793851e+00,7.149198452835893600e-06,4.058483382079412479e-05
2.444444444444444642e+00,2.302126870468069696e-05,7.494194168186394203e-05
2.445238095238095433e+00,3.645282334247544506e-05,1.065707288468039054e-04
2.446031746031746223e+00,4.681176528576659086e-05,1.284222819316144996e-04
2.446825396825397014e+00,5.350343856559991879e-05,1.342389324122915124e-04
2.447619047619047805e+00,5.567514077589904008e-05,1.203398525722768433e-04
2.448412698412698596e+00,5.230010372029027482e-05,8.696791929535618393e-05
2.449206349206349387e+00,4.260109586024185085e-05,3.867580742435171493e-05
2.450000000000000178e+00,2.655304337364159382e-05,-1.648900852721769692e-05
2.450793650793650968e+00,5.168873755233701000e-06,-6.882507751993595163e-05
2.451587301587301759e+00,-1.956357987127683887e-05,-1.093008369919965450e-04
2.452380952380952550e+00,-4.500235612784885686e-05,-1.316640331807193535e-04
2.453174603174603341e+00,-6.822945611401184853e-05,-1.337457908184784929e-04
2.453968253968254132e+00,-8.634930571235625071e-05,-1.176554941431423227e-04
2.454761904761904923e+00,-9.671575795621494757e-05,-8.890077250347750641e-05
2.455555555555555713e+00,-9.718979453363866400e-05,-5.475396696471953375e-05
2.456349206349206504e+00,-8.651243865581479786e-05,-2.235834539665196869e-05
2.457142857142857295e+00,-6.477507175931873152e-05,2.910367990511625948e-06
2.457936507936508086e+00,-3.384299524822884705e-05,1.843399490650625124e-05
2.458730158730158877e+00,2.503253842377293342e-06,2.451951432560765023e-05
2.459523809523809668e+00,3.893721967044188784e-05,2.381231890562857397e-05
2.460317460317460458e+00,6.953892212717265877e-05,2.021371578499974429e-05
2.461111111111111249e+00,8.913424505739427582e-05,1.765223748486718320e-05
2.461904761904762040e+00,9.459630770248928888e-05,1.904107716557868165e-05
2.462698412698412831e+00,8.565191920723801936e-05,2.565128054630822586e-05
2.463492063492063622e+00,6.492045606624424032e-05,3.698255791876251241e-05
2.464285714285714413e+00,3.719435556210248968e-05,5.107341600589968109e-05
2.465079365079365203e+00,8.212961566782951193e-06,6.510671863813365719e-05
2.465873015873015994e+00,-1.669194021607866860e-05,7.614350068626414266e-05
2.466666666666666785e+00,-3.370841119962697074e-05,8.182557802530060769e-05
2.467460317460317576e+00,-4.116218452504453957e-05,8.090068900350040029e-05
2.468253968253968367e+00,-3.955918547791819256e-05,7.345070528644877369e-05
2.469047619047619158e+00,-3.113218401491022212e-05,6.076447109892002925e-05
2.469841269841269948e+00,-1.907701391884482001e-05,4.489236713241298831e-05
2.470634920634920739e+00,-6.701892393990415282e-06,2.802188689726007169e-05
2.471428571428571530e+00,3.307703444871952556e-06,1.188127099678851345e-05
2.472222222222222321e+00,9.365917318600148160e-06,-2.623134914200746116e-06
2.473015873015873112e+00,1.113941026123823000e-05,-1.541298990388067198e-05
2.473809523809523903e+00,9.388449755708061034e-06,-2.690574193490762590e-05
2.474603174603174693e+00,5.575774051927304608e-06,-3.750330176522914113e-05
2.475396825396825484e+00,1.369464369261126072e-06,-4.713670862929727421e-05
2.476190476190476275e+00,-1.818793655785242972e-06,-5.507648874425540681e-05
2.476984126984127066e+00,-3.142820631800755924e-06,-6.009985698679182837e-05
2.477777777777777857e+00,-2.420489122597852459e-06,-6.094269323482452553e-05
2.478571428571428648e+00,-3.709315782489142042e-08,-5.683106188963369553e-05
2.479365079365079438e+00,3.273344533559289225e-06,-4.785337476479362443e-05
2.480158730158730229e+00,6.675299175581297043e-06,-3.501998889509359055e-05
2.480952380952381020e+00,9.433324108428125769e-06,-2.001223786687714279e-05
2.481746031746031811e+00,1.103516114115114476e-05,-4.760786292814135086e-06
2.482539682539682602e+00,1.123992819260245509e-05,8.951680808013564423e-06
2.483333333333333393e+00,1.006991771330608903e-05,1.970970646499769141e-05
2.484126984126984183e+00,7.763365022912588673e-06,2.646123413019641418e-05
2.484920634920634974e+00,4.702677448559572227e-06,2.837074612554518559e-05
2.485714285714285765e+00,1.332673114825217245e-06,2.469340789846268268e-05
2.486507936507936556e+00,-1.918301650446958291e-06,1.483234302354991937e-05
2.487301587301587347e+00,-4.705521996262673228e-06,-1.354761402878514296e-06
2.488095238095238138e+00,-6.816095527583212071e-06,-2.308272032773982550e-05
2.488888888888888928e+00,-8.189825030158066809e-06,-4.821209713084182705e-05
2.489682539682539719e+00,-8.905392301754705748e-06,-7.312363057429802939e-05
2.490476190476190510e+00,-9.131335428930080622e-06,-9.307698461028349765e-05
2.491269841269841301e+00,-9.052162268854358349e-06,-1.030740690249393925e-04
2.492063492063492092e+00,-8.790726844639933321e-06,-9.905305180361193907e-05
2.492857142857142883e+00,-8.354381139463055428e-06,-7.908593597828091613e-05
2.493650793650793673e+00,-7.630242039211533717e-06,-4.420087004576995067e-05
2.494444444444444464e+00,-6.440965396672290135e-06,1.472890447682372796e-06
2.495238095238095255e+00,-4.647477465871974539e-06,5.135371431933628741e-05
2.496031746031746046e+00,-2.258151251742559605e-06,9.773020428296776726e-05
2.496825396825396837e+00,5.085234587468711430e-07,1.334281489842047716e-04
2.497619047619047628e+00,3.245558331012170633e-06,1.533789435845575155e-04
2.498412698412698418e+00,5.462945426620796445e-06,1.556659399169670196e-04
2.499206349206349209e+00,6.737559519378024760e-06,1.417675082988963543e-04
2.500000000000000000e+00,6.850263243337963654e-06,1.159390299679031615e-04
2.500793650793650791e+00,5.861587181539496359e-06,8.392366160211922946e-05
2.501587301587301582e+00,4.102112402924536424e-06,5.138473979389083488e-05
2.502380952380952372e+00,2.081810512499798708e-06,2.254032116526317442e-05
2.503174603174603163e+00,3.463172433042463448e-07,-5.914101853890889875e-07
2.503968253968253954e+00,-6.767102797767034135e-07,-1.814574177447635258e-05
2.504761904761904745e+00,-7.949839001936182335e-07,-3.166202261473539096e-05
2.505555555555555536e+00,-9.794150624724219315e-08,-4.297369033954140789e-05
2.506349206349206327e+00,1.079676999518137793e-06,-5.318716540469991676e-05
2.507142857142857117e+00,2.262745644113720880e-06,-6.213289428284368080e-05
2.507936507936507908e+00,2.975744563021604553e-06,-6.846047756836746610e-05
2.508730158730158699e+00,2.877828028265933857e-06,-7.027806041264693805e-05
2.509523809523809490e+00,1.858899145991405767e-06,-6.602401185792965361e-05
2.510317460317460281e+00,7.721965703241377950e-08,-5.520219765628472225e-05
2.511111111111111072e+00,-2.063638564327240751e-06,-3.871800962620919692e-05
2.511904761904761862e+00,-3.987409730914683426e-06,-1.874101534282523855e-05
2.512698412698412653e+00,-5.051342278111650456e-06,1.806692618434181367e-06
2.513492063492063444e+00,-4.672189581072335058e-06,1.993840596787211668e-05
2.514285714285714235e+00,-2.460409749602692195e-06,3.325647545329142400e-05
2.515079365079365026e+00,1.653601100490215557e-06,4.041744196483351481e-05
2.515873015873015817e+00,7.328709231631689168e-06,4.134338050843448770e-05
2.516666666666666607e+00,1.379443579947237457e-05,3.719369051821566716e-05
2.517460317460317398e+00,1.993680114290229292e-05,3.014982642068490519e-05
2.518253968253968189e+00,2.449540922142204986e-05,2.305887718149188359e-05
2.519047619047618980e+00,2.633551288629390523e-05,1.895585301367563898e-05
2.519841269841269771e+00,2.471552912725321905e-05,2.047544068636634183e-05
2.520634920634920562e+00,1.945523057438330934e-05,2.919752251528297593e-05
2.521428571428571352e+00,1.094504735528769492e-05,4.504489857214287240e-05
2.522222222222222143e+00,1.403012297476609116e-08,6.592597441082968281e-05
2.523015873015872934e+00,-1.225425419104992083e-05,8.782483048303007427e-05
2.523809523809523725e+00,-2.465903617830680241e-05,1.054444817000386238e-04
2.524603174603174516e+00,-3.594199942210318869e-05,1.133291476677286160e-04
2.525396825396825307e+00,-4.483025200450684418e-05,1.072077691891765779e-04
2.526190476190476097e+00,-5.015274435629259701e-05,8.520267110780843308e-05
2.526984126984126888e+00,-5.105464688707610107e-05,4.857452454391907596e-05
2.527777777777777679e+00,-4.723738579645566304e-05,1.791224338276976896e-06
2.528571428571428470e+00,-3.911074986481008053e-05,-4.815322819575001371e-05
2.529365079365079261e+00,-2.777603600612233535e-05,-9.309961715434951360e-05
2.530158730158730052e+00,-1.482642098999304772e-05,-1.255158371755494314e-04
2.530952380952380842e+00,-2.017889771906819539e-06,-1.402887853750147741e-04
2.531746031746031633e+00,9.088898317539649834e-06,-1.360099698570300865e-04
2.532539682539682424e+00,1.740830493024896557e-05,-1.153682579932431806e-04
2.533333333333333215e+00,2.246137853284589734e-05,-8.452749524041044732e-05
2.534126984126984006e+00,2.435001732139071285e-05,-5.165187480457224419e-05
2.534920634920634797e+00,2.361424866646221247e-05,-2.495888817811357284e-05
2.535714285714285587e+00,2.103570840109373046e-05,-1.079268905211588143e-05
2.536507936507936378e+00,1.744661014217256656e-05,-1.219730944176228554e-05
2.537301587301587169e+00,1.358429771345231069e-05,-2.832503277094667614e-05
2.538095238095237960e+00,1.000760531256913108e-05,-5.478547179845631233e-05
2.538888888888888751e+00,7.070126569713030220e-06,-8.480388879031204000e-05
2.539682539682539542e+00,4.932767241751984504e-06,-1.108755049904508482e-04
2.540476190476190332e+00,3.596816705167653604e-06,-1.265062487990888866e-04
2.541269841269841123e+00,2.945958321057750436e-06,-1.276336143782161238e-04
2.542063492063491914e+00,2.792649304474583533e-06,-1.134211105699658729e-04
2.542857142857142705e+00,2.925652140741179481e-06,-8.628202692758404858e-05
2.543650793650793496e+00,3.153277611760614986e-06,-5.116187384994024385e-05
2.544444444444444287e+00,3.336047519252594984e-06,-1.425973140992549947e-05
2.545238095238095077e+00,3.404510287715520831e-06,1.851210589607210492e-05
2.546031746031745868e+00,3.360786473012183329e-06,4.295003821233275322e-05
2.546825396825396659e+00,3.264398067572948661e-06,5.746960838092767535e-05
2.547619047619047450e+00,3.204504303859836724e-06,6.321646113031355264e-05
2.548412698412698241e+00,3.263029845962714444e-06,6.333224334052311565e-05
2.549206349206349032e+00,3.476731458792286322e-06,6.163548008829133472e-05
2.549999999999999822e+00,3.809770576886239481e-06,6.119603343779592293e-05
2.550793650793650613e+00,4.148815496570403292e-06,6.330226135211765282e-05
2.551587301587301404e+00,4.327151201703239954e-06,6.715357416270025263e-05
2.552380952380952195e+00,4.173113715065412755e-06,7.034900866314633167e-05
2.553174603174602986e+00,3.566509536793435604e-06,6.997180575954216211e-05
2.553968253968253777e+00,2.481761109804274680e-06,6.385868996697035508e-05
2.554761904761904567e+00,1.001978153195512515e-06,5.156398680266076513e-05
2.555555555555555358e+00,-6.996619915792594976e-07,3.463755924600295526e-05
2.556349206349206149e+00,-2.403477537119279271e-06,1.610638913620914773e-05
2.557142857142856940e+00,-3.897782985556110781e-06,-6.324203828834435093e-07
2.557936507936507731e+00,-5.028484738661853461e-06,-1.307009574003134257e-05
2.558730158730158522e+00,-5.729256012113642630e-06,-2.050063147742287655e-05
2.559523809523809312e+00,-6.022670196061458851e-06,-2.422091769226920641e-05
2.560317460317460103e+00,-5.990988914950733628e-06,-2.691575805337052531e-05
2.561111111111110894e+00,-5.725134858358523279e-06,-3.145593388129303296e-05
2.561904761904761685e+00,-5.269249841135312822e-06,-3.959778332941469350e-05
2.562698412698412920e+00,-4.583344015763018202e-06,-5.113390323888389435e-05
2.563492063492063711e+00,-3.544323099541855164e-06,-6.385353871811052628e-05
2.564285714285714501e+00,-1.993930458375848247e-06,-7.431094681217630766e-05
2.565079365079365292e+00,1.763469193173201494e-07,-7.905581778476615540e-05
2.565873015873016083e+00,2.930985691524473750e-06,-7.581862727066570554e-05
2.566666666666666874e+00,6.023702554030017339e-06,-6.421147509636447018e-05
2.567460317460317665e+00,8.992602586555695912e-06,-4.573322097802510772e-05
2.568253968253968456e+00,1.123555624041244249e-05,-2.314872827840055029e-05
2.569047619047619246e+00,1.215703040209991239e-05,4.551592449534353380e-07
2.569841269841270037e+00,1.134877555584452830e-05,2.253353007502178850e-05
2.570634920634920828e+00,8.750353591024259028e-06,4.153805624315416446e-05
2.571428571428571619e+00,4.739000012637274881e-06,5.684827917510770231e-05
2.572222222222222410e+00,1.170983334562628313e-07,6.831380771921224222e-05
2.573015873015873201e+00,-4.010256716440588916e-06,7.570570943289229541e-05
2.573809523809523991e+00,-6.451670172489963881e-06,7.839454267842916669e-05
2.574603174603174782e+00,-6.202722914858221227e-06,7.545472427351930544e-05
2.575396825396825573e+00,-2.721373791100796295e-06,6.618983403535586073e-05
2.576190476190476364e+00,3.859742525477304408e-06,5.085695874274609788e-05
2.576984126984127155e+00,1.264754520414173032e-05,3.123216674690443300e-05
2.577777777777777946e+00,2.207404830608987741e-05,1.067927082717103006e-05
2.578571428571428736e+00,3.016090692628860812e-05,-6.424615446404852728e-06
2.579365079365079527e+00,3.491938432540081131e-05,-1.576548747167979820e-05
2.580158730158730318e+00,3.479084471645388669e-05,-1.429420021855195719e-05
2.580952380952381109e+00,2.900601902776794069e-05,-1.125854877388392978e-06
2.581746031746031900e+00,1.776138196542780798e-05,2.215025289093281740e-05
2.582539682539682691e+00,2.176311655314350714e-06,5.181412172463247825e-05
2.583333333333333481e+00,-1.592843723368793274e-05,8.287393491867820503e-05
2.584126984126984272e+00,-3.434500809517062215e-05,1.101598260578235712e-04
2.584920634920635063e+00,-5.080425442071382280e-05,1.293209875713010649e-04
2.585714285714285854e+00,-6.326929441069079334e-05,1.374733308490546583e-04
2.586507936507936645e+00,-7.018804583962297695e-05,1.334194495841657039e-04
2.587301587301587436e+00,-7.070485179661423322e-05,1.175240678327936305e-04
2.588095238095238226e+00,-6.481473422424800291e-05,9.140122430248283868e-05
2.588888888888889017e+00,-5.342002821956046404e-05,5.756183487842117752e-05
2.589682539682539808e+00,-3.824164039487889887e-05,1.911272277858187121e-05
2.590476190476190599e+00,-2.156228367711055747e-05,-2.048985048822382938e-05
2.591269841269841390e+00,-5.831578465218844847e-06,-5.770518683063669273e-05
2.592063492063492181e+00,6.785935482271088948e-06,-8.926579027545852396e-05
2.592857142857142971e+00,1.481959579725810561e-05,-1.126144042210532118e-04
2.593650793650793762e+00,1.777706900625431998e-05,-1.262990991308647495e-04
2.594444444444444553e+00,1.626105493474148104e-05,-1.301628914690206918e-04
2.595238095238095344e+00,1.190562334521401502e-05,-1.252198972814679392e-04
2.596031746031746135e+00,7.133373250336592596e-06,-1.132317314478403124e-04
2.596825396825396925e+00,4.742897526262767902e-06,-9.612574290251011734e-05
2.597619047619047716e+00,7.357451244907543315e-06,-7.547252623124469457e-05
2.598412698412698507e+00,1.680467995634588754e-05,-5.222743656004898854e-05
2.599206349206349298e+00,3.353885696373652806e-05,-2.683759046602123539e-05
2.600000000000000089e+00,5.624224104131225033e-05,3.427643773589399282e-07
2.600793650793650880e+00,8.174053687674842118e-05,2.853189520122515513e-05
2.601587301587301670e+00,1.053336781969475648e-04,5.615532863565626570e-05
2.602380952380952461e+00,1.215697557340776949e-04,8.082632447718168388e-05
2.603174603174603252e+00,1.253725003211834683e-04,9.970414201310271330e-05
2.603968253968254043e+00,1.132871577359280803e-04,1.100985149000834555e-04
2.604761904761904834e+00,8.449135161908634698e-05,1.100983308276515032e-04
2.605555555555555625e+00,4.121818296051248071e-05,9.902035713842988359e-05
2.606349206349206415e+00,-1.158017539891768271e-05,7.757169986383273303e-05
2.607142857142857206e+00,-6.720463494973497715e-05,4.772721353096169659e-05
2.607936507936507997e+00,-1.184676273117453579e-04,1.239311467496265766e-05
2.608730158730158788e+00,-1.588712412030963050e-04,-2.503726315392547374e-05
2.609523809523809579e+00,-1.834881196971603211e-04,-6.112279724910420621e-05
2.610317460317460370e+00,-1.894905888065056177e-04,-9.272636650803931044e-05
2.611111111111111160e+00,-1.763528277490617662e-04,-1.172544283912782336e-04
2.611904761904761951e+00,-1.457656436711781095e-04,-1.328068383593276132e-04
2.612698412698412742e+00,-1.013087150723597502e-04,-1.382692290167765177e-04
2.613492063492063533e+00,-4.794310741924079117e-05,-1.333651412435133668e-04
2.614285714285714324e+00,8.591713147341836860e-06,-1.186721939166364290e-04
2.615079365079365115e+00,6.238643808435941985e-05,-9.560540778547925640e-05
2.615873015873015905e+00,1.079138323156331170e-04,-6.637099657721580036e-05
2.616666666666666696e+00,1.405187540646312782e-04,-3.388371577812370318e-05
2.617460317460317487e+00,1.568860327381570358e-04,-1.621826175798472396e-06
2.618253968253968278e+00,1.555069762220258225e-04,2.662013651403225204e-05
2.619047619047619069e+00,1.370745536645496144e-04,4.711793537575372978e-05
2.619841269841269860e+00,1.046381704779053351e-04,5.676045534397241931e-05
2.620634920634920650e+00,6.333511094220476638e-05,5.372460674371292577e-05
2.621428571428571441e+00,1.962896014572763283e-05,3.818461481964981397e-05
2.622222222222222232e+00,-1.982805832875526495e-05,1.285630826544698931e-05
2.623015873015873023e+00,-4.943733492563653562e-05,-1.690478783107625152e-05
2.623809523809523814e+00,-6.568334160572221264e-05,-4.371397669708352072e-05
2.624603174603174605e+00,-6.770507108287888466e-05,-5.956111557364640488e-05
2.625396825396825395e+00,-5.730793558312933242e-05,-5.778360615543853157e-05
2.626190476190476186e+00,-3.845893434323485862e-05,-3.507784134680310887e-05
2.626984126984126977e+00,-1.639882546582454757e-05,7.118837615544902332e-06
2.627777777777777768e+00,3.460640218742679700e-06,6.241332395916340987e-05
2.628571428571428559e+00,1.667014133713081936e-05,1.205806776652138212e-04
2.629365079365079350e+00,2.069460364778365734e-05,1.697497280761396784e-04
2.630158730158730140e+00,1.545366625994098209e-05,1.990474813351823715e-04
2.630952380952380931e+00,3.273556060099061926e-06,2.010231432300396345e-04
2.631746031746031722e+00,-1.177861191556274021e-05,1.733027647913987375e-04
2.632539682539682513e+00,-2.501890203019812802e-05,1.191346366490672202e-04
2.633333333333333304e+00,-3.243457832657330474e-05,4.671704621666061206e-05
2.634126984126984095e+00,-3.180453789097417532e-05,-3.253414335678448218e-05
2.634920634920634885e+00,-2.336228566013134346e-05,-1.063590486109406336e-04
2.635714285714285676e+00,-9.805512421992014946e-06,-1.640933316230421262e-04
2.636507936507936467e+00,4.397041471628929355e-06,-1.986110289727963162e-04
2.637301587301587258e+00,1.425870978205856182e-05,-2.073662593994476749e-04
2.638095238095238049e+00,1.575996753697619262e-05,-1.923708497646072076e-04
2.638888888888888840e+00,7.134068423789872973e-06,-1.592119801301280504e-04
2.639682539682539630e+00,-1.044916041268353591e-05,-1.154504180975458026e-04
2.640476190476190421e+00,-3.304058714574597888e-05,-6.887397706219970488e-05
2.641269841269841212e+00,-5.489844346996797768e-05,-2.605386343049545606e-05
2.642063492063492003e+00,-7.003487928908999876e-05,8.522446387230950046e-06
2.642857142857142794e+00,-7.387065839591747964e-05,3.269446986283649359e-05
2.643650793650793585e+00,-6.449601649531801076e-05,4.637441436269901268e-05
2.644444444444444375e+00,-4.314572606782320242e-05,5.099867052793516636e-05
2.645238095238095166e+00,-1.375856468065878884e-05,4.888551425068443862e-05
2.646031746031745957e+00,1.817761145462998295e-05,4.264890005704143235e-05
2.646825396825396748e+00,4.705234526452500794e-05,3.474643317419809238e-05
2.647619047619047539e+00,6.836569146875000195e-05,2.717246419596763108e-05
2.648412698412698330e+00,7.948587166745092194e-05,2.126962926969663866e-05
2.649206349206349120e+00,7.989044862706500417e-05,1.763408156343371856e-05
2.649999999999999911e+00,7.100297514318430878e-05,1.611718458090024525e-05
2.650793650793650702e+00,5.576127237838624071e-05,1.594805885631402865e-05
2.651587301587301493e+00,3.800455887945017590e-05,1.598949384625523293e-05
2.652380952380952284e+00,2.172323005961853025e-05,1.509309915151611534e-05
2.653174603174603075e+00,1.022675931592423066e-05,1.246565562981681654e-05
2.653968253968253865e+00,5.355947202592328189e-06,7.933871628050004975e-06
2.654761904761904656e+00,6.948801323471566218e-06,2.019483949454343397e-06
2.655555555555555447e+00,1.278461006339717898e-05,-4.198503155500118135e-06
2.656349206349206238e+00,1.912204550087058251e-05,-9.384097429366417518e-06
2.657142857142857029e+00,2.173989319422978361e-05,-1.230588605732443387e-05
2.657936507936507819e+00,1.718668515511763992e-05,-1.214698690826186644e-05
2.658730158730158610e+00,3.857328391415240616e-06,-8.679305026769826189e-06
2.659523809523809401e+00,-1.742102683554800637e-05,-2.274138545576265230e-06
2.660317460317460192e+00,-4.344378735491981883e-05,6.222109187059104772e-06
2.661111111111110983e+00,-6.928927575179733901e-05,1.568747985496952166e-05
2.661904761904761774e+00,-8.940893436135106216e-05,2.494088719096974584e-05
2.662698412698412564e+00,-9.889022893015574002e-05,3.293484084475470434e-05
2.663492063492063355e+00,-9.460658669302351759e-05,3.890047707501912138e-05
2.664285714285714146e+00,-7.599278211348796050e-05,4.243200413455546009e-05
2.665079365079364937e+00,-4.526136218206786455e-05,4.350766384417749990e-05
2.665873015873015728e+00,-6.994796397337111371e-06,4.245396132632692096e-05
2.666666666666666519e+00,3.280690962126499272e-05,3.986560921903453908e-05
2.667460317460317309e+00,6.799218614703571512e-05,3.649524570541994039e-05
2.668253968253968100e+00,9.349696627473947643e-05,3.312838592954586741e-05
2.669047619047618891e+00,1.062213396644917353e-04,3.046057155348754861e-05
2.669841269841269682e+00,1.053570257814160927e-04,2.899122052709587986e-05
2.670634920634920473e+00,9.220011567173096048e-05,2.894195351056118746e-05
2.671428571428571264e+00,6.965099453619800996e-05,3.020251268445094334e-05
2.672222222222222054e+00,4.163722461391729718e-05,3.231042300295345932e-05
2.673015873015872845e+00,1.260621266567387844e-05,3.447908910321579933e-05
2.673809523809523636e+00,-1.290706089319078736e-05,3.569268857510055998e-05
2.674603174603174427e+00,-3.074144030176721671e-05,3.487250613747055220e-05
2.675396825396825218e+00,-3.771447402742243591e-05,3.108585034088516026e-05
2.676190476190476009e+00,-3.237761268355199631e-05,2.373314008852213692e-05
2.676984126984126799e+00,-1.575208236427716644e-05,1.264259016379122944e-05
2.677777777777777590e+00,8.273338637973811252e-06,-1.953091994842114605e-06
2.678571428571428381e+00,3.322570513230295805e-05,-1.950228249947681154e-05
2.679365079365079172e+00,5.120289857395748565e-05,-3.916836972571297162e-05
2.680158730158729963e+00,5.478694900942785914e-05,-5.972707390951453480e-05
2.680952380952380754e+00,3.925461262332397819e-05,-7.935708618075916325e-05
2.681746031746031544e+00,4.384537220978297675e-06,-9.547738087613261539e-05
2.682539682539682335e+00,-4.483506700036600984e-05,-1.048376885447315654e-04
2.683333333333333126e+00,-9.899469155084646230e-05,-1.040236039952332803e-04
2.684126984126983917e+00,-1.464395142329478886e-04,-9.039297403901179874e-05
2.684920634920634708e+00,-1.762294952864142540e-04,-6.323518881769642306e-05
2.685714285714285499e+00,-1.810070614423881614e-04,-2.473177059379795718e-05
2.686507936507936289e+00,-1.589277767834936796e-04,1.975587323099183885e-05
2.687301587301587080e+00,-1.140990004955894023e-04,6.235892590320420679e-05
2.688095238095238315e+00,-5.542386771589761650e-05,9.427547033674173627e-05
2.688888888888889106e+00,5.760619453885237208e-06,1.078568932702292344e-04
2.689682539682539897e+00,5.850304724765799423e-05,9.863628604729467880e-05
2.690476190476190688e+00,9.468976442997983391e-05,6.673944163148265798e-05
2.691269841269841478e+00,1.105252580789981709e-04,1.728610869626327369e-05
2.692063492063492269e+00,1.068145632707681602e-04,-4.035579465095390120e-05
2.692857142857143060e+00,8.817963990878944711e-05,-9.433063570881524611e-05
2.693650793650793851e+00,6.157314517877331508e-05,-1.327127487415267050e-04
2.694444444444444642e+00,3.453758187653539026e-05,-1.460784205005165206e-04
2.695238095238095433e+00,1.361728282300865678e-05,-1.296796644465123265e-04
2.696031746031746223e+00,3.205488104452445293e-06,-8.472263913473465874e-05
2.696825396825397014e+00,4.954606793484082228e-06,-1.841329415599067749e-05
2.697619047619047805e+00,1.774578266362404887e-05,5.732359317979410213e-05
2.698412698412698596e+00,3.812623386782889825e-05,1.282540209830135942e-04
2.699206349206349387e+00,6.107633320521936636e-05,1.808762481869991717e-04
2.700000000000000178e+00,8.095648800238150803e-05,2.053604323312375134e-04
2.700793650793650968e+00,9.250110729193973785e-05,1.975997761808622757e-04
2.701587301587301759e+00,9.175151053140073384e-05,1.598248781862023397e-04
2.702380952380952550e+00,7.681767426191831870e-05,9.970950911837251826e-05
2.703174603174603341e+00,4.833185772529125944e-05,2.837277763617395541e-05
2.703968253968254132e+00,9.463075539179104662e-06,-4.208015055473208284e-05
2.704761904761904923e+00,-3.455467538922681265e-05,-1.008851730142076907e-04
2.705555555555555713e+00,-7.730445461380899049e-05,-1.404122960341720261e-04
2.706349206349206504e+00,-1.123188613765807174e-04,-1.571971821583070805e-04
2.707142857142857295e+00,-1.342739347785508908e-04,-1.521028371678079922e-04
2.707936507936508086e+00,-1.400318496687763786e-04,-1.296290673507169650e-04
2.708730158730158877e+00,-1.292894480418483206e-04,-9.655873129867075519e-05
2.709523809523809668e+00,-1.046188129673328776e-04,-6.029293271704057712e-05
2.710317460317460458e+00,-7.083366247150358892e-05,-2.729180399548241357e-05
2.711111111111111249e+00,-3.384020569323277250e-05,-1.967599898344423360e-06
2.711904761904762040e+00,6.868672459676609417e-07,1.378763045242040941e-05
2.712698412698412831e+00,2.842064730310920077e-05,2.044450561515484294e-05
2.713492063492063622e+00,4.701204091085549672e-05,2.020238280303726552e-05
2.714285714285714413e+00,5.613890170794417578e-05,1.611124446050659508e-05
2.715079365079365203e+00,5.706390852130346903e-05,1.118847765051407333e-05
2.715873015873015994e+00,5.191974060797547523e-05,7.722527128503932416e-06
2.716666666666666785e+00,4.298560372227767126e-05,6.877867535907654576e-06
2.717460317460317576e+00,3.217839339989754023e-05,8.629890190653641290e-06
2.718253968253968367e+00,2.087478619184838567e-05,1.198366680335438937e-05
2.719047619047619158e+00,1.004605182066606814e-05,1.538108939561645593e-05
2.719841269841269948e+00,5.730765050400305336e-07,1.718125689037721960e-05
2.720634920634920739e+00,-6.446553126112704340e-06,1.610545142306885009e-05
2.721428571428571530e+00,-9.572638823158801267e-06,1.156282451790900819e-05
2.722222222222222321e+00,-7.180184365321969315e-06,3.807763860866564228e-06
2.723015873015873112e+00,2.096775690872988679e-06,-6.082241842620532028e-06
2.723809523809523903e+00,1.873783703367514663e-05,-1.638593514332499574e-05
2.724603174603174693e+00,4.171453535021989130e-05,-2.503237545831562560e-05
2.725396825396825484e+00,6.810910010138390930e-05,-2.996415451057426348e-05
2.726190476190476275e+00,9.319198581193366762e-05,-2.952708853187829754e-05
2.726984126984127066e+00,1.110855340556011860e-04,-2.283692598029195495e-05
2.727777777777777857e+00,1.159794113415933101e-04,-1.005747751184157986e-05
2.728571428571428648e+00,1.036582002467114678e-04,7.482993182955179800e-06
2.729365079365079438e+00,7.291314532376223150e-05,2.739460082762802239e-05
2.730158730158730229e+00,2.633535854135161158e-05,4.656495261396955592e-05
2.730952380952381020e+00,-2.987978609794431686e-05,6.169354898170710598e-05
2.731746031746031811e+00,-8.715008027779155278e-05,6.992098876799245815e-05
2.732539682539682602e+00,-1.363894932027153741e-04,6.941424113512324507e-05
2.733333333333333393e+00,-1.699731037441125239e-04,5.976680583427198808e-05
2.734126984126984183e+00,-1.832382342805586944e-04,4.210809567367718924e-05
2.734920634920634974e+00,-1.752062929636099306e-04,1.888677910588593470e-05
2.735714285714285765e+00,-1.484776196809473926e-04,-6.616965708353160263e-06
2.736507936507936556e+00,-1.084482504630341585e-04,-3.092070929078669697e-05
2.737301587301587347e+00,-6.209869553038803198e-05,-5.095486892270916261e-05
2.738095238095238138e+00,-1.663083626087743540e-05,-6.453049786430594130e-05
2.738888888888888928e+00,2.179391704171935895e-05,-7.057550747247287864e-05
2.739682539682539719e+00,4.900973819523382678e-05,-6.911849326818269950e-05
2.740476190476190510e+00,6.334764101145106069e-05,-6.107292172993818440e-05
2.741269841269841301e+00,6.561237123656626263e-05,-4.793333440281971516e-05
2.742063492063492092e+00,5.857017066465594726e-05,-3.150232977997670738e-05
2.742857142857142883e+00,4.609734212827737139e-05,-1.371440710452450215e-05
2.743650793650793673e+00,3.221514760329471504e-05,3.453570755572378875e-06
2.744444444444444464e+00,2.024024072430501795e-05,1.804513977997153389e-05
2.745238095238095255e+00,1.222148911255458985e-05,2.821936492057362615e-05
2.746031746031746046e+00,8.747550392332976640e-06,3.240506952278879706e-05
2.746825396825396837e+00,9.120278360350647935e-06,2.951164817419965256e-05
2.747619047619047628e+00,1.180869229753911574e-05,1.917843123824567944e-05
2.748412698412698418e+00,1.503936376453155786e-05,2.025678638779475453e-06
2.749206349206349209e+00,1.735683533254668887e-05,-2.016168423014471663e-05
2.750000000000000000e+00,1.800780150749825892e-05,-4.441432902879486331e-05
2.750793650793650791e+00,1.705805385673394103e-05,-6.681606920355947360e-05
2.751587301587301582e+00,1.522890458062446667e-05,-8.304214712812407815e-05
2.752380952380952372e+00,1.352299584592354461e-05,-8.915084291630209063e-05
2.753174603174603163e+00,1.277314937433922177e-05,-8.247570073773469613e-05
2.753968253968253954e+00,1.326760916561352453e-05,-6.238906672478277825e-05
2.754761904761904745e+00,1.457386271484494033e-05,-3.070141732074307641e-05
2.755555555555555536e+00,1.561708262103059515e-05,8.461632234870882269e-06
2.756349206349206327e+00,1.499367110431014483e-05,4.932865971115629462e-05
2.757142857142857117e+00,1.143619441633665065e-05,8.557503350468267738e-05
2.757936507936507908e+00,4.304786742996543828e-06,1.115888962956981047e-04
2.758730158730158699e+00,-6.033163069695578238e-06,1.235900229522995670e-04
2.759523809523809490e+00,-1.805676296733115058e-05,1.203163102995375344e-04
2.760317460317460281e+00,-2.925466903597290802e-05,1.031430661260357028e-04
2.761111111111111072e+00,-3.660296847883545766e-05,7.568428046693461851e-05
2.761904761904761862e+00,-3.728010959227004168e-05,4.303428941727684831e-05
2.762698412698412653e+00,-2.946101174214728474e-05,1.081968675335248138e-05
2.763492063492063444e+00,-1.297481489038859274e-05,-1.578852821911743147e-05
2.764285714285714235e+00,1.039961147136171878e-05,-3.295031617140228619e-05
2.765079365079365026e+00,3.715899505139137353e-05,-3.876472288952833125e-05
2.765873015873015817e+00,6.282260404434363997e-05,-3.349923110715324317e-05
2.766666666666666607e+00,8.299696059695242146e-05,-1.941312541666413013e-05
2.767460317460317398e+00,9.440453600641245850e-05,-2.303451812035457598e-07
2.768253968253968189e+00,9.552068089287090130e-05,1.962197927756794536e-05
2.769047619047618980e+00,8.662464167491115252e-05,3.585367229084676226e-05
2.769841269841269771e+00,6.932550966616833664e-05,4.507344183489222746e-05
2.770634920634920562e+00,4.585090656099467940e-05,4.536517965673478466e-05
2.771428571428571352e+00,1.846219806395089474e-05,3.663342188305953337e-05
2.772222222222222143e+00,-1.076840121925250769e-05,2.068974089131034999e-05
2.773015873015872934e+00,-3.984319306302874395e-05,1.024572090450304400e-06
2.773809523809523725e+00,-6.663044344820180133e-05,-1.779020506761617179e-05
2.774603174603174516e+00,-8.883639106405218165e-05,-3.103092243341866978e-05
2.775396825396825307e+00,-1.042725719385907739e-04,-3.489226270444451938e-05
2.776190476190476097e+00,-1.113211736332000626e-04,-2.739466596340493844e-05
2.776984126984126888e+00,-1.093817506989581848e-04,-8.850996122658176529e-06
2.777777777777777679e+00,-9.909846794639162943e-05,1.822374715126445316e-05
2.778571428571428470e+00,-8.227329280264881583e-05,4.967285158740074980e-05
2.779365079365079261e+00,-6.150015949215458129e-05,8.051361044623809356e-05
2.780158730158730052e+00,-3.964942321069360768e-05,1.057916396317296526e-04
2.780952380952380842e+00,-1.935587281641162424e-05,1.213400646551569204e-04
2.781746031746031633e+00,-2.624338036512679743e-06,1.243894123278387607e-04
2.782539682539682424e+00,9.395169062987488863e-06,1.139914102375658281e-04
2.783333333333333215e+00,1.645948176313272640e-05,9.119032085024783173e-05
2.784126984126984006e+00,1.913394328239639445e-05,5.886323079594927573e-05
2.784920634920634797e+00,1.857833597930912619e-05,2.120315471405291623e-05
2.785714285714285587e+00,1.626038624435949419e-05,-1.707470426266170360e-05
2.786507936507936378e+00,1.364769092367294989e-05,-5.161876429980772778e-05
2.787301587301587169e+00,1.193109705387837169e-05,-7.919146044865551658e-05
2.788095238095237960e+00,1.182465906282992923e-05,-9.810074512396827666e-05
2.788888888888888751e+00,1.346979509005490548e-05,-1.082364605457505549e-04
2.789682539682539542e+00,1.645054563081903683e-05,-1.107524949995193869e-04
2.790476190476190332e+00,1.990994425225875561e-05,-1.075183381211777405e-04
2.791269841269841123e+00,2.274676318159347512e-05,-1.005017665040849813e-04
2.792063492063491914e+00,2.386472803879708578e-05,-9.124827287472753840e-05
2.792857142857142705e+00,2.243929698986496169e-05,-8.059274685878784438e-05
2.793650793650793496e+00,1.815959883937003595e-05,-6.866619964027637958e-05
2.794444444444444287e+00,1.139773022975181503e-05,-5.516145938884489924e-05
2.795238095238095077e+00,3.258555496911747903e-06,-3.974383393554394050e-05
2.796031746031745868e+00,-4.525749759017894745e-06,-2.246700842674837401e-05
2.796825396825396659e+00,-9.868798402538973193e-06,-4.066329453129276224e-06
2.797619047619047450e+00,-1.074805487515695897e-05,1.397327008680773466e-05
2.798412698412698241e+00,-5.703865327195276501e-06,2.963034752281834235e-05
2.799206349206349032e+00,5.680498110254204961e-06,4.080771417230596689e-05
2.799999999999999822e+00,2.243501740996965989e-05,4.590060025690556616e-05
2.800793650793650613e+00,4.210472275606723684e-05,4.427317497671668365e-05
2.801587301587301404e+00,6.097658432012147025e-05,3.647588619570658560e-05
2.802380952380952195e+00,7.466286140243135665e-05,2.413423408658092937e-05
2.803174603174602986e+00,7.900031380947791066e-05,9.549507982975060445e-06
2.803968253968253777e+00,7.112067955578700498e-05,-4.864226993586366107e-06
2.804761904761904567e+00,5.042693852326188823e-05,-1.714107919444474460e-05
2.805555555555555358e+00,1.913103892082646532e-05,-2.616237195058826746e-05
2.806349206349206149e+00,-1.794238496525027868e-05,-3.178226818150709350e-05
2.807142857142856940e+00,-5.435979014835254217e-05,-3.464793966344611564e-05
2.807936507936507731e+00,-8.363857003247910607e-05,-3.577988293667642630e-05
2.808730158730158522e+00,-1.008581556032291972e-04,-3.606779611777346291e-05
2.809523809523809312e+00,-1.037871722620398927e-04,-3.587644182659207009e-05
2.810317460317460103e+00,-9.319461540883627946e-05,-3.491373971953347973e-05
2.811111111111110894e+00,-7.233185230634074767e-05,-3.240535253367901917e-05
2.811904761904761685e+00,-4.585541550991120756e-05,-2.749839245158399009e-05
2.812698412698412920e+00,-1.859869569802652121e-05,-1.973182404400839843e-05
2.813492063492063711e+00,5.435840496401555505e-06,-9.389251708916904470e-06
2.814285714285714501e+00,2.365031320972356044e-05,2.403764578970600452e-06
2.815079365079365292e+00,3.496404070200909099e-05,1.387543510733559841e-05
2.815873015873016083e+00,3.957814689129495774e-05,2.301760328528486694e-05
2.816666666666666874e+00,3.856657987633939979e-05,2.805088687254675981e-05
2.817460317460317665e+00,3.345598789511409213e-05,2.778366627484985855e-05
2.818253968253968456e+00,2.589881998896907450e-05,2.177692628362822610e-05
2.819047619047619246e+00,1.747389482087748373e-05,1.032847696049317873e-05
2.819841269841270037e+00,9.593686255236767680e-06,-5.640451648899939024e-06
2.820634920634920828e+00,3.469624400622215781e-06,-2.470484772269053290e-05
2.821428571428571619e+00,8.375382034481330117e-08,-4.501032925970049577e-05
2.822222222222222410e+00,1.295056453443848337e-07,-6.430747866821380954e-05
2.823015873015873201e+00,3.909295483153632102e-06,-7.999802891021195442e-05
2.823809523809523991e+00,1.120591345870441213e-05,-8.926806099009848301e-05
2.824603174603174782e+00,2.117062768475216892e-05,-8.937903433699656997e-05
2.825396825396825573e+00,3.228569291300063858e-05,-7.815367955836264777e-05
2.826190476190476364e+00,4.245672474324713381e-05,-5.462485519394892489e-05
2.826984126984127155e+00,4.926782645406179692e-05,-1.971222724179652686e-05
2.827777777777777946e+00,5.038880326807001982e-05,2.331409250891603864e-05
2.828571428571428736e+00,4.406605565760738296e-05,6.886562880705023764e-05
2.829365079365079527e+00,2.957868715371730615e-05,1.097596034078315581e-04
2.830158730158730318e+00,7.532882862204806847e-06,1.386045847607762489e-04
2.830952380952381109e+00,-2.008025752882313384e-05,1.495259233698314040e-04
2.831746031746031900e+00,-5.005308903791876496e-05,1.397055956697219675e-04
2.832539682539682691e+00,-7.829055128067322175e-05,1.102309057596568187e-04
2.833333333333333481e+00,-1.002478904747113335e-04,6.598636803626522921e-05
2.834126984126984272e+00,-1.114777837845415588e-04,1.463872434403621947e-05
2.834920634920635063e+00,-1.083134232103672139e-04,-3.499434248469246558e-05
2.835714285714285854e+00,-8.866962425086282189e-05,-7.478483076263479923e-05
2.836507936507936645e+00,-5.283926764146685721e-05,-9.891575901464511869e-05
2.837301587301587436e+00,-4.048074108814006216e-06,-1.049068728649737151e-04
2.838095238095238226e+00,5.152226145295206759e-05,-9.381400170787031569e-05
2.838888888888889017e+00,1.054558445884611116e-04,-6.960707748511633160e-05
2.839682539682539808e+00,1.485570836027989806e-04,-3.797206992886428909e-05
2.840476190476190599e+00,1.727336506297386175e-04,-4.915317684721818145e-06
2.841269841269841390e+00,1.728052398879775613e-04,2.446076757444730368e-05
2.842063492063492181e+00,1.477448929327801258e-04,4.675200620225443095e-05
2.842857142857142971e+00,1.010439684959073611e-04,6.051532410138093853e-05
2.843650793650793762e+00,4.012553030145104622e-05,6.605612349630089221e-05
2.844444444444444553e+00,-2.506902406294570071e-05,6.490628435411564410e-05
2.845238095238095344e+00,-8.403309893606230490e-05,5.919449271731010409e-05
2.846031746031746135e+00,-1.277744751764497966e-04,5.108225020138522777e-05
2.846825396825396925e+00,-1.505538751557643109e-04,4.237767462068607366e-05
2.847619047619047716e+00,-1.508757663954785413e-04,3.436928906230482268e-05
2.848412698412698507e+00,-1.315056978655294927e-04,2.785542171713999257e-05
2.849206349206349298e+00,-9.854458226639153918e-05,2.329202340216135968e-05
2.850000000000000089e+00,-5.983766234702586205e-05,2.095664287208307266e-05
2.850793650793650880e+00,-2.315063502426644088e-05,2.103811340915231944e-05
2.851587301587301670e+00,5.431712664139279540e-06,2.360523897652975272e-05
2.852380952380952461e+00,2.252573658961679395e-05,2.846697118240109912e-05
2.853174603174603252e+00,2.770985119137609967e-05,3.499191137841435741e-05
2.853968253968254043e+00,2.306690141923079226e-05,4.198826235293800406e-05
2.854761904761904834e+00,1.224280539989146376e-05,4.774201833143234440e-05
2.855555555555555625e+00,-6.453928310701454817e-07,5.026692959318020614e-05
2.856349206349206415e+00,-1.194970444990845772e-05,4.774465227492367833e-05
2.857142857142857206e+00,-1.910388646715797958e-05,3.904863643240817417e-05
2.857936507936507997e+00,-2.087853445320750234e-05,2.418127298881151251e-05
2.858730158730158788e+00,-1.734364572823906755e-05,4.448676469594872455e-06
2.859523809523809579e+00,-9.626300400941349459e-06,-1.772430006217992195e-05
2.860317460317460370e+00,4.667913768129748921e-07,-3.929764379108561362e-05
2.861111111111111160e+00,1.089982220033401249e-05,-5.727128919190544972e-05
2.861904761904761951e+00,1.985088856465433844e-05,-6.928343215538480837e-05
2.862698412698412742e+00,2.605276655834191232e-05,-7.399882121197144972e-05
2.863492063492063533e+00,2.896039724837789689e-05,-7.123493155719125205e-05
2.864285714285714324e+00,2.872973488016759212e-05,-6.186084091665544897e-05
2.865079365079365115e+00,2.604714551125022164e-05,-4.754760240518303915e-05
2.865873015873015905e+00,2.187822633414270476e-05,-3.045173475071625638e-05
2.866666666666666696e+00,1.720892543494974695e-05,-1.288883646439551132e-05
2.867460317460317487e+00,1.283893144996475365e-05,2.979897263892082361e-06
2.868253968253968278e+00,9.264432134547497184e-06,1.544492227676491400e-05
2.869047619047619069e+00,6.659950938800819132e-06,2.350893412275222903e-05
2.869841269841269860e+00,4.943189977326083032e-06,2.704597417900572970e-05
2.870634920634920650e+00,3.888673359188614075e-06,2.677265931934289317e-05
2.871428571428571441e+00,3.249581004996093277e-06,2.399350318616102121e-05
2.872222222222222232e+00,2.852752221034643470e-06,2.018660270328912130e-05
2.873015873015873023e+00,2.645522617340553943e-06,1.658377660965805535e-05
2.873809523809523814e+00,2.689366834939222958e-06,1.390415998008405859e-05
2.874603174603174605e+00,3.110138208289679537e-06,1.231757085610589667e-05
2.875396825396825395e+00,4.025509717839380248e-06,1.160011072166045652e-05
2.876190476190476186e+00,5.474985278401667526e-06,1.137028277413992708e-05
2.876984126984126977e+00,7.375127506619276327e-06,1.129257297692787155e-05
2.877777777777777768e+00,9.512950507730113972e-06,1.118660446217881126e-05
2.878571428571428559e+00,1.157710481844263145e-05,1.103639907011996456e-05
2.879365079365079350e+00,1.321488447098407026e-05,1.092128517232741544e-05
2.880158730158730140e+00,1.409782366979406812e-05,1.088996167202948163e-05
2.880952380952380931e+00,1.398058503668704701e-05,1.080361782774652632e-05
2.881746031746031722e+00,1.274365409879089647e-05,1.020197052267133069e-05
2.882539682539682513e+00,1.041555757334579528e-05,8.271502570912116553e-06
2.883333333333333304e+00,7.172942586346314155e-06,3.974176593578059439e-06
2.884126984126984095e+00,3.318334581341912085e-06,-3.671752063246820324e-06
2.884920634920634885e+00,-7.619828387896048241e-07,-1.523014144687283006e-05
2.885714285714285676e+00,-4.653697934747571306e-06,-3.050446738235416095e-05
2.886507936507936467e+00,-7.974458895329405311e-06,-4.832403797625817887e-05
2.887301587301587258e+00,-1.042774729266079173e-05,-6.656552743557027298e-05
2.888095238095238049e+00,-1.184131486067406515e-05,-8.246860688205683964e-05
2.888888888888888840e+00,-1.218399913406440010e-05,-9.320029785111152054e-05
2.889682539682539630e+00,-1.155986335731033510e-05,-9.651557655737914387e-05
2.890476190476190421e+00,-1.018403535295733839e-05,-9.131972070143480787e-05
2.891269841269841212e+00,-8.347367320536120975e-06,-7.797443573296837939e-05
2.892063492063492003e+00,-6.375621497486404377e-06,-5.826956910574230273e-05
2.892857142857142794e+00,-4.585563783053169316e-06,-3.507072664609166740e-05
2.893650793650793585e+00,-3.239461363733429516e-06,-1.173370921675820499e-05
2.894444444444444375e+00,-2.502675318193307130e-06,8.565969215465619568e-06
2.895238095238095166e+00,-2.413042803137970620e-06,2.342511735442598180e-05
2.896031746031745957e+00,-2.871178722300894725e-06,3.159687501598066630e-05
2.896825396825396748e+00,-3.657020513185083126e-06,3.310352967550745246e-05
2.897619047619047539e+00,-4.472319996775922467e-06,2.908615974844706438e-05
2.898412698412698330e+00,-5.003075368298663833e-06,2.145565402656136360e-05
2.899206349206349120e+00,-4.990295826422988134e-06,1.244493893831241673e-05
2.899999999999999911e+00,-4.292968591633459847e-06,4.171159625368258955e-06
2.900793650793650702e+00,-2.926224766891586335e-06,-1.706326882601527196e-06
2.901587301587301493e+00,-1.062631277737866554e-06,-4.192962913159290434e-06
2.902380952380952284e+00,1.005180116807445594e-06,-3.037393394830253111e-06
2.903174603174603075e+00,2.930144998620727849e-06,1.290936669185914763e-06
2.903968253968253865e+00,4.385364035400694502e-06,7.702803945402994967e-06
2.904761904761904656e+00,5.127185992561530984e-06,1.466393070107456494e-05
2.905555555555555447e+00,5.033384041194550741e-06,2.044824769680258104e-05
2.906349206349206238e+00,4.113942599237821185e-06,2.346403311755977517e-05
2.907142857142857029e+00,2.500046409937054649e-06,2.261427188475376585e-05
2.907936507936507819e+00,4.185223402973239001e-07,1.761025259765816204e-05
2.908730158730158610e+00,-1.843693656279802605e-06,9.133807728796083689e-06
2.909523809523809401e+00,-3.982737398862484024e-06,-1.235582970011946054e-06
2.910317460317460192e+00,-5.725358568816809869e-06,-1.134551858418965292e-05
2.911111111111110983e+00,-6.874007683198686594e-06,-1.897586834189421195e-05
2.911904761904761774e+00,-7.339134060924756748e-06,-2.238322299254204330e-05
2.912698412698412564e+00,-7.147849152022389608e-06,-2.072660286736685868e-05
2.913492063492063355e+00,-6.422734785155715798e-06,-1.426154690547667537e-05
2.914285714285714146e+00,-5.334158002595335002e-06,-4.269858987832962848e-06
2.915079365079364937e+00,-4.040817644017795711e-06,7.234129275155920459e-06
2.915873015873015728e+00,-2.641029113202765544e-06,1.793773616836733884e-05
2.916666666666666519e+00,-1.156119338927245577e-06,2.570998131038649995e-05
2.917460317460317309e+00,4.446675682837631210e-07,2.903750295478547201e-05
2.918253968253968100e+00,2.186977551237287780e-06,2.733607727968700741e-05
2.919047619047618891e+00,4.027305521385336020e-06,2.107599920127974137e-05
2.919841269841269682e+00,5.812701076029926034e-06,1.169412348126922638e-05
2.920634920634920473e+00,7.285849411326144495e-06,1.308786923799230395e-06
2.921428571428571264e+00,8.138292054822223191e-06,-7.709388566079282775e-06
2.922222222222222054e+00,8.095162980710459875e-06,-1.323191230096225869e-05
2.923015873015872845e+00,7.003766063637180534e-06,-1.383177140016780472e-05
2.923809523809523636e+00,4.898078177875892724e-06,-9.095388328653372623e-06
2.924603174603174427e+00,2.018345369151100884e-06,3.026510148201350976e-07
2.925396825396825218e+00,-1.223782066241797407e-06,1.277867108305762065e-05
2.926190476190476009e+00,-4.329194648397865830e-06,2.619663063556655863e-05
2.926984126984126799e+00,-6.823101338841277710e-06,3.827859167724255543e-05
2.927777777777777590e+00,-8.363347543190833371e-06,4.697302268333272311e-05
2.928571428571428381e+00,-8.814777032470316298e-06,5.075124815057272464e-05
2.929365079365079172e+00,-8.269456637004736943e-06,4.884349337072209081e-05
2.930158730158729963e+00,-7.007329286293298239e-06,4.141437082543418210e-05
2.930952380952380754e+00,-5.406776405656178969e-06,2.963601046473566796e-05
2.931746031746031544e+00,-3.827437041644668292e-06,1.559030276714971479e-05
2.932539682539682335e+00,-2.496747032532181159e-06,1.951596749535158849e-06
2.933333333333333126e+00,-1.434251727421405336e-06,-8.533829332653252591e-06
2.934126984126983917e+00,-4.406855770077622170e-07,-1.367535535288562144e-05
2.934920634920634708e+00,8.381464759684038704e-07,-1.241872462250790208e-05
2.935714285714285499e+00,2.784779532395706981e-06,-5.212969646923304140e-06
2.936507936507936289e+00,5.652666423712718047e-06,5.968547089138616665e-06
2.937301587301587080e+00,9.421344278521578123e-06,1.800913357080381446e-05
2.938095238095238315e+00,1.370870721172165401e-05,2.737851441608854066e-05
2.938888888888889106e+00,1.777561128646461131e-05,3.103645261495050259e-05
2.939682539682539897e+00,2.063918092743026442e-05,2.725316093216126529e-05
2.940476190476190688e+00,2.128490908313831470e-05,1.610310420845924946e-05
2.941269841269841478e+00,1.893830736145346537e-05,-5.010498228981193501e-07
2.942063492063492269e+00,1.333067417382916852e-05,-1.923151800425420909e-05
2.942857142857143060e+00,4.878586023402000975e-06,-3.612647837061293732e-05
2.943650793650793851e+00,-5.296756327068511751e-06,-4.756248654151306828e-05
2.944444444444444642e+00,-1.554825928885602884e-05,-5.117523696314691658e-05
2.945238095238095433e+00,-2.405636411287407958e-05,-4.644134260410408120e-05
2.946031746031746223e+00,-2.926709209534746766e-05,-3.471527783093547901e-05
2.946825396825397014e+00,-3.028120136334397483e-05,-1.872781911693406301e-05
2.947619047619047805e+00,-2.706557324900745934e-05,-1.767650346351559239e-06
2.948412698412698596e+00,-2.041688048065143065e-05,1.314816906456809756e-05
2.949206349206349387e+00,-1.169745620509938796e-05,2.387611496145915829e-05
2.950000000000000178e+00,-2.441060256196999162e-06,2.942050415494165016e-05
2.950793650793650968e+00,6.040577131640929051e-06,2.990387066845740034e-05
2.951587301587301759e+00,1.293432768060215532e-05,2.632567793071991573e-05
2.952380952380952550e+00,1.801597941678137333e-05,2.021780039179701908e-05
2.953174603174603341e+00,2.154581969077654931e-05,1.328858753347205454e-05
2.953968253968254132e+00,2.402096725570022814e-05,7.117187630988198226e-06
2.954761904761904923e+00,2.587925469801702824e-05,2.929097869716802309e-06
2.955555555555555713e+00,2.726219150268584463e-05,1.459140838602673522e-06
2.956349206349206504e+00,2.792172771816331961e-05,2.892199186091893581e-06
2.957142857142857295e+00,2.730438652463426809e-05,6.866814421897231250e-06
2.957936507936508086e+00,2.478252606919331824e-05,1.253178189591209534e-05
2.958730158730158877e+00,1.994513624137771011e-05,1.865621681989639328e-05
2.959523809523809668e+00,1.283004224082862004e-05,2.379946393022826264e-05
2.960317460317460458e+00,3.994437901765713108e-06,2.653871616116503440e-05
2.961111111111111249e+00,-5.613049077755181038e-06,2.572815086736083876e-05
2.961904761904762040e+00,-1.492120345854673437e-05,2.073631079097579928e-05
2.962698412698412831e+00,-2.301558425729886487e-05,1.159671230321256686e-05
2.963492063492063622e+00,-2.929248590880922186e-05,-9.790084290610999228e-07
2.964285714285714413e+00,-3.342170832820018210e-05,-1.573771447126624679e-05
2.965079365079365203e+00,-3.516186324385961156e-05,-3.113339675605915384e-05
2.965873015873015994e+00,-3.416206436428048920e-05,-4.560941269981608356e-05
2.966666666666666785e+00,-2.990580214727128717e-05,-5.782862755245587202e-05
2.967460317460317576e+00,-2.189154008606930963e-05,-6.680067093895098763e-05
2.968253968253968367e+00,-1.002406406214473819e-05,-7.191114839775656319e-05
2.969047619047619158e+00,4.937174283291659619e-06,-7.289572478652155694e-05
2.969841269841269948e+00,2.110219581041839531e-05,-6.980351817009971920e-05
2.970634920634920739e+00,3.555728461209615743e-05,-6.297297134800195731e-05
2.971428571428571530e+00,4.494245681927587244e-05,-5.302081301830186921e-05
2.972222222222222321e+00,4.639532611737575150e-05,-4.082786576806449939e-05
2.973015873015873112e+00,3.856090662908807172e-05,-2.749570915724840691e-05
2.973809523809523903e+00,2.225611538313522440e-05,-1.425337339232250591e-05
2.974603174603174693e+00,4.420866585610696581e-07,-2.316392102375424808e-06
2.975396825396825484e+00,-2.257410061436442269e-05,7.272073990014166728e-06
2.976190476190476275e+00,-4.241912848816733914e-05,1.377610685601835224e-05
2.976984126984127066e+00,-5.587591497040767663e-05,1.684577198556729444e-05
2.977777777777777857e+00,-6.155256286788227723e-05,1.653129589445419701e-05
2.978571428571428648e+00,-5.981612865582616381e-05,1.324755539062769226e-05
2.979365079365079438e+00,-5.218885074260893074e-05,7.714757287149325962e-06
2.980158730158730229e+00,-4.060694560729722800e-05,8.951015472287406269e-07
2.980952380952381020e+00,-2.687522248149476413e-05,-6.073928004028311156e-06
2.981746031746031811e+00,-1.243251737012174244e-05,-1.196921830765237813e-05
2.982539682539682602e+00,1.634492513844703849e-06,-1.562010353818312988e-05
2.983333333333333393e+00,1.445258979216797822e-05,-1.610319835235444707e-05
2.984126984126984183e+00,2.522114363615901870e-05,-1.296860252038014463e-05
2.984920634920634974e+00,3.317290859986551184e-05,-6.439461068422066084e-06
2.985714285714285765e+00,3.767999871344604581e-05,2.489599967172525621e-06
2.986507936507936556e+00,3.844551869032134103e-05,1.212419137550598238e-05
2.987301587301587347e+00,3.564967931936865103e-05,2.034959770916717551e-05
2.988095238095238138e+00,2.994756156629702388e-05,2.509217423890566882e-05
2.988888888888888928e+00,2.231844109572662737e-05,2.485287483027815721e-05
2.989682539682539719e+00,1.385380186496790816e-05,1.914217327180762517e-05
2.990476190476190510e+00,5.585612346440323341e-06,8.658270039204014684e-06
2.991269841269841301e+00,-1.587509198032927302e-06,-4.857200296051722445e-06
2.992063492063492092e+00,-6.877434004927488903e-06,-1.903206483279554836e-05
2.992857142857142883e+00,-9.536443753292373409e-06,-3.141122656986633787e-05
2.993650793650793673e+00,-8.820458779279647242e-06,-3.999038987871393689e-05
2.994444444444444464e+00,-4.070628683587515190e-06,-4.361521704222438432e-05
2.995238095238095255e+00,5.038380141260212516e-06,-4.216784068269039759e-05
2.996031746031746046e+00,1.811574905870433068e-05,-3.651327372158576961e-05
2.996825396825396837e+00,3.367051863035673364e-05,-2.823366214064829602e-05
2.997619047619047628e+00,4.893268160818278306e-05,-1.922313316233732625e-05
2.998412698412698418e+00,6.008191143058554118e-05,-1.123670698104392897e-05
2.999206349206349209e+00,6.297792239338900831e-05,-5.485611661952031463e-06
3.000000000000000000e+00,5.428899286126347981e-05,-2.358873511412954108e-06
3.000793650793650791e+00,3.269650046542129529e-05,-1.331924391883598484e-06
3.001587301587301582e+00,-2.779282149965523489e-07,-1.093146605959393070e-06
3.002380952380952372e+00,-4.021579054016723013e-05,1.252664847516704975e-07
3.003174603174603163e+00,-8.063637917076324675e-05,4.079556681875529426e-06
3.003968253968253954e+00,-1.144768418023386035e-04,1.202380951070123397e-05
3.004761904761904745e+00,-1.357133835238541204e-04,2.432967171557803409e-05
3.005555555555555536e+00,-1.406094974288492859e-04,4.032741644268697046e-05
3.006349206349206327e+00,-1.282933343504815999e-04,5.841827192907577592e-05
3.007142857142857117e+00,-1.006619047552746645e-04,7.642713702512334960e-05
3.007936507936507908e+00,-6.182278073673716089e-05,9.209015704089914547e-05
3.008730158730158699e+00,-1.732420523745054479e-05,1.035240853085613830e-04
3.009523809523809490e+00,2.668164811208002650e-05,1.095246022470170984e-04
3.010317460317460281e+00,6.432055271085991652e-05,1.096111183297655465e-04
3.011111111111111072e+00,9.090801184105400709e-05,1.038663688269534193e-04
3.011904761904761862e+00,1.037576687613278397e-04,9.273557664048804369e-05
3.012698412698412653e+00,1.026462070876909822e-04,7.695502828759269768e-05
3.013492063492063444e+00,8.973783734030924355e-05,5.765084933278208178e-05
3.014285714285714235e+00,6.896031316463391791e-05,3.647660261621640256e-05
3.015079365079365026e+00,4.502777279525260973e-05,1.558080040811631178e-05
3.015873015873015817e+00,2.240382192178849865e-05,-2.716076793947285774e-06
3.016666666666666607e+00,4.469947652660198476e-06,-1.646042005132441021e-05
3.017460317460317398e+00,-6.939697281068167101e-06,-2.458946461901167157e-05
3.018253968253968189e+00,-1.159707746351642708e-05,-2.719993354225594810e-05
3.019047619047618980e+00,-1.059430370361323992e-05,-2.544491593612601256e-05
3.019841269841269771e+00,-5.841205651838075930e-06,-2.110511865695859277e-05
3.020634920634920562e+00,4.994224283817130429e-07,-1.599599703278442966e-05
3.021428571428571352e+00,6.499380223107575643e-06,-1.140963250084996425e-05
3.022222222222222143e+00,1.078279849526592140e-05,-7.760592982280688112e-06
3.023015873015872934e+00,1.264397734279821479e-05,-4.534060642807504973e-06
3.023809523809523725e+00,1.199338489391337888e-05,-5.464915789177324832e-07
3.024603174603174516e+00,9.197269919773596732e-06,5.557199628130097325e-06
3.025396825396825307e+00,4.885205444234364796e-06,1.471372449571577150e-05
3.026190476190476097e+00,-2.167910910797118997e-07,2.693517239782850810e-05
3.026984126984126888e+00,-5.399918994510175395e-06,4.104833806471389513e-05
3.027777777777777679e+00,-1.003402885858157140e-05,5.477944457635953003e-05
3.028571428571428470e+00,-1.359536473076264904e-05,6.518818175308008841e-05
3.029365079365079261e+00,-1.568334677992853934e-05,6.935209617741386161e-05
3.030158730158730052e+00,-1.604289522971386636e-05,6.512373064421860924e-05
3.030952380952380842e+00,-1.459704778526208997e-05,5.174994201669511312e-05
3.031746031746031633e+00,-1.148229472540337697e-05,3.016427890903025159e-05
3.032539682539682424e+00,-7.070191459569484941e-06,2.844606596553371329e-06
3.033333333333333215e+00,-1.956354724531487448e-06,-2.673720266755372072e-05
3.034126984126984006e+00,3.096508929846880492e-06,-5.490351488177007205e-05
3.034920634920634797e+00,7.262399988515729222e-06,-7.854799379368760672e-05
3.035714285714285587e+00,9.788943764968998420e-06,-9.567762831871748841e-05
3.036507936507936378e+00,1.014396261197126451e-05,-1.055974230807291679e-04
3.037301587301587169e+00,8.146856807944551426e-06,-1.087333906860020948e-04
3.038095238095237960e+00,4.063751812658679142e-06,-1.061881164060334606e-04
3.038888888888888751e+00,-1.352285937685051739e-06,-9.919644823966343482e-05
3.039682539682539542e+00,-6.896491408066773428e-06,-8.868689423602900011e-05
3.040476190476190332e+00,-1.104523094389571601e-05,-7.512882849566774430e-05
3.041269841269841123e+00,-1.220251466982129692e-05,-5.873658174861280510e-05
3.042063492063491914e+00,-9.057556732690484808e-06,-3.993485241450385822e-05
3.042857142857142705e+00,-1.016929762762080543e-06,-1.984459805789407267e-05
3.043650793650793496e+00,1.137434634132761620e-05,-5.137902208543599420e-07
3.044444444444444287e+00,2.616332630102723749e-05,1.527629207531772874e-05
3.045238095238095077e+00,4.004197908909681028e-05,2.460960608885214552e-05
3.046031746031745868e+00,4.885562565101107352e-05,2.524844013503491381e-05
3.046825396825396659e+00,4.857190090571492390e-05,1.638676000986748080e-05
3.047619047619047450e+00,3.652106783735758951e-05,-9.176339931016431837e-07
3.048412698412698241e+00,1.253463226405309834e-05,-2.380262108901615495e-05
3.049206349206349032e+00,-2.046176170185376792e-05,-4.817673911018977316e-05
3.049999999999999822e+00,-5.672463582949632751e-05,-6.966509244069683912e-05
3.050793650793650613e+00,-8.886589500532164241e-05,-8.464856007973078293e-05
3.051587301587301404e+00,-1.096168193853263288e-04,-9.107949452771010954e-05
3.052380952380952195e+00,-1.136747840130619333e-04,-8.883261240720841958e-05
3.053174603174602986e+00,-9.912398223507150991e-05,-7.950749720986549337e-05
3.053968253968253777e+00,-6.806669235155240008e-05,-6.577606240423210639e-05
3.054761904761904567e+00,-2.630731460141539811e-05,-5.050433064662513386e-05
3.055555555555555358e+00,1.785179663923874312e-05,-3.593474740226370744e-05
3.056349206349206149e+00,5.544636615033900223e-05,-2.318119184463585718e-05
3.057142857142856940e+00,7.891344144660566464e-05,-1.217583360453510363e-05
3.057936507936507731e+00,8.389382222102846338e-05,-2.046613952235194179e-06
3.058730158730158522e+00,7.028574804399757630e-05,8.252607465892817468e-06
3.059523809523809312e+00,4.219760193558979471e-05,1.932544437186623412e-05
3.060317460317460103e+00,6.757585550888676257e-06,3.096853115384188963e-05
3.061111111111110894e+00,-2.785792607482744706e-05,4.216958717403603924e-05
3.061904761904761685e+00,-5.452480091616782059e-05,5.142628753140435812e-05
3.062698412698412920e+00,-6.874244548159995968e-05,5.724147643442244134e-05
3.063492063492063711e+00,-6.928450093626093321e-05,5.861628482719731883e-05
3.064285714285714501e+00,-5.790660799955051085e-05,5.538609831245910675e-05
3.065079365079365292e+00,-3.838498837580629910e-05,4.831291727112614864e-05
3.065873015873016083e+00,-1.529372460983901367e-05,3.893313271014313528e-05
3.066666666666666874e+00,7.099921903078064177e-06,2.921830251960813639e-05
3.067460317460317665e+00,2.557879530336596419e-05,2.112478448265852745e-05
3.068253968253968456e+00,3.828406728973944215e-05,1.611543577182942923e-05
3.069047619047619246e+00,4.465856933422681551e-05,1.475647788553537079e-05
3.069841269841270037e+00,4.517761681607470247e-05,1.650927165120384126e-05
3.070634920634920828e+00,4.102363445210225441e-05,1.981602489769359853e-05
3.071428571428571619e+00,3.379668777724496653e-05,2.250487144598891769e-05
3.072222222222222410e+00,2.526847565033829899e-05,2.243356002786234114e-05
3.073015873015873201e+00,1.714416300232960122e-05,1.819553884747878082e-05
3.073809523809523991e+00,1.081787762356575622e-05,9.665138697686385618e-06
3.074603174603174782e+00,7.158151217050106967e-06,-1.821510888586592499e-06
3.075396825396825573e+00,6.385245737188234093e-06,-1.376115184615983647e-05
3.076190476190476364e+00,8.083223513718577880e-06,-2.321226538996367129e-05
3.076984126984127155e+00,1.134593520998245255e-05,-2.774210982637942223e-05
3.077777777777777946e+00,1.501671403920657306e-05,-2.624563843618330809e-05
3.078571428571428736e+00,1.796059600443998866e-05,-1.928695194464760530e-05
3.079365079365079527e+00,1.930584954117516209e-05,-8.793780220134991870e-06
3.080158730158730318e+00,1.860446416843421869e-05,2.757712487871450324e-06
3.080952380952381109e+00,1.588395032336579053e-05,1.328118173450265902e-05
3.081746031746031900e+00,1.158969019731717158e-05,2.173126705756165148e-05
3.082539682539682691e+00,6.442675403856627274e-06,2.825124506163139245e-05
3.083333333333333481e+00,1.255997727666224484e-06,3.385581443633175038e-05
3.084126984126984272e+00,-3.241314068110205330e-06,3.985878457022672193e-05
3.084920634920635063e+00,-6.534954517818938747e-06,4.729283085741957458e-05
3.085714285714285854e+00,-8.392061385566164109e-06,5.649842293194863162e-05
3.086507936507936645e+00,-8.863425315209559502e-06,6.694768996949578422e-05
3.087301587301587436e+00,-8.231010088996628930e-06,7.728704936039494265e-05
3.088095238095238226e+00,-6.916590406866443674e-06,8.555984761228272839e-05
3.088888888888889017e+00,-5.373317096353194154e-06,8.958039941906190465e-05
3.089682539682539808e+00,-3.986669940431576943e-06,8.742492509880721882e-05
3.090476190476190599e+00,-3.008925307255081968e-06,7.795919669758381572e-05
3.091269841269841390e+00,-2.539318419251606464e-06,6.126203295199564866e-05
3.092063492063492181e+00,-2.545441816099549113e-06,3.878881686192754133e-05
3.092857142857142971e+00,-2.909317546508272443e-06,1.319296502721268322e-05
3.093650793650793762e+00,-3.479554303579215997e-06,-1.214329949823601973e-05
3.094444444444444553e+00,-4.116565191542452758e-06,-3.371087667760326134e-05
3.095238095238095344e+00,-4.724065683548115377e-06,-4.843667124063440714e-05
3.096031746031746135e+00,-5.262989119405897626e-06,-5.410758019186050666e-05
3.096825396825396925e+00,-5.745611719977060490e-06,-4.965043317846315224e-05
3.097619047619047716e+00,-6.211888194366378099e-06,-3.531463424973406656e-05
3.098412698412698507e+00,-6.696366134413480966e-06,-1.278740045446610605e-05
3.099206349206349298e+00,-7.198299085164294043e-06,1.478987796265985894e-05
3.100000000000000089e+00,-7.666664158617761892e-06,4.299051210919964405e-05
3.100793650793650880e+00,-8.006180273545334647e-06,6.654930132843269461e-05
3.101587301587301670e+00,-8.102438906398831412e-06,8.012438342399492693e-05
3.102380952380952461e+00,-7.856661346447721137e-06,7.930960089320420879e-05
3.103174603174603252e+00,-7.216393427552154559e-06,6.171997835559667439e-05
3.103968253968254043e+00,-6.190088140223947887e-06,2.788733735693444017e-05
3.104761904761904834e+00,-4.841150667953691548e-06,-1.832697933191571008e-05
3.105555555555555625e+00,-3.267179495339345624e-06,-7.004761829335909979e-05
3.106349206349206415e+00,-1.577008668458146142e-06,-1.185216283931181928e-04
3.107142857142857206e+00,1.224879450237037575e-07,-1.549071438822642837e-04
3.107936507936507997e+00,1.725467926730259872e-06,-1.722607914459756855e-04
3.108730158730158788e+00,3.117537793612215923e-06,-1.671290132031335652e-04
3.109523809523809579e+00,4.169336198054993041e-06,-1.402672701047587810e-04
3.110317460317460370e+00,4.744416331252571567e-06,-9.633482089578582523e-05
3.111111111111111160e+00,4.725300214776287514e-06,-4.275916687194658078e-05
3.111904761904761951e+00,4.051609528665184433e-06,1.182732974920720846e-05
3.112698412698412742e+00,2.756289973873925530e-06,5.915507772348845792e-05
3.113492063492063533e+00,9.837675183787032661e-07,9.258471481958821211e-05
3.114285714285714324e+00,-1.021277447191923584e-06,1.079383539740133449e-04
3.115079365079365115e+00,-2.955652277751435460e-06,1.038892557981092510e-04
3.115873015873015905e+00,-4.519597625078076174e-06,8.195702942993394167e-05
3.116666666666666696e+00,-5.480498786775664410e-06,4.615140989958698916e-05
3.117460317460317487e+00,-5.718623702414469718e-06,2.299585451098736754e-06
3.118253968253968278e+00,-5.241771610720484190e-06,-4.288308197347581399e-05
3.119047619047619069e+00,-4.167892995407856998e-06,-8.285937726212579601e-05
3.119841269841269860e+00,-2.686911495678766822e-06,-1.122898334545570874e-04
3.120634920634920650e+00,-1.018854013973606397e-06,-1.278034761832306870e-04
3.121428571428571441e+00,6.179523581385132086e-07,-1.283796825043280899e-04
3.122222222222222232e+00,2.024289418795588596e-06,-1.153176131298151827e-04
3.123015873015873023e+00,3.027594921574766625e-06,-9.186212696216549442e-05
3.123809523809523814e+00,3.488336880952714785e-06,-6.257259783858072025e-05
3.124603174603174605e+00,3.313840638005155643e-06,-3.249829947244230703e-05
3.125396825396825395e+00,2.485129828069742076e-06,-6.233018548047215547e-06
3.126190476190476186e+00,1.095502627757777522e-06,1.301584899600196959e-05
3.126984126984126977e+00,-6.109425708411237232e-07,2.413059866939181540e-05
3.127777777777777768e+00,-2.222359920005492139e-06,2.830788932153705464e-05
3.128571428571428559e+00,-3.187586758609173195e-06,2.861593443349838548e-05
3.129365079365079350e+00,-2.904952802550147716e-06,2.890277049067357750e-05
3.130158730158730140e+00,-8.682283675024970999e-07,3.237619699031901168e-05
3.130952380952380931e+00,3.156283760493448491e-06,4.039713266785509489e-05
3.131746031746031722e+00,8.968124520589165370e-06,5.199512553395975928e-05
3.132539682539682513e+00,1.584377746403650990e-05,6.431367960675492452e-05
3.133333333333333304e+00,2.257163754932053819e-05,7.378048847722751377e-05
3.134126984126984095e+00,2.763663013815689895e-05,7.748778081791460976e-05
3.134920634920634885e+00,2.953881181574012063e-05,7.421253671066314981e-05
3.135714285714285676e+00,2.718133709809045868e-05,6.471765751711178584e-05
3.136507936507936467e+00,2.022106759865624113e-05,5.131973987239755482e-05
3.137301587301587258e+00,9.260251438833925439e-06,3.699724794864054695e-05
3.138095238095238049e+00,-4.210368977856124122e-06,2.442555728862590869e-05
3.138888888888888840e+00,-1.812701672474500311e-05,1.526538268641734549e-05
3.139682539682539630e+00,-3.033955900550714177e-05,9.875012002504002839e-06
3.140476190476190421e+00,-3.911434244192249358e-05,7.446473468545247478e-06
3.141269841269841212e+00,-4.349302585671182354e-05,6.438248089256075735e-06
3.142063492063492003e+00,-4.340458689919470268e-05,5.120872791115400240e-06
3.142857142857142794e+00,-3.952047070155665818e-05,2.067264291451381579e-06
3.143650793650793585e+00,-3.293305059251930761e-05,-3.518978988294809087e-06
3.144444444444444375e+00,-2.478954512391326657e-05,-1.167559054173896082e-05
3.145238095238095166e+00,-1.600892301728123199e-05,-2.174057195948716283e-05
3.146031746031745957e+00,-7.157910436037416685e-06,-3.254606730228730188e-05
3.146825396825396748e+00,1.505657653179284959e-06,-4.266558509661392564e-05
3.147619047619047539e+00,9.869156207732680485e-06,-5.062955642779362429e-05
3.148412698412698330e+00,1.775753769669450791e-05,-5.506072761191789218e-05
3.149206349206349120e+00,2.476179953536180201e-05,-5.474033781890072275e-05
3.149999999999999911e+00,3.016716234675682413e-05,-4.866746662246790583e-05
3.150793650793650702e+00,3.301557371018826496e-05,-3.619617554569683166e-05
3.151587301587301493e+00,3.230360206982642036e-05,-1.730666014263817525e-05
3.152380952380952284e+00,2.728397233178294612e-05,7.032556211367556278e-06
3.153174603174603075e+00,1.780895980301666967e-05,3.458944222755548203e-05
3.153968253968253865e+00,4.629445706602760167e-06,6.191844259059019358e-05
3.154761904761904656e+00,-1.044863914020000767e-05,8.486808839000435569e-05
3.155555555555555447e+00,-2.463998603632499060e-05,9.945051970876048826e-05
3.156349206349206238e+00,-3.454168201930734260e-05,1.027811458948825506e-04
3.157142857142857029e+00,-3.677243091010871516e-05,9.376084431727517638e-05
3.157936507936507819e+00,-2.879796316693505220e-05,7.329868547105786039e-05
3.158730158730158610e+00,-9.766429719622294901e-06,4.405899739562153529e-05
3.159523809523809401e+00,1.887961391420069505e-05,9.859470197189423244e-06
3.160317460317460192e+00,5.324175297523813069e-05,-2.508995561419756159e-05
3.161111111111110983e+00,8.739394152505190110e-05,-5.691608014542760922e-05
3.161904761904761774e+00,1.143927979994104055e-04,-8.262209173164213505e-05
3.162698412698412564e+00,1.277094476913804341e-04,-1.003434073918981005e-04
3.163492063492063355e+00,1.228001871865867095e-04,-1.093150578036569546e-04
3.164285714285714146e+00,9.844410405440961456e-05,-1.096391600029101708e-04
3.165079365079364937e+00,5.743446530704600578e-05,-1.019926546624028016e-04
3.165873015873015728e+00,6.286892671824644269e-06,-8.739959188087630918e-05
3.166666666666666519e+00,-4.611553496512219014e-05,-6.713058138715539427e-05
3.167460317460317309e+00,-9.064152071974213444e-05,-4.272734413359894961e-05
3.168253968253968100e+00,-1.201803016249910068e-04,-1.610252288506586221e-05
3.169047619047618891e+00,-1.313563222812329310e-04,1.037039278839579853e-05
3.169841269841269682e+00,-1.251563833333352814e-04,3.388380822763157083e-05
3.170634920634920473e+00,-1.062872221959040853e-04,5.143490333575803880e-05
3.171428571428571264e+00,-8.149707115778126898e-05,6.030932860374528320e-05
3.172222222222222054e+00,-5.744048115406607879e-05,5.873698355804807090e-05
3.173015873015872845e+00,-3.880695622846174272e-05,4.654193368461172263e-05
3.173809523809523636e+00,-2.729971554447770474e-05,2.555774066026979927e-05
3.174603174603174427e+00,-2.169894588105398457e-05,-3.865131334685278781e-07
3.175396825396825218e+00,-1.884108562895937564e-05,-2.599739095395161442e-05
3.176190476190476009e+00,-1.506425681524447199e-05,-4.551267099543713802e-05
3.176984126984126799e+00,-7.594858857644124568e-06,-5.397169120253996947e-05
3.177777777777777590e+00,4.535784229704075084e-06,-4.846846473068591114e-05
3.178571428571428381e+00,2.023598393509430839e-05,-2.905932465593938743e-05
3.179365079365079172e+00,3.672878146808009108e-05,9.532678132701515962e-07
3.180158730158729963e+00,5.037964914774878568e-05,3.551262401827716354e-05
3.180952380952380754e+00,5.773817126302906275e-05,6.704902147955149648e-05
3.181746031746031544e+00,5.653962670483575405e-05,8.823601551062734217e-05
3.182539682539682335e+00,4.641114432579592972e-05,9.383350954193987216e-05
3.183333333333333126e+00,2.906741447404173875e-05,8.209406324190973258e-05
3.184126984126983917e+00,7.912666238682468202e-06,5.529181697968680610e-05
3.184920634920634708e+00,-1.282842825011097281e-05,1.918786201334560625e-05
3.185714285714285499e+00,-2.915584708395101580e-05,-1.842759828732761011e-05
3.186507936507936289e+00,-3.818732838478234410e-05,-4.970020680927867492e-05
3.187301587301587080e+00,-3.868128509423540787e-05,-6.862725845178124936e-05
3.188095238095238315e+00,-3.113250101986440312e-05,-7.239637968373717144e-05
3.188888888888889106e+00,-1.750199026236529305e-05,-6.180236310634325367e-05
3.189682539682539897e+00,-6.908381046720488198e-07,-4.068192431908055696e-05
3.190476190476190688e+00,1.611871270682216202e-05,-1.460681008032237883e-05
3.191269841269841478e+00,3.011672711242744849e-05,1.070925034758891542e-05
3.192063492063492269e+00,3.936949086628374530e-05,3.078787180817580321e-05
3.192857142857143060e+00,4.306756778219666514e-05,4.318193424560708323e-05
3.193650793650793851e+00,4.149321654341724146e-05,4.757160293450330465e-05
3.194444444444444642e+00,3.576508634421948784e-05,4.528591337351724541e-05
3.195238095238095433e+00,2.746318862640404482e-05,3.852418506087931929e-05
3.196031746031746223e+00,1.823992908995527573e-05,2.957451073489637315e-05
3.196825396825397014e+00,9.500559593531122268e-06,2.025088235114177424e-05
3.197619047619047805e+00,2.204594061006558984e-06,1.165011737800302878e-05
3.198412698412698596e+00,-3.194500838231029448e-06,4.214217295857001659e-06
3.199206349206349387e+00,-6.687417036039503167e-06,-1.997648474117076491e-06
3.200000000000000178e+00,-8.567903645280823760e-06,-6.962439552323447092e-06
3.200793650793650968e+00,-9.267885898059167909e-06,-1.040681516669964095e-05
3.201587301587301759e+00,-9.217349258115563665e-06,-1.168310765808435309e-05
3.202380952380952550e+00,-8.754800098667560803e-06,-9.853803181005720010e-06
3.203174603174603341e+00,-8.087731317809989312e-06,-3.968823807565037552e-06
3.203968253968254132e+00,-7.287271515680065596e-06,6.529749991716584053e-06
3.204761904761904923e+00,-6.303983249393553344e-06,2.137298854112150011e-05
3.205555555555555713e+00,-5.004827386630205169e-06,3.912017256677986077e-05
3.206349206349206504e+00,-3.238329951374022110e-06,5.704059072208258048e-05
3.207142857142857295e+00,-9.265572871712745207e-07,7.135688015913387527e-05
3.207936507936508086e+00,1.836186510003344376e-06,7.792858014733226358e-05
3.208730158730158877e+00,4.714332720060194412e-06,7.331508290789558104e-05
3.209523809523809668e+00,7.132046840614409901e-06,5.595658127666171651e-05
3.210317460317460458e+00,8.372094904595138903e-06,2.705026707278754413e-05
3.211111111111111249e+00,7.772866307893671014e-06,-9.294556325944617692e-06
3.211904761904762040e+00,4.988283133628467815e-06,-4.681553581272785032e-05
3.212698412698412831e+00,2.424187870726000575e-07,-7.861243600283267284e-05
3.213492063492063622e+00,-5.508931197512334103e-06,-9.895315498303835166e-05
3.214285714285714413e+00,-1.059543981771726934e-05,-1.047851818954191036e-04
3.215079365079365203e+00,-1.288610663939907641e-05,-9.647409360892731625e-05
3.215873015873015994e+00,-1.028522144781545025e-05,-7.756160659536082656e-05
3.216666666666666785e+00,-1.403022514412041388e-06,-5.365384791838486795e-05
3.217460317460317576e+00,1.375200606469644042e-05,-3.080438031635221447e-05
3.218253968253968367e+00,3.328864847401134976e-05,-1.387879741837234780e-05
3.219047619047619158e+00,5.340715168598487739e-05,-5.364715934699830538e-06
3.219841269841269948e+00,6.900005108910940721e-05,-4.946647732495421239e-06
3.220634920634920739e+00,7.485103219501934753e-05,-9.939360163300914054e-06
3.221428571428571530e+00,6.714977051683828453e-05,-1.641554814150914625e-05
3.222222222222222321e+00,4.483796686294553891e-05,-2.064096179485777876e-05
3.223015873015873112e+00,1.026508251254316186e-05,-2.032364034089040094e-05
3.223809523809523903e+00,-3.117234143541527247e-05,-1.525294887153345377e-05
3.224603174603174693e+00,-7.235037706935548609e-05,-7.135220447838948068e-06
3.225396825396825484e+00,-1.062414150705196772e-04,1.268544673687144639e-06
3.226190476190476275e+00,-1.275920839667401034e-04,7.347940600375301966e-06
3.226984126984127066e+00,-1.339143441794125693e-04,9.714495249832961969e-06
3.227777777777777857e+00,-1.255742793679151005e-04,8.708043885746967174e-06
3.228571428571428648e+00,-1.051202704850201747e-04,6.130906428473011208e-06
3.229365079365079438e+00,-7.622976008769140040e-05,4.340161690955626929e-06
3.230158730158730229e+00,-4.270949559159799313e-05,5.119661690303578331e-06
3.230952380952381020e+00,-7.872565921582547080e-06,8.838735773410945478e-06
3.231746031746031811e+00,2.559860007168688099e-05,1.424978622172464878e-05
3.232539682539682602e+00,5.542300142241889224e-05,1.898361353234451475e-05
3.233333333333333393e+00,7.940618699418320442e-05,2.051529898053558657e-05
3.234126984126984183e+00,9.535461978595761838e-05,1.720599104936614029e-05
3.234920634920634974e+00,1.014148156762563713e-04,9.023338404925995522e-06
3.235714285714285765e+00,9.678098399250343665e-05,-2.315414586825271471e-06
3.236507936507936556e+00,8.243329603282930100e-05,-1.381673290892635138e-05
