Timestamp,Flexor carpi radialis,Extensor digitorum
2.000000000000000000e+00,-1.388794953354724856e-06,8.847046423768885378e-06
2.000793650793650791e+00,3.032142360270864067e-07,1.030451699831738686e-05
2.001587301587301582e+00,2.157636365986366041e-06,1.141098985882695397e-05
2.002380952380952372e+00,3.981823507924276819e-06,1.168836367769223686e-05
2.003174603174603163e+00,5.570954054549845602e-06,1.071698874517185302e-05
2.003968253968253954e+00,6.729613334091611057e-06,8.299003141000600478e-06
2.004761904761904745e+00,7.298409080977529578e-06,4.593467433808132181e-06
2.005555555555555536e+00,7.185306924363066031e-06,1.698159515293315858e-07
2.006349206349206327e+00,6.394475666625860750e-06,-4.063124325244360689e-06
2.007142857142857117e+00,5.040547469165106618e-06,-7.059567467535498432e-06
2.007936507936507908e+00,3.337541757771635985e-06,-7.930583961278677739e-06
2.008730158730158699e+00,1.559731720172499898e-06,-6.249954328649531765e-06
2.009523809523809490e+00,-1.709247043663482962e-08,-2.274183692357872160e-06
2.010317460317460281e+00,-1.176748214195319106e-06,3.010721244496888812e-06
2.011111111111111072e+00,-1.807142718030998634e-06,8.058729955296738460e-06
2.011904761904761862e+00,-1.915180529596909929e-06,1.112328500414272262e-05
2.012698412698412653e+00,-1.610142691465475321e-06,1.071475408876593610e-05
2.013492063492063444e+00,-1.064308107116266066e-06,6.031346648776208270e-06
2.014285714285714235e+00,-4.655703832948038010e-07,-2.751967220194990974e-06
2.015079365079365026e+00,2.382202768708446848e-08,-1.441562241184814401e-05
2.015873015873015817e+00,2.941811895334645560e-07,-2.687971998361150916e-05
2.016666666666666607e+00,3.001395156848374409e-07,-3.761617679979252569e-05
2.017460317460317398e+00,6.107007519581617446e-08,-4.420476563236534024e-05
2.018253968253968189e+00,-3.462276547494516918e-07,-4.489925774535432072e-05
2.019047619047618980e+00,-8.020534790355309469e-07,-3.905337277214462774e-05
2.019841269841269771e+00,-1.166644437952255534e-06,-2.728706198141524780e-05
2.020634920634920562e+00,-1.310269028198867309e-06,-1.134539300527993991e-05
2.021428571428571352e+00,-1.145373577941429525e-06,6.307957074218318010e-06
2.022222222222222143e+00,-6.527694345385471473e-07,2.304247935722415584e-05
2.023015873015872934e+00,1.060099838679098995e-07,3.659873793394541943e-05
2.023809523809523725e+00,9.952651627264151022e-07,4.546972933512149969e-05
2.024603174603174516e+00,1.831148881402436682e-06,4.904974449590084577e-05
2.025396825396825307e+00,2.422625157694100715e-06,4.756043172831464337e-05
2.026190476190476097e+00,2.618635864259139864e-06,4.182793841694383379e-05
2.026984126984126888e+00,2.350185267611074542e-06,3.300759159171840699e-05
2.027777777777777679e+00,1.655383437128332074e-06,2.234034900790732794e-05
2.028571428571428470e+00,6.774615588909269024e-07,1.099245660358699597e-05
2.029365079365079261e+00,-3.684433078856092243e-07,-1.269186927781281083e-08
2.030158730158730052e+00,-1.254373838891375944e-06,-9.800432079570066106e-06
2.030952380952380842e+00,-1.808315206711840357e-06,-1.763914805198593888e-05
2.031746031746031633e+00,-1.969315749540595266e-06,-2.296790740412691021e-05
2.032539682539682424e+00,-1.807594738705806545e-06,-2.547054118940258262e-05
2.033333333333333215e+00,-1.500609766925895037e-06,-2.516439354045525042e-05
2.034126984126984006e+00,-1.273234602411140784e-06,-2.244089353651456997e-05
2.034920634920634797e+00,-1.323039586314895828e-06,-1.800475004510693105e-05
2.035714285714285587e+00,-1.754368368077641490e-06,-1.270979461096068231e-05
2.036507936507936378e+00,-2.539003351277312807e-06,-7.349423662395264495e-06
2.037301587301587169e+00,-3.512892297711094509e-06,-2.487115748829620736e-06
2.038095238095237960e+00,-4.411541958933193116e-06,1.607162373814031093e-06
2.038888888888888751e+00,-4.939263027196277129e-06,4.898438886635626444e-06
2.039682539682539542e+00,-4.856602256460680828e-06,7.443629827856511317e-06
2.040476190476190332e+00,-4.059441861827960902e-06,9.239987913558080505e-06
2.041269841269841123e+00,-2.620870369035613240e-06,1.014791054025352837e-05
2.042063492063491914e+00,-7.780787274950618834e-07,9.936385059313022265e-06
2.042857142857142705e+00,1.132715920239254108e-06,8.436963616426202428e-06
2.043650793650793496e+00,2.770328585111136871e-06,5.733128608742713024e-06
2.044444444444444287e+00,3.879105671080031675e-06,2.284354269321605405e-06
2.045238095238095077e+00,4.347430401766031754e-06,-1.099026420621628267e-06
2.046031746031745868e+00,4.219711807748908172e-06,-3.455596528077499814e-06
2.046825396825396659e+00,3.664131399913603670e-06,-3.990925802358888265e-06
2.047619047619047450e+00,2.912236343335092222e-06,-2.387958333255969748e-06
2.048412698412698241e+00,2.193438529968070081e-06,1.031994920573507399e-06
2.049206349206349032e+00,1.685453063698791476e-06,5.383429097170941392e-06
2.049999999999999822e+00,1.491541789542371824e-06,9.510062222718517912e-06
2.050793650793650613e+00,1.642035049916868370e-06,1.238646819459004267e-05
2.051587301587301404e+00,2.107817579465192920e-06,1.347276061364394510e-05
2.052380952380952195e+00,2.812097272751390638e-06,1.288898174337336124e-05
2.053174603174602986e+00,3.634048985463970328e-06,1.134693222907378299e-05
2.053968253968253777e+00,4.409137153149626090e-06,9.862639222930256899e-06
2.054761904761904567e+00,4.938548527859073287e-06,9.341197537326459508e-06
2.055555555555555358e+00,5.018370112812010775e-06,1.016371544689682928e-05
2.056349206349206149e+00,4.488146114920382245e-06,1.191273516717518047e-05
2.057142857142856940e+00,3.284858767996939695e-06,1.334600585534449969e-05
2.057936507936507731e+00,1.480705070017118575e-06,1.266541923434728859e-05
2.058730158730158522e+00,-7.139232388668197125e-07,8.036745539262052281e-06
2.059523809523809312e+00,-2.988459117083229974e-06,-1.775674434415939560e-06
2.060317460317460103e+00,-5.001767667715898524e-06,-1.684989334068000928e-05
2.061111111111110894e+00,-6.462451469127841402e-06,-3.580631743066521778e-05
2.061904761904761685e+00,-7.196139760184631833e-06,-5.588329245177135030e-05
2.062698412698412920e+00,-7.181444199371978226e-06,-7.340511886146879647e-05
2.063492063492063711e+00,-6.546152013828928882e-06,-8.455529213689928585e-05
2.064285714285714501e+00,-5.525962144044149064e-06,-8.627874530181383879e-05
2.065079365079365292e+00,-4.397438950356143127e-06,-7.708047821626214970e-05
2.065873015873016083e+00,-3.403171695083624817e-06,-5.748752991806645911e-05
2.066666666666666874e+00,-2.688910030973658825e-06,-3.001382323471970092e-05
2.067460317460317665e+00,-2.269285777606152441e-06,1.393532078484529718e-06
2.068253968253968456e+00,-2.031366306399061896e-06,3.227893667626135273e-05
2.069047619047619246e+00,-1.775159764482370135e-06,5.869023317886545334e-05
2.069841269841270037e+00,-1.279845386685737658e-06,7.795766513015485054e-05
2.070634920634920828e+00,-3.773950790421303807e-07,8.901282390715468062e-05
2.071428571428571619e+00,9.862845485408502785e-07,9.220531817149567647e-05
2.072222222222222410e+00,2.718988626974200296e-06,8.876193928416991935e-05
2.073015873015873201e+00,4.588166859123305681e-06,8.013930315883107324e-05
2.073809523809523991e+00,6.265815413710831013e-06,6.751848677756568389e-05
2.074603174603174782e+00,7.402630053103560505e-06,5.160368103670051116e-05
2.075396825396825573e+00,7.712846915745580543e-06,3.275760243125702497e-05
2.076190476190476364e+00,7.047622323876705209e-06,1.137432260161016423e-05
2.076984126984127155e+00,5.438087272533301330e-06,-1.170255153785499617e-05
2.077777777777777946e+00,3.097490044998243448e-06,-3.492568596762286870e-05
2.078571428571428736e+00,3.820991893657762856e-07,-5.609607502307005169e-05
2.079365079365079527e+00,-2.279571840848190075e-06,-7.273894962415637622e-05
2.080158730158730318e+00,-4.472102026076646602e-06,-8.268948559633958130e-05
2.080952380952381109e+00,-5.872750006108464300e-06,-8.468817055811602421e-05
2.081746031746031900e+00,-6.307355033436707948e-06,-7.877784326372149989e-05
2.082539682539682691e+00,-5.771819846473341223e-06,-6.636377035361808261e-05
2.083333333333333481e+00,-4.417927798550096146e-06,-4.991224554786024219e-05
2.084126984126984272e+00,-2.510898380950110945e-06,-3.237663309444054283e-05
2.084920634920635063e+00,-3.715039120073502485e-07,-1.651565436512112027e-05
2.085714285714285854e+00,1.683116623762452557e-06,-4.290119854037825987e-06
2.086507936507936645e+00,3.387985988329622021e-06,3.506316151410394273e-06
2.087301587301587436e+00,4.560634548745974687e-06,7.295348025620875459e-06
2.088095238095238226e+00,5.111210977207422894e-06,8.442895598855168279e-06
2.088888888888889017e+00,5.035436740335981518e-06,8.758791226889471034e-06
2.089682539682539808e+00,4.396760458865527394e-06,9.919683124437306441e-06
2.090476190476190599e+00,3.304611169669139777e-06,1.298136214485092149e-05
2.091269841269841390e+00,1.893956900412291306e-06,1.810816787325567471e-05
2.092063492063492181e+00,3.089831592767820734e-07,2.457414971338305046e-05
2.092857142857142971e+00,-1.308165190546025988e-06,3.101117440104885799e-05
2.093650793650793762e+00,-2.824000076751086819e-06,3.581720208568192816e-05
2.094444444444444553e+00,-4.117483760774817806e-06,3.760687905230991211e-05
2.095238095238095344e+00,-5.083961982224635990e-06,3.558897441635079493e-05
2.096031746031746135e+00,-5.642012013274252114e-06,2.978491712815472956e-05
2.096825396825396925e+00,-5.743921743614450368e-06,2.104794347860173312e-05
2.097619047619047716e+00,-5.387287103745606238e-06,1.089017137034008759e-05
2.098412698412698507e+00,-4.622489173780680416e-06,1.165545144695426932e-06
2.099206349206349298e+00,-3.550570217931860546e-06,-6.315858031645327160e-06
2.100000000000000089e+00,-2.309169116725910247e-06,-1.015616437254383940e-05
2.100793650793650880e+00,-1.049192672302937037e-06,-9.642779916792552442e-06
2.101587301587301670e+00,9.120369215408170711e-08,-4.872187417478885437e-06
2.102380952380952461e+00,1.007973646576642279e-06,3.295215586413401860e-06
2.103174603174603252e+00,1.642761474543228038e-06,1.342900233718442109e-05
2.103968253968254043e+00,1.983273201247075926e-06,2.381372829607957250e-05
2.104761904761904834e+00,2.054271300576583416e-06,3.274805466925618142e-05
2.105555555555555625e+00,1.903065567982001050e-06,3.879175303854609259e-05
2.106349206349206415e+00,1.584521126352518819e-06,4.092844772256176185e-05
2.107142857142857206e+00,1.150768717749599785e-06,3.864772729769271747e-05
2.107936507936507997e+00,6.489548638182767173e-07,3.197091757136911945e-05
2.108730158730158788e+00,1.264982542657891389e-07,2.144424314091338170e-05
2.109523809523809579e+00,-3.605173093793897437e-07,8.102867424137273920e-06
2.110317460317460370e+00,-7.418140569291783009e-07,-6.615242010931081830e-06
2.111111111111111160e+00,-9.353101707262815285e-07,-2.102995433674829663e-05
2.111904761904761951e+00,-8.597012969192198925e-07,-3.345033874316933817e-05
2.112698412698412742e+00,-4.555409195968151397e-07,-4.243326402478384587e-05
2.113492063492063533e+00,2.911221900599562003e-07,-4.700528524593648483e-05
2.114285714285714324e+00,1.331298818903141697e-06,-4.679614557392132955e-05
2.115079365079365115e+00,2.550090873598766085e-06,-4.206527645998332191e-05
2.115873015873015905e+00,3.782223292819098833e-06,-3.363325123503775962e-05
2.116666666666666696e+00,4.843524772375249097e-06,-2.274371379428842180e-05
2.117460317460317487e+00,5.569860313667520571e-06,-1.088156891096356881e-05
2.118253968253968278e+00,5.852626988137782347e-06,4.266092568724509047e-07
2.119047619047619069e+00,5.662052561431420707e-06,9.799808392067221931e-06
2.119841269841269860e+00,5.054209195921417935e-06,1.614943789586133663e-05
2.120634920634920650e+00,4.161604266036294633e-06,1.877474647829514549e-05
2.121428571428571441e+00,3.168981092004256429e-06,1.741927456689027788e-05
2.122222222222222232e+00,2.276910715671795990e-06,1.231195544687049023e-05
2.123015873015873023e+00,1.657783950274351266e-06,4.202734442083097122e-06
2.123809523809523814e+00,1.411808544682128602e-06,-5.629936213087234283e-06
2.124603174603174605e+00,1.532789687641481270e-06,-1.545102550715770425e-05
2.125396825396825395e+00,1.893581568984844377e-06,-2.327281068770898319e-05
2.126190476190476186e+00,2.259057777114704504e-06,-2.720766480799245189e-05
2.126984126984126977e+00,2.329970796797419343e-06,-2.592144579122990369e-05
2.127777777777777768e+00,1.813444855028773762e-06,-1.906635849733579076e-05
2.128571428571428559e+00,5.060068867692617663e-07,-7.529584144865942911e-06
2.129365079365079350e+00,-1.632986118022503879e-06,6.639096452582226664e-06
2.130158730158730140e+00,-4.440866968841576937e-06,2.065448186184269650e-05
2.130952380952380931e+00,-7.559684947024035770e-06,3.167524404002191875e-05
2.131746031746031722e+00,-1.049418555543911506e-05,3.752840323792844415e-05
2.132539682539682513e+00,-1.270653700599826443e-05,3.724876755368194221e-05
2.133333333333333304e+00,-1.372501664114797115e-05,3.126987142269898950e-05
2.134126984126984095e+00,-1.324218034340041152e-05,2.122766678933742720e-05
2.134920634920634885e+00,-1.118346298911508218e-05,9.465650997231809066e-06
2.135714285714285676e+00,-7.736183281460939616e-06,-1.588395577339557991e-06
2.136507936507936467e+00,-3.337095644194984091e-06,-9.990013778157835132e-06
2.137301587301587258e+00,1.378908476661748812e-06,-1.465202783815423119e-05
2.138095238095238049e+00,5.664670403139342479e-06,-1.546365461390685408e-05
2.138888888888888840e+00,8.774362289424415289e-06,-1.316693617355655392e-05
2.139682539682539630e+00,1.009230646493672661e-05,-9.054100294141388287e-06
2.140476190476190421e+00,9.257523581887265929e-06,-4.579895457467224975e-06
2.141269841269841212e+00,6.260070811050703917e-06,-9.960493251447354466e-07
2.142063492063492003e+00,1.485856996660044601e-06,8.962977018183344360e-07
2.142857142857142794e+00,-4.307601405565597748e-06,8.242419702571853286e-07
2.143650793650793585e+00,-1.009197154790271300e-05,-1.035194324635324906e-06
2.144444444444444375e+00,-1.473877161024661063e-05,-4.219086925588772474e-06
2.145238095238095166e+00,-1.723516166706562275e-05,-8.141657515337573606e-06
2.146031746031745957e+00,-1.690135871604129988e-05,-1.219899036377785438e-05
2.146825396825396748e+00,-1.355487789028448244e-05,-1.581181153077126846e-05
2.147619047619047539e+00,-7.572548928059499358e-06,-1.844599647609127500e-05
2.148412698412698330e+00,1.728287676668484927e-07,-1.965534368645074600e-05
2.149206349206349120e+00,8.486970708862672837e-06,-1.915628331347522001e-05
2.149999999999999911e+00,1.609298547339430235e-05,-1.689903727431944980e-05
2.150793650793650702e+00,2.187335053538625582e-05,-1.308289146191571797e-05
2.151587301587301493e+00,2.506011804765968443e-05,-8.090611950456707066e-06
2.152380952380952284e+00,2.533957314442698806e-05,-2.370012986180199970e-06
2.153174603174603075e+00,2.286288714656446429e-05,3.669118896132188055e-06
2.153968253968253865e+00,1.817514906043867618e-05,9.680428083442645028e-06
2.154761904761904656e+00,1.208821316664534620e-05,1.532148935119420749e-05
2.155555555555555447e+00,5.528788388004452137e-06,2.016739288844344701e-05
2.156349206349206238e+00,-6.076379858072305016e-07,2.367790034294840976e-05
2.157142857142857029e+00,-5.574844671125194348e-06,2.526378171986907499e-05
2.157936507936507819e+00,-8.856924769405751039e-06,2.443935087053529436e-05
2.158730158730158610e+00,-1.021425737519984794e-05,2.100517090299120789e-05
2.159523809523809401e+00,-9.699041153924243714e-06,1.519006714228076440e-05
2.160317460317460192e+00,-7.640339503178950295e-06,7.690543667259631272e-06
2.161111111111110983e+00,-4.592911628271267318e-06,-4.257119944981047114e-07
2.161904761904761774e+00,-1.245177369368582491e-06,-7.942056475458860967e-06
2.162698412698412564e+00,1.706580043622259225e-06,-1.378385204358710825e-05
2.163492063492063355e+00,3.692773833658749256e-06,-1.728786375862331390e-05
2.164285714285714146e+00,4.377082942411367634e-06,-1.835637277953428018e-05
2.165079365079364937e+00,3.703423096654382833e-06,-1.743743920025375414e-05
2.165873015873015728e+00,1.873057805399506739e-06,-1.533827661131865647e-05
2.166666666666666519e+00,-7.328738131157825070e-07,-1.294637908754069024e-05
2.167460317460317309e+00,-3.654206477461702606e-06,-1.096688538053852734e-05
2.168253968253968100e+00,-6.444829044907923194e-06,-9.764458164249312003e-06
2.169047619047618891e+00,-8.739301823514862902e-06,-9.336931092419873432e-06
2.169841269841269682e+00,-1.028957142463966935e-05,-9.386371025119728809e-06
2.170634920634920473e+00,-1.097777791269874001e-05,-9.427828888324723996e-06
2.171428571428571264e+00,-1.081211846481521697e-05,-8.892706748625335542e-06
2.172222222222222054e+00,-9.908554607128123546e-06,-7.218651666539508979e-06
2.173015873015872845e+00,-8.457603206861976421e-06,-3.942543138022928698e-06
2.173809523809523636e+00,-6.676986770546713874e-06,1.186319985970934753e-06
2.174603174603174427e+00,-4.757801114772241650e-06,8.076608965861805316e-06
2.175396825396825218e+00,-2.819336148000822570e-06,1.618274090738545032e-05
2.176190476190476009e+00,-8.893459950397783448e-07,2.446678205683711188e-05
2.176984126984126799e+00,1.080157858823695989e-06,3.149206675464690436e-05
2.177777777777777590e+00,3.163766442313333287e-06,3.567691801904686376e-05
2.178571428571428381e+00,5.394958296140966964e-06,3.568110022261879123e-05
2.179365079365079172e+00,7.702797808436242995e-06,3.083272812055545874e-05
2.180158730158729963e+00,9.876785450355631422e-06,2.145759501532890331e-05
2.180952380952380754e+00,1.157683313441756011e-05,8.974149087000607379e-06
2.181746031746031544e+00,1.239380985987582625e-05,-4.322338152537874826e-06
2.182539682539682335e+00,1.195221758093776577e-05,-1.575907745606434484e-05
2.183333333333333126e+00,1.003132475918904306e-05,-2.293562898092329718e-05
2.184126984126983917e+00,6.668174416880305571e-06,-2.433142854166691623e-05
2.184920634920634708e+00,2.203489616541886552e-06,-1.968899369036676491e-05
2.185714285714285499e+00,-2.754256055066489946e-06,-1.006418094648689174e-05
2.186507936507936289e+00,-7.444105116854989065e-06,2.460429932938637795e-06
2.187301587301587080e+00,-1.111665597401405013e-05,1.530275694201811901e-05
2.188095238095238315e+00,-1.319984569753407660e-05,2.598802679614267957e-05
2.188888888888889106e+00,-1.342053353864913215e-05,3.266606591899341711e-05
2.189682539682539897e+00,-1.185234892492676418e-05,3.442062281646711343e-05
2.190476190476190688e+00,-8.883856975883393605e-06,3.133518444695353037e-05
2.191269841269841478e+00,-5.122298538860233591e-06,2.435092530849933945e-05
2.192063492063492269e+00,-1.260722685507677536e-06,1.498417822861130351e-05
2.192857142857143060e+00,2.060415769974273523e-06,4.971458647826128371e-06
2.193650793650793851e+00,4.369303375953190630e-06,-4.095218472789941519e-06
2.194444444444444642e+00,5.435725141054757225e-06,-1.107956778644417519e-05
2.195238095238095433e+00,5.290343274755565295e-06,-1.549718475667599986e-05
2.196031746031746223e+00,4.191324953582452247e-06,-1.755060314517429060e-05
2.196825396825397014e+00,2.549595650435596232e-06,-1.799107589605790256e-05
2.197619047619047805e+00,8.307037203435133533e-07,-1.784068192316569647e-05
2.198412698412698596e+00,-5.457520539154316610e-07,-1.805187153558284897e-05
2.199206349206349387e+00,-1.288486936219695010e-06,-1.920609719458776844e-05
2.200000000000000178e+00,-1.281850193849169818e-06,-2.134660983102608912e-05
2.200793650793650968e+00,-5.890625961265469893e-07,-2.400027111801473080e-05
2.201587301587301759e+00,5.863826370940379392e-07,-2.637934896836385547e-05
2.202380952380952550e+00,1.966901897893159148e-06,-2.768935759471507843e-05
2.203174603174603341e+00,3.272729705633880169e-06,-2.742964548076195754e-05
2.203968253968254132e+00,4.278977976538993926e-06,-2.557573404453288878e-05
2.204761904761904923e+00,4.846983763544537154e-06,-2.257499347749900893e-05
2.205555555555555713e+00,4.931204554547963091e-06,-1.915531269628119684e-05
2.206349206349206504e+00,4.570154569647580976e-06,-1.601768655563891484e-05
2.207142857142857295e+00,3.869368152651347424e-06,-1.353201482328306515e-05
2.207936507936508086e+00,2.979741298379994355e-06,-1.155926097894593688e-05
2.208730158730158877e+00,2.071793161202273457e-06,-9.478487568676135342e-06
2.209523809523809668e+00,1.307508818027912264e-06,-6.421967891247936051e-06
2.210317460317460458e+00,8.136395662434325963e-07,-1.644129647161520642e-06
2.211111111111111249e+00,6.605311328318254529e-07,5.103361469860532972e-06
2.211904761904762040e+00,8.489508442430443842e-07,1.333016544304583039e-05
2.212698412698412831e+00,1.306145352167333113e-06,2.180433338938483128e-05
2.213492063492063622e+00,1.892464601348441939e-06,2.881837195423238242e-05
2.214285714285714413e+00,2.420345860259296540e-06,3.266223637473741041e-05
2.215079365079365203e+00,2.686485344165351646e-06,3.216241264024932315e-05
2.215873015873015994e+00,2.514578272842447945e-06,2.711260950694614915e-05
2.216666666666666785e+00,1.800914239684190726e-06,1.844786354507680325e-05
2.217460317460317576e+00,5.511129645673821823e-07,8.090607486580262816e-06
2.218253968253968367e+00,-1.103817557045516559e-06,-1.504244924350068390e-06
2.219047619047619158e+00,-2.919587768737825899e-06,-7.990585373983594540e-06
2.219841269841269948e+00,-4.579591183108355047e-06,-9.788569384324187969e-06
2.220634920634920739e+00,-5.758571427360891962e-06,-6.572400773406219328e-06
2.221428571428571530e+00,-6.197014208256710275e-06,5.686550785689792918e-07
2.222222222222222321e+00,-5.769589133438897813e-06,9.376614858630879078e-06
2.223015873015873112e+00,-4.528382256443639150e-06,1.704194612075414462e-05
2.223809523809523903e+00,-2.704186354291560737e-06,2.102660984501607120e-05
2.224603174603174693e+00,-6.595522432332020242e-07,1.983915070396951745e-05
2.225396825396825484e+00,1.196265755902387038e-06,1.350640416215007945e-05
2.226190476190476275e+00,2.505719076201671507e-06,3.581677055319288049e-06
2.226984126984127066e+00,3.045427824674537462e-06,-7.316014556041285861e-06
2.227777777777777857e+00,2.770693622275607104e-06,-1.628169714468896741e-05
2.228571428571428648e+00,1.813761802072666568e-06,-2.096943387158324833e-05
2.229365079365079438e+00,4.405459989935381471e-07,-2.023202472747315009e-05
2.230158730158730229e+00,-1.020758153255147460e-06,-1.436576289971864895e-05
2.230952380952381020e+00,-2.261182041338904256e-06,-4.920995362014091971e-06
2.231746031746031811e+00,-3.063286854269025207e-06,5.807138191474778909e-06
2.232539682539682602e+00,-3.347160176175211590e-06,1.540750071222682813e-05
2.233333333333333393e+00,-3.179428013551919337e-06,2.191150208731900090e-05
2.234126984126984183e+00,-2.744079340104651060e-06,2.416820737906760582e-05
2.234920634920634974e+00,-2.283633799751512974e-06,2.200570501316882673e-05
2.235714285714285765e+00,-2.026479172850064305e-06,1.619490117031129430e-05
2.236507936507936556e+00,-2.119450754268987249e-06,8.242146724801623423e-06
2.237301587301587347e+00,-2.583326252267477594e-06,4.158980108155829112e-08
2.238095238095238138e+00,-3.303083772642987984e-06,-6.559770022898719066e-06
2.238888888888888928e+00,-4.055556882372987410e-06,-1.019776154543192387e-05
2.239682539682539719e+00,-4.566755068572134447e-06,-1.031907036461187509e-05
2.240476190476190510e+00,-4.582931494548622277e-06,-7.303446733052882215e-06
2.241269841269841301e+00,-3.936312592663977110e-06,-2.333774245178509718e-06
2.242063492063492092e+00,-2.588904267402294720e-06,2.948419659552864613e-06
2.242857142857142883e+00,-6.445780391152590544e-07,6.885784800862389783e-06
2.243650793650793673e+00,1.671591108200112961e-06,8.203372465558547559e-06
2.244444444444444464e+00,4.059757062676266831e-06,6.260005659474964070e-06
2.245238095238095255e+00,6.205680088277243539e-06,1.126949374519570985e-06
2.246031746031746046e+00,7.842139481722052620e-06,-6.469636167945278050e-06
2.246825396825396837e+00,8.799769840947833975e-06,-1.528765077569224024e-05
2.247619047619047628e+00,9.037691941991988427e-06,-2.375589123213726276e-05
2.248412698412698418e+00,8.646585014297380982e-06,-3.020614982910681907e-05
2.249206349206349209e+00,7.820700296712578060e-06,-3.315574828602553981e-05
2.250000000000000000e+00,6.802475309389696771e-06,-3.161925888479325838e-05
2.250793650793650791e+00,5.813118765946335354e-06,-2.538458407451126618e-05
2.251587301587301582e+00,4.989790287854386977e-06,-1.515838401797065099e-05
2.252380952380952372e+00,4.349152125401118047e-06,-2.495279078562706623e-06
2.253174603174603163e+00,3.788046288733271099e-06,1.051464648017231713e-05
2.253968253968253954e+00,3.120505600417425468e-06,2.173010816381073989e-05
2.254761904761904745e+00,2.141114222722124230e-06,2.946195512060847965e-05
2.255555555555555536e+00,6.983647191029190361e-07,3.282834040703354604e-05
2.256349206349206327e+00,-1.242373822090278963e-06,3.186183294730844261e-05
2.257142857142857117e+00,-3.566353953586314937e-06,2.737297136488344796e-05
2.257936507936507908e+00,-6.020223515406980105e-06,2.065456462267540563e-05
2.258730158730158699e+00,-8.265265901964273485e-06,1.313576746552975358e-05
2.259523809523809490e+00,-9.957410282265724799e-06,6.073780597090277623e-06
2.260317460317460281e+00,-1.082939284634183255e-05,3.337870351167485803e-07
2.261111111111111072e+00,-1.075188526789542685e-05,-3.719790707981998974e-06
2.261904761904761862e+00,-9.759728201115881773e-06,-6.212405892964468773e-06
2.262698412698412653e+00,-8.039669144171328677e-06,-7.637336535664957914e-06
2.263492063492063444e+00,-5.883267403579707320e-06,-8.656761659016972638e-06
2.264285714285714235e+00,-3.615030754590275742e-06,-9.882989922068507752e-06
2.265079365079365026e+00,-1.513898108480211713e-06,-1.170101811982505461e-05
2.265873015873015817e+00,2.474948711953283807e-07,-1.417681565354698876e-05
2.266666666666666607e+00,1.623980572318524276e-06,-1.706657743953711990e-05
2.267460317460317398e+00,2.672386725285090585e-06,-1.991138543076588586e-05
2.268253968253968189e+00,3.492988238051895333e-06,-2.217895217421799844e-05
2.269047619047618980e+00,4.165881929556318734e-06,-2.340674581671544643e-05
2.269841269841269771e+00,4.709773435805649968e-06,-2.331046612321604664e-05
2.270634920634920562e+00,5.076775880010836938e-06,-2.184111545971973686e-05
2.271428571428571352e+00,5.179433364753579192e-06,-1.918885741176767356e-05
2.272222222222222143e+00,4.934891129752485726e-06,-1.573474971574596870e-05
2.273015873015872934e+00,4.308696859876050255e-06,-1.195084219164440344e-05
2.273809523809523725e+00,3.343902228786221389e-06,-8.259818828553587911e-06
2.274603174603174516e+00,2.166275426266985550e-06,-4.888829803025745887e-06
2.275396825396825307e+00,9.629928883194554750e-07,-1.772758446675196671e-06
2.276190476190476097e+00,-5.935679332649161255e-08,1.440194203690767261e-06
2.276984126984126888e+00,-7.238277822913421088e-07,5.262681794040039514e-06
2.277777777777777679e+00,-9.234468523214864214e-07,1.016063275232648459e-05
2.278571428571428470e+00,-6.423444384294897749e-07,1.634901613853098756e-05
2.279365079365079261e+00,4.400497503534435351e-08,2.367988280299491234e-05
2.280158730158730052e+00,9.845516458822855023e-07,3.166418009270165012e-05
2.280952380952380842e+00,1.977480396886038977e-06,3.959650029868384726e-05
2.281746031746031633e+00,2.798197519916102293e-06,4.670013926658480620e-05
2.282539682539682424e+00,3.227049294233782855e-06,5.221304865596557149e-05
2.283333333333333215e+00,3.076201240358842678e-06,5.539203235586875152e-05
2.284126984126984006e+00,2.217451268635062728e-06,5.548429725749386057e-05
2.284920634920634797e+00,6.122304938415276685e-07,5.175320017742552264e-05
2.285714285714285587e+00,-1.660040402601062212e-06,4.362243242571795817e-05
2.286507936507936378e+00,-4.386268916079584827e-06,3.093023970372474812e-05
2.287301587301587169e+00,-7.230711369486542630e-06,1.420133644771888751e-05
2.288095238095237960e+00,-9.780638372219758325e-06,-5.202874612764856778e-06
2.288888888888888751e+00,-1.162097724544023069e-05,-2.517151428098862427e-05
2.289682539682539542e+00,-1.241872882525847131e-05,-4.319358784546980932e-05
2.290476190476190332e+00,-1.199256822302009394e-05,-5.688092225901745722e-05
2.291269841269841123e+00,-1.034851860826523381e-05,-6.450058446959256548e-05
2.292063492063491914e+00,-7.674915635812133556e-06,-6.534994870295945360e-05
2.292857142857142705e+00,-4.302096255475180755e-06,-5.987009419719191102e-05
2.293650793650793496e+00,-6.397181561879360653e-07,-4.948544204720268684e-05
2.294444444444444287e+00,2.893036161554313469e-06,-3.624126059461662620e-05
2.295238095238095077e+00,5.930324357198495338e-06,-2.236009119881695402e-05
2.296031746031745868e+00,8.205299160673057830e-06,-9.842317226156762294e-06
2.296825396825396659e+00,9.573701514641105379e-06,-1.977542696953678945e-07
2.297619047619047450e+00,1.001559697166665771e-05,5.668839557920476705e-06
2.298412698412698241e+00,9.618445053815324216e-06,7.456660602536017830e-06
2.299206349206349032e+00,8.546307490913981249e-06,5.419954884869374307e-06
2.299999999999999822e+00,7.002027353949168663e-06,3.227937191190308252e-07
2.300793650793650613e+00,5.191314570855695424e-06,-6.601095802998542592e-06
2.301587301587301404e+00,3.297157688940154687e-06,-1.373113694804119577e-05
2.302380952380952195e+00,1.468269994637006876e-06,-1.924446785535400737e-05
2.303174603174602986e+00,-1.812151143884870969e-07,-2.142364696840685139e-05
2.303968253968253777e+00,-1.567223804109347463e-06,-1.904334487666776521e-05
2.304761904761904567e+00,-2.631321972954669010e-06,-1.173435840991664047e-05
2.305555555555555358e+00,-3.336796584064423914e-06,-2.013384083328985302e-07
2.306349206349206149e+00,-3.662537666001732741e-06,1.380474730086471920e-05
2.307142857142856940e+00,-3.593578191727674965e-06,2.779286626214070162e-05
2.307936507936507731e+00,-3.112549515390661332e-06,3.906491854259956366e-05
2.308730158730158522e+00,-2.200446561245760633e-06,4.534658587245577664e-05
2.309523809523809312e+00,-8.527866441695384659e-07,4.534479159843394277e-05
2.310317460317460103e+00,8.913858423037441567e-07,3.907088423052865818e-05
2.311111111111110894e+00,2.919768825086818625e-06,2.783361706088604670e-05
2.311904761904761685e+00,5.033102051172254380e-06,1.390559054420583145e-05
2.312698412698412920e+00,6.960741227584378892e-06,-3.325892064662734203e-08
2.313492063492063711e+00,8.407421635157709053e-06,-1.150756579167930078e-05
2.314285714285714501e+00,9.118659053743470518e-06,-1.874348760363460663e-05
2.315079365079365292e+00,8.942404995208488416e-06,-2.093756832177892286e-05
2.315873015873016083e+00,7.865498305491628518e-06,-1.827161047278555485e-05
2.316666666666666874e+00,6.014756786641457352e-06,-1.172428651403151611e-05
2.317460317460317665e+00,3.626978278852415779e-06,-2.768060284321427136e-06
2.318253968253968456e+00,1.001103768257743809e-06,6.962193515493026857e-06
2.319047619047619246e+00,-1.553578766327909419e-06,1.596276669419995268e-05
2.319841269841270037e+00,-3.763336598735032344e-06,2.307004095437573566e-05
2.320634920634920828e+00,-5.424162609827087738e-06,2.755912085166959189e-05
2.321428571428571619e+00,-6.421301992094092086e-06,2.913795338552561544e-05
2.322222222222222410e+00,-6.734072584731524022e-06,2.787308045662058233e-05
2.323015873015873201e+00,-6.428500719572886617e-06,2.409256389731733852e-05
2.323809523809523991e+00,-5.641339684075949264e-06,1.829850339085211771e-05
2.324603174603174782e+00,-4.558319579816140834e-06,1.110199797162329271e-05
2.325396825396825573e+00,-3.388259750365472826e-06,3.179313956987385045e-06
2.326190476190476364e+00,-2.334203363020152661e-06,-4.760642265496436801e-06
2.326984126984127155e+00,-1.563127416726802806e-06,-1.201280365383661869e-05
2.327777777777777946e+00,-1.176765835767463255e-06,-1.793066351219242037e-05
2.328571428571428736e+00,-1.188080391547719691e-06,-2.200238359033571432e-05
2.329365079365079527e+00,-1.510905751810513135e-06,-2.393330710263603511e-05
2.330158730158730318e+00,-1.971710166832616379e-06,-2.370678163623119304e-05
2.330952380952381109e+00,-2.348459449456453575e-06,-2.159849167912605540e-05
2.331746031746031900e+00,-2.431717203849904585e-06,-1.813632487079173367e-05
2.332539682539682691e+00,-2.091814462276138010e-06,-1.401257050869403217e-05
2.333333333333333481e+00,-1.329388347669763464e-06,-9.959658803984538020e-06
2.334126984126984272e+00,-2.888334393712024555e-07,-6.604358933905661849e-06
2.334920634920635063e+00,7.746260358127473419e-07,-4.329560267729794258e-06
2.335714285714285854e+00,1.567297017370365465e-06,-3.189393032747965708e-06
2.336507936507936645e+00,1.846992721990059987e-06,-2.919932674991524414e-06
2.337301587301587436e+00,1.501227392700895801e-06,-3.052868754256993157e-06
2.338095238095238226e+00,5.868780225382675704e-07,-3.090587380824574783e-06
2.338888888888889017e+00,-6.831847074861855648e-07,-2.672379403802220626e-06
2.339682539682539808e+00,-2.003100445998820573e-06,-1.673577174404860944e-06
2.340476190476190599e+00,-3.066112967372317025e-06,-2.200489695235278315e-07
2.341269841269841390e+00,-3.654923195457889822e-06,1.362993034641944935e-06
2.342063492063492181e+00,-3.699674015546994601e-06,2.637861520192441167e-06
2.342857142857142971e+00,-3.284284606331325730e-06,3.154479068197681312e-06
2.343650793650793762e+00,-2.601179300562284245e-06,2.547886856883759406e-06
2.344444444444444553e+00,-1.874227915073431115e-06,6.183134723326689384e-07
2.345238095238095344e+00,-1.281086033442365870e-06,-2.614871746134612113e-06
2.346031746031746135e+00,-9.041077516787242268e-07,-6.880412124915270506e-06
2.346825396825396925e+00,-7.249101818516289668e-07,-1.163363059501375244e-05
2.347619047619047716e+00,-6.579403021769648342e-07,-1.605142475116727531e-05
2.348412698412698507e+00,-6.020222684553048875e-07,-1.907442069550944550e-05
2.349206349206349298e+00,-4.838661370859435830e-07,-1.953920937249533106e-05
2.350000000000000089e+00,-2.762742477618590981e-07,-1.642518390528727233e-05
2.350793650793650880e+00,9.679351840945271404e-09,-9.188174705154888029e-06
2.351587301587301670e+00,3.458148537985704066e-07,1.914594667422763126e-06
2.352380952380952461e+00,7.062536842665851286e-07,1.564668038350996141e-05
2.353174603174603252e+00,1.077563397190910807e-06,2.988068773744863009e-05
2.353968253968254043e+00,1.461587924099907470e-06,4.198456474276739884e-05
2.354761904761904834e+00,1.876272464378924209e-06,4.941836292409515480e-05
2.355555555555555625e+00,2.355975917679265118e-06,5.036096212949726724e-05
2.356349206349206415e+00,2.947325539966650231e-06,4.417078058196272029e-05
2.357142857142857206e+00,3.695656666483899093e-06,3.155308378910667605e-05
2.357936507936507997e+00,4.621618161608576292e-06,1.441450948610575430e-05
2.358730158730158788e+00,5.693961147311980676e-06,-4.524605628816701899e-06
2.359523809523809579e+00,6.808573757667101877e-06,-2.224598504486967888e-05
2.360317460317460370e+00,7.783814324674215136e-06,-3.596245821492195072e-05
2.361111111111111160e+00,8.378931867528198758e-06,-4.357187133455724766e-05
2.361904761904761951e+00,8.337054005719053993e-06,-4.398311842546428178e-05
2.362698412698412742e+00,7.447459086644047727e-06,-3.728913884483010501e-05
2.363492063492063533e+00,5.614426899947572624e-06,-2.477230802269578892e-05
2.364285714285714324e+00,2.913880845829266046e-06,-8.728738420146141976e-06
2.365079365079365115e+00,-3.827240173677338899e-07,7.891897661341930762e-06
2.365873015873015905e+00,-3.832567117606172767e-06,2.200370153186418840e-05
2.366666666666666696e+00,-6.896226533320483110e-06,3.098700930468457947e-05
2.367460317460317487e+00,-9.048685180088431401e-06,3.326152331516536362e-05
2.368253968253968278e+00,-9.898063589667698386e-06,2.868949798775653672e-05
2.369047619047619069e+00,-9.278945026688181942e-06,1.867393161490976734e-05
2.369841269841269860e+00,-7.294278292534694006e-06,5.873048699628017415e-06
2.370634920634920650e+00,-4.295170230087577046e-06,-6.437893842440730849e-06
2.371428571428571441e+00,-8.052360972413352569e-07,-1.519783039036299672e-05
2.372222222222222232e+00,2.589749343090665042e-06,-1.833841173203439826e-05
2.373015873015873023e+00,5.358721983591526151e-06,-1.527081874273770470e-05
2.373809523809523814e+00,7.121311845407046331e-06,-6.945314412712329717e-06
2.374603174603174605e+00,7.703806252627964880e-06,4.499965842246587046e-06
2.375396825396825395e+00,7.148375867097090145e-06,1.635431791767122950e-05
2.376190476190476186e+00,5.680707068433451643e-06,2.600808239787879886e-05
2.376984126984126977e+00,3.648810609124179219e-06,3.149816359959386921e-05
2.377777777777777768e+00,1.447967986266438305e-06,3.181479206167436337e-05
2.378571428571428559e+00,-5.549575859063019225e-07,2.695502984524469258e-05
2.379365079365079350e+00,-2.087012639342455728e-06,1.778300552373592049e-05
2.380158730158730140e+00,-3.014405639881691114e-06,5.780465875019291126e-06
2.380952380952380931e+00,-3.357988572559036156e-06,-7.249486655984292290e-06
2.381746031746031722e+00,-3.273268797378371164e-06,-1.949168899804714351e-05
2.382539682539682513e+00,-2.997935440547582176e-06,-2.941393008592004920e-05
2.383333333333333304e+00,-2.780376098061359490e-06,-3.600496462823359647e-05
2.384126984126984095e+00,-2.809269632213974813e-06,-3.890290674668287326e-05
2.384920634920634885e+00,-3.163466058778503520e-06,-3.838066328369892235e-05
2.385714285714285676e+00,-3.794595329767988628e-06,-3.519884637936103743e-05
2.386507936507936467e+00,-4.546350487532541330e-06,-3.037823898188670184e-05
2.387301587301587258e+00,-5.205705780151488650e-06,-2.496147502464041856e-05
2.388095238095238049e+00,-5.571779870037297182e-06,-1.982474770559325663e-05
2.388888888888888840e+00,-5.519999737591536346e-06,-1.557480323645635237e-05
2.389682539682539630e+00,-5.038427385294238530e-06,-1.253366335693625899e-05
2.390476190476190421e+00,-4.222658730162462018e-06,-1.078129975517766397e-05
2.391269841269841212e+00,-3.232120043721736773e-06,-1.020782493719797622e-05
2.392063492063492003e+00,-2.226147356261171177e-06,-1.053656368272662829e-05
2.392857142857142794e+00,-1.305639610755895324e-06,-1.131620458391404889e-05
2.393650793650793585e+00,-4.823656826309176300e-07,-1.191860232121379446e-05
2.394444444444444375e+00,3.139657693549806585e-07,-1.159071034835361052e-05
2.395238095238095166e+00,1.194889497882177724e-06,-9.588888929953802903e-06
2.396031746031745957e+00,2.253960165644702357e-06,-5.384358835098390000e-06
2.396825396825396748e+00,3.510633600878201450e-06,1.115560863586218134e-06
2.397619047619047539e+00,4.878333224505678435e-06,9.417869096444902985e-06
2.398412698412698330e+00,6.169889277473952163e-06,1.844903461538030062e-05
2.399206349206349120e+00,7.140203152380755972e-06,2.674410343720905108e-05
2.399999999999999911e+00,7.552684706669722609e-06,3.277076326261176410e-05
2.400793650793650702e+00,7.248328390953372413e-06,3.528877077518752247e-05
2.401587301587301493e+00,6.196407688227306817e-06,3.365088968690646082e-05
2.402380952380952284e+00,4.512246669449441150e-06,2.798936755016585612e-05
2.403174603174603075e+00,2.437333055547107149e-06,1.925783169275946399e-05
2.403968253968253865e+00,2.870966299130516190e-07,9.103800175851577576e-06
2.404761904761904656e+00,-1.620275962479541156e-06,-4.363654334954448564e-07
2.405555555555555447e+00,-3.035694662435944476e-06,-7.377272287139754958e-06
2.406349206349206238e+00,-3.832389536092579945e-06,-1.025187205888958885e-05
2.407142857142857029e+00,-4.025474571224672119e-06,-8.467517206921388654e-06
2.407936507936507819e+00,-3.752688300109808500e-06,-2.441165883041385642e-06
2.408730158730158610e+00,-3.223582254412956661e-06,6.518032666685755138e-06
2.409523809523809401e+00,-2.654121503700429648e-06,1.652708534993142350e-05
2.410317460317460192e+00,-2.206754023854193730e-06,2.554856514864250398e-05
2.411111111111110983e+00,-1.952093750395637552e-06,3.180891871590974885e-05
2.411904761904761774e+00,-1.859911543151628025e-06,3.413634691864877616e-05
2.412698412698412564e+00,-1.818099851584081095e-06,3.216239305253825847e-05
2.413492063492063355e+00,-1.672118662607287032e-06,2.635204354157927201e-05
2.414285714285714146e+00,-1.274918983794854236e-06,1.785681053750360372e-05
2.415079365079364937e+00,-5.367396958149169314e-07,8.226769615112706363e-06
2.415873015873015728e+00,5.360955694189561110e-07,-9.439060733033090339e-07
2.416666666666666519e+00,1.823801100702373887e-06,-8.346470742350696633e-06
2.417460317460317309e+00,3.104911851010273258e-06,-1.318355217468298873e-05
2.418253968253968100e+00,4.099175402740607486e-06,-1.524962210175579150e-05
2.419047619047618891e+00,4.535169384003486507e-06,-1.486940318415103106e-05
2.419841269841269682e+00,4.227504148462519782e-06,-1.273447316024632888e-05
2.420634920634920473e+00,3.142449171827958972e-06,-9.696465383446636806e-06
2.421428571428571264e+00,1.430498671413314439e-06,-6.574140632902203049e-06
2.422222222222222054e+00,-5.887601578506009409e-07,-4.016422860088823806e-06
2.423015873015872845e+00,-2.490882445004957581e-06,-2.440070028522980013e-06
2.423809523809523636e+00,-3.845239668156441427e-06,-2.035096772745187766e-06
2.424603174603174427e+00,-4.320662765235834635e-06,-2.812225697383339462e-06
2.425396825396825218e+00,-3.767365865451651812e-06,-4.662465532053516122e-06
2.426190476190476009e+00,-2.252968582118827739e-06,-7.407754050432021965e-06
2.426984126984126799e+00,-4.610262229967935469e-08,-1.083251822775406366e-05
2.427777777777777590e+00,2.444015097167382014e-06,-1.469102753182805312e-05
2.428571428571428381e+00,4.754463983901059535e-06,-1.868792566818854676e-05
2.429365079365079172e+00,6.460764468265584116e-06,-2.243807226249869987e-05
2.430158730158729963e+00,7.253503787230293396e-06,-2.542875922686818385e-05
2.430952380952380754e+00,6.983212004383365667e-06,-2.702235428662168345e-05
2.431746031746031544e+00,5.666617640265416633e-06,-2.653552745080678166e-05
2.432539682539682335e+00,3.459844213861274191e-06,-2.340611943336937234e-05
2.433333333333333126e+00,6.144771474830566506e-07,-1.741737129867208862e-05
2.434126984126983917e+00,-2.565148798185623880e-06,-8.905874384126818595e-06
2.434920634920634708e+00,-5.752263358916345049e-06,1.146310197964378747e-06
2.435714285714285499e+00,-8.616062281856381064e-06,1.121924725720552311e-05
2.436507936507936289e+00,-1.083682234940313159e-05,1.957724489563768649e-05
2.437301587301587080e+00,-1.212681845522949703e-05,2.472047746564572264e-05
2.438095238095238315e+00,-1.226096588293777529e-05,2.580444384289198352e-05
2.438888888888889106e+00,-1.111468421491658387e-05,2.286360432376645857e-05
2.439682539682539897e+00,-8.701163840137293799e-06,1.675764780085466814e-05
2.440476190476190688e+00,-5.196675146287273757e-06,8.880262690861201580e-06
2.441269841269841478e+00,-9.420852653833329825e-07,7.628725165376857906e-07
2.442063492063492269e+00,3.587350018717264440e-06,-6.275242040546341019e-06
2.442857142857143060e+00,7.844283588080711844e-06,-1.133224582948241387e-05
2.443650793650793851e+00,1.129497773698092428e-05,-1.397192404986290666e-05
2.444444444444444642e+00,1.351143634380219880e-05,-1.416804334732036939e-05
2.445238095238095433e+00,1.424820761591089288e-05,-1.221326245233901412e-05
2.446031746031746223e+00,1.348386784250954856e-05,-8.634309318587908406e-06
2.446825396825397014e+00,1.141640177651003682e-05,-4.119920561191777238e-06
2.447619047619047805e+00,8.415205285582234276e-06,5.516950056405649965e-07
2.448412698412698596e+00,4.944672567974180613e-06,4.600376313856729758e-06
2.449206349206349387e+00,1.480392217925998949e-06,7.350639564312423367e-06
2.450000000000000178e+00,-1.563198287034112295e-06,8.347166211245157414e-06
2.450793650793650968e+00,-3.883151296108955413e-06,7.458034196255941548e-06
2.451587301587301759e+00,-5.314388052897079635e-06,4.940937444543476963e-06
2.452380952380952550e+00,-5.834071015866707158e-06,1.448876571169434796e-06
2.453174603174603341e+00,-5.545876030480719360e-06,-2.044059734137797321e-06
2.453968253968254132e+00,-4.646637698797652479e-06,-4.405373133177339103e-06
2.454761904761904923e+00,-3.381065488160240288e-06,-4.581999884098377296e-06
2.455555555555555713e+00,-1.993786385872520940e-06,-1.870595005359896802e-06
2.456349206349206504e+00,-6.890869885190560902e-07,3.848461151092801649e-06
2.457142857142857295e+00,3.929129853380155562e-07,1.199219372629473913e-05
2.457936507936508086e+00,1.178660559887239706e-06,2.133342667949437974e-05
2.458730158730158877e+00,1.643316812743286238e-06,3.024826246058137072e-05
2.459523809523809668e+00,1.781911405623354641e-06,3.709095663372657215e-05
2.460317460317460458e+00,1.584427864602881300e-06,4.057380593196236053e-05
2.461111111111111249e+00,1.027529619379767948e-06,4.002362425263358007e-05
2.461904761904762040e+00,8.599446737142370477e-08,3.544478342239344010e-05
2.462698412698412831e+00,-1.242894532440794102e-06,2.740644371633089475e-05
2.463492063492063622e+00,-2.912564845980262894e-06,1.683773602116098864e-05
2.464285714285714413e+00,-4.807076352290459328e-06,4.830592359202785498e-06
2.465079365079365203e+00,-6.734540776119326786e-06,-7.482396133230708039e-06
2.465873015873015994e+00,-8.439575648238044442e-06,-1.896738942925353005e-05
2.466666666666666785e+00,-9.638150757897557923e-06,-2.849435360708154157e-05
2.467460317460317576e+00,-1.007266662903122343e-05,-3.497881205168423341e-05
2.468253968253968367e+00,-9.576688319725087961e-06,-3.751034814756749522e-05
2.469047619047619158e+00,-8.130980997939494373e-06,-3.556785520433424272e-05
2.469841269841269948e+00,-5.889980152229563227e-06,-2.926565648722759123e-05
2.470634920634920739e+00,-3.163698967295714923e-06,-1.953146445299256540e-05
2.471428571428571530e+00,-3.538188688827682591e-07,-8.105540994278125801e-06
2.472222222222222321e+00,2.140291672060363313e-06,2.710269765256418926e-06
2.473015873015873112e+00,4.016603556464068589e-06,1.053690067579005376e-05
2.473809523809523903e+00,5.134339776759276513e-06,1.351929424802396911e-05
2.474603174603174693e+00,5.524760016168216335e-06,1.086375237489046149e-05
2.475396825396825484e+00,5.347687053620521938e-06,3.127960666205462446e-06
2.476190476190476275e+00,4.815347679607421019e-06,-7.857206824700103335e-06
2.476984126984127066e+00,4.117860641762393019e-06,-1.943909249546284880e-05
2.477777777777777857e+00,3.380309682770215347e-06,-2.884120448736458920e-05
2.478571428571428648e+00,2.662744880738462911e-06,-3.389205879913404596e-05
2.479365079365079438e+00,1.992946658253413691e-06,-3.356328443968305345e-05
2.480158730158730229e+00,1.408752771461502783e-06,-2.816648444995063549e-05
2.480952380952381020e+00,9.865527952688448468e-07,-1.916935744629179927e-05
2.481746031746031811e+00,8.420151055104344385e-07,-8.703986232708583762e-06
2.482539682539682602e+00,1.101831683064673325e-06,1.073679801964785227e-06
2.483333333333333393e+00,1.856213152075678763e-06,8.574205930807885751e-06
2.484126984126984183e+00,3.109048900201515217e-06,1.313602094879376671e-05
2.484920634920634974e+00,4.745214646181264082e-06,1.505972487538811189e-05
2.485714285714285765e+00,6.530788176009236574e-06,1.533611534919558848e-05
2.486507936507936556e+00,8.151238092210901561e-06,1.519696098684654429e-05
2.487301587301587347e+00,9.278278039680105859e-06,1.566435878456382059e-05
2.488095238095238138e+00,9.644529658462227105e-06,1.724280237940710664e-05
2.488888888888888928e+00,9.102201029049493080e-06,1.981785884089408669e-05
2.489682539682539719e+00,7.649337443695149093e-06,2.274709366217744785e-05
2.490476190476190510e+00,5.421040190848330340e-06,2.508378584832972175e-05
2.491269841269841301e+00,2.655748213059759575e-06,2.585899564221789769e-05
2.492063492063492092e+00,-3.482779914257663626e-07,2.434574126584950520e-05
2.492857142857142883e+00,-3.274548902901319597e-06,2.023639537889113021e-05
2.493650793650793673e+00,-5.823593069687233173e-06,1.368928803287920342e-05
2.494444444444444464e+00,-7.742922395432368012e-06,5.242104445226236670e-06
2.495238095238095255e+00,-8.853360048465434159e-06,-4.369522334010742247e-06
2.496031746031746046e+00,-9.069901819541776786e-06,-1.442681168555187968e-05
2.496825396825396837e+00,-8.411797279241517528e-06,-2.441066362629698319e-05
2.497619047619047628e+00,-6.997188878651267749e-06,-3.409531807765710671e-05
2.498412698412698418e+00,-5.022843229196784822e-06,-4.351425451717980342e-05
2.499206349206349209e+00,-2.735269543452810729e-06,-5.279049156049895106e-05
2.500000000000000000e+00,-4.012453932112437042e-07,-6.186423968800299563e-05
2.500793650793650791e+00,1.717389600791769162e-06,-7.019542169317931888e-05
2.501587301587301582e+00,3.384534915129339047e-06,-7.655453737637054679e-05
2.502380952380952372e+00,4.408525902309861971e-06,-7.902250165583136706e-05
2.503174603174603163e+00,4.660229131600531727e-06,-7.528179992837948976e-05
2.503968253968253954e+00,4.089825051492960181e-06,-6.319896517662181273e-05
2.504761904761904745e+00,2.739939256035734530e-06,-4.159066965691287515e-05
2.505555555555555536e+00,7.519545136067309899e-07,-1.096086028521528294e-05
2.506349206349206327e+00,-1.638846685985451187e-06,2.606807246455390405e-05
2.507142857142857117e+00,-4.125002037103903814e-06,6.488474866674483416e-05
2.507936507936507908e+00,-6.369259850524093157e-06,9.968870917914448453e-05
2.508730158730158699e+00,-8.063215259212214492e-06,1.248195663733259230e-04
2.509523809523809490e+00,-8.986592278424733457e-06,1.362166693395515155e-04
2.510317460317460281e+00,-9.046708212663584102e-06,1.324972430661180707e-04
2.511111111111111072e+00,-8.284834858640839603e-06,1.152663766815864799e-04
2.511904761904761862e+00,-6.850972068466389079e-06,8.858125949749220409e-05
2.512698412698412653e+00,-4.960703784504501253e-06,5.780951326960139674e-05
2.513492063492063444e+00,-2.850624516558911158e-06,2.828983374815255211e-05
2.514285714285714235e+00,-7.436035594376779722e-07,4.187020932447815321e-06
2.515079365079365026e+00,1.172296118062367336e-06,-1.220075838797523908e-05
2.515873015873015817e+00,2.752954368839740213e-06,-2.059307683568444261e-05
2.516666666666666607e+00,3.900190578878885480e-06,-2.239622206481430144e-05
2.517460317460317398e+00,4.562249859431929884e-06,-2.005185947675289560e-05
2.518253968253968189e+00,4.736075256833698410e-06,-1.627089968981463433e-05
2.519047619047618980e+00,4.469935478137733827e-06,-1.334592169768338261e-05
2.519841269841269771e+00,3.861690172052329848e-06,-1.268422681997611698e-05
2.520634920634920562e+00,3.049074182062431306e-06,-1.463352050894057759e-05
2.521428571428571352e+00,2.192259437840269694e-06,-1.859726350962874778e-05
2.522222222222222143e+00,1.451770971564945417e-06,-2.336766549892213587e-05
2.523015873015872934e+00,9.651836621637489523e-07,-2.755716605137575480e-05
2.523809523809523725e+00,8.255558644399399864e-07,-3.000059923761523142e-05
2.524603174603174516e+00,1.064799599383452325e-06,-3.003157474824336024e-05
2.525396825396825307e+00,1.645544484425260266e-06,-2.758984089950189235e-05
2.526190476190476097e+00,2.464164224530893868e-06,-2.316724034011712527e-05
2.526984126984126888e+00,3.365450708969153212e-06,-1.763371753024222527e-05
2.527777777777777679e+00,4.167036372970274856e-06,-1.200069465868122120e-05
2.528571428571428470e+00,4.689865553641411956e-06,-7.182018737101188789e-06
2.529365079365079261e+00,4.789845990318144343e-06,-3.805121613251818816e-06
2.530158730158730052e+00,4.385186452801068223e-06,-2.107137579746445839e-06
2.530952380952380842e+00,3.474090260587088851e-06,-1.926229340176040127e-06
2.531746031746031633e+00,2.138884326673111323e-06,-2.775998834555922528e-06
2.532539682539682424e+00,5.353444225786730851e-07,-3.977905345509536770e-06
2.533333333333333215e+00,-1.131069228404465467e-06,-4.823256882672594265e-06
2.534126984126984006e+00,-2.638507399509503945e-06,-4.737900036871764310e-06
2.534920634920634797e+00,-3.787262640285237645e-06,-3.425270127434768674e-06
2.535714285714285587e+00,-4.437950157525652599e-06,-9.646320081866503878e-07
2.536507936507936378e+00,-4.541273023116612840e-06,2.160277195011156544e-06
2.537301587301587169e+00,-4.150034939836266180e-06,5.127593883560988844e-06
2.538095238095237960e+00,-3.406951626027001101e-06,6.952216645573262831e-06
2.538888888888888751e+00,-2.508541227188610036e-06,6.749522547437871219e-06
2.539682539682539542e+00,-1.652853511451659472e-06,4.022809639006936957e-06
2.540476190476190332e+00,-9.845485150023102540e-07,-1.119720804428571065e-06
2.541269841269841123e+00,-5.537041719646812488e-07,-7.900877960377700160e-06
2.542063492063491914e+00,-3.030887476067893668e-07,-1.499651703456709033e-05
2.542857142857142705e+00,-9.084248998501539601e-08,-2.081705697089162468e-05
2.543650793650793496e+00,2.570338754350442153e-07,-2.387590352849313375e-05
2.544444444444444287e+00,8.818394655675941098e-07,-2.314923569284976684e-05
2.545238095238095077e+00,1.837189196092559893e-06,-1.833253953141800966e-05
2.546031746031745868e+00,3.061174215893388703e-06,-9.924544922497916164e-06
2.546825396825396659e+00,4.382015869460905782e-06,8.841117483734236681e-07
2.547619047619047450e+00,5.553429891435951937e-06,1.248299128935474991e-05
2.548412698412698241e+00,6.310324272887457086e-06,2.318966144213743170e-05
2.549206349206349032e+00,6.432636191819060248e-06,3.156378229853984717e-05
2.549999999999999822e+00,5.802298985593628152e-06,3.659710325990515200e-05
2.550793650793650613e+00,4.436809501054676902e-06,3.775193654381295879e-05
2.551587301587301404e+00,2.486903503370494715e-06,3.489589708173955105e-05
2.552380952380952195e+00,1.972531556645642686e-07,2.822036974280044759e-05
2.553174603174602986e+00,-2.156224640302924199e-06,1.821155599214564972e-05
2.553968253968253777e+00,-4.329175663727788822e-06,5.685505332073008624e-06
2.554761904761904567e+00,-6.150191014507945133e-06,-8.159856774377189392e-06
2.555555555555555358e+00,-7.531313938249119752e-06,-2.175308811719949079e-05
2.556349206349206149e+00,-8.452682588946272519e-06,-3.328439289723312140e-05
2.557142857142856940e+00,-8.935063164318331083e-06,-4.098321886199446980e-05
2.557936507936507731e+00,-9.014465097018497256e-06,-4.348392296222851230e-05
2.558730158730158522e+00,-8.727511660638714752e-06,-4.017206853042165415e-05
2.559523809523809312e+00,-8.108803454046274481e-06,-3.139678783870654741e-05
2.560317460317460103e+00,-7.196153471923450683e-06,-1.847419104176174529e-05
2.561111111111110894e+00,-6.038481897206148076e-06,-3.471576629410374508e-06
2.561904761904761685e+00,-4.702701844614625962e-06,1.117333277300073058e-05
2.562698412698412920e+00,-3.276633087824424745e-06,2.310355874198735868e-05
2.563492063492063711e+00,-1.864345022415656362e-06,3.046807629776022777e-05
2.564285714285714501e+00,-5.713170335873663090e-07,3.225119113675642635e-05
2.565079365079365292e+00,5.186464965910929394e-07,2.846355064902470427e-05
2.565873015873016083e+00,1.366880262609424289e-06,2.016498873829274271e-05
2.566666666666666874e+00,1.993044290228076071e-06,9.295894190356167726e-06
2.567460317460317665e+00,2.470346421517961947e-06,-1.686215917669259240e-06
2.568253968253968456e+00,2.902358671181382418e-06,-1.032190961824569225e-05
2.569047619047619246e+00,3.388532349439187609e-06,-1.471160991919153784e-05
2.569841269841270037e+00,3.989954041121475918e-06,-1.397477690105369974e-05
2.570634920634920828e+00,4.706847024514210715e-06,-8.465198396470797400e-06
2.571428571428571619e+00,5.475295887084349998e-06,3.325032657658211535e-07
2.572222222222222410e+00,6.184201493080922382e-06,1.019884662391268553e-05
2.573015873015873201e+00,6.706627897112815640e-06,1.874721512194460601e-05
2.573809523809523991e+00,6.934990053589656808e-06,2.399436381310338979e-05
2.574603174603174782e+00,6.809118508178002666e-06,2.477949933680570347e-05
2.575396825396825573e+00,6.330115697928127295e-06,2.094145407593482337e-05
2.576190476190476364e+00,5.558390421209289020e-06,1.324327201878305807e-05
2.576984126984127155e+00,4.598232961143627885e-06,3.099574537253488798e-06
2.577777777777777946e+00,3.573074078599912278e-06,-7.798471831895601765e-06
2.578571428571428736e+00,2.597002998332212619e-06,-1.785214745202141247e-05
2.579365079365079527e+00,1.750568416327649929e-06,-2.582011168109077381e-05
2.580158730158730318e+00,1.070057471101182452e-06,-3.091875361143895014e-05
2.580952380952381109e+00,5.550625720449972038e-07,-3.276144102873498280e-05
2.581746031746031900e+00,1.892443875972039656e-07,-3.121193131589959928e-05
2.582539682539682691e+00,-3.944039886123169001e-08,-2.626898607462811608e-05
2.583333333333333481e+00,-1.328244859810646196e-07,-1.807732134669913491e-05
2.584126984126984272e+00,-9.554175192861977569e-08,-7.075665099577772607e-06
2.584920634920635063e+00,4.066425564337705498e-08,5.808612876909206305e-06
2.585714285714285854e+00,1.969076348853570071e-07,1.906269654186204204e-05
2.586507936507936645e+00,2.467662583157548878e-07,3.070250630211449657e-05
2.587301587301587436e+00,4.307141473991450248e-08,3.861306586249159222e-05
2.588095238095238226e+00,-5.329012095327848411e-07,4.102518654880506389e-05
2.588888888888889017e+00,-1.516968907159080215e-06,3.698207911680987742e-05
2.589682539682539808e+00,-2.825796728457414416e-06,2.665716742636181915e-05
2.590476190476190599e+00,-4.257525649258874948e-06,1.143325502681831810e-05
2.591269841269841390e+00,-5.532911001985291160e-06,-6.285386298049423579e-06
2.592063492063492181e+00,-6.364008303833887545e-06,-2.349365181442675379e-05
2.592857142857142971e+00,-6.528486838932082838e-06,-3.714687367687497980e-05
2.593650793650793762e+00,-5.928552499831754204e-06,-4.473522366281758029e-05
2.594444444444444553e+00,-4.620189591999529662e-06,-4.474593838645124554e-05
2.595238095238095344e+00,-2.806659965194981577e-06,-3.692507211658918592e-05
2.596031746031746135e+00,-7.982116172867342462e-07,-2.230562917842125417e-05
2.596825396825396925e+00,1.052456196703172455e-06,-3.021726904175658102e-06
2.597619047619047716e+00,2.423051380540622549e-06,1.803730597260049738e-05
2.598412698412698507e+00,3.084551129388697214e-06,3.766671634948950758e-05
2.599206349206349298e+00,2.940175700591189795e-06,5.281592757739418865e-05
2.600000000000000089e+00,2.036336172385452314e-06,6.103289185003069690e-05
2.600793650793650880e+00,5.500888716207976520e-07,6.083874539631197142e-05
2.601587301587301670e+00,-1.240123114118659770e-06,5.199359807813160408e-05
2.602380952380952461e+00,-2.996706863968067656e-06,3.561243609558763072e-05
2.603174603174603252e+00,-4.376876501872086237e-06,1.409078098420005255e-05
2.603968253968254043e+00,-5.094415631445680295e-06,-9.186629645440703748e-06
2.604761904761904834e+00,-4.978170699643004471e-06,-3.035410361581922372e-05
2.605555555555555625e+00,-4.010054371094783535e-06,-4.575130092908651644e-05
2.606349206349206415e+00,-2.327181625582208179e-06,-5.268972336052122485e-05
2.607142857142857206e+00,-1.852825687071402681e-07,-5.012525894309423325e-05
2.607936507936507997e+00,2.102352699622230428e-06,-3.901255885516150055e-05
2.608730158730158788e+00,4.226160402665255033e-06,-2.215753064700653140e-05
2.609523809523809579e+00,5.921999512472409901e-06,-3.534835331880960393e-06
2.610317460317460370e+00,6.988610138086509619e-06,1.275978727221359269e-05
2.611111111111111160e+00,7.291192522196102890e-06,2.359591320819211401e-05
2.611904761904761951e+00,6.766434849731586402e-06,2.757633087873133008e-05
2.612698412698412742e+00,5.436641831420325258e-06,2.524193834810457498e-05
2.613492063492063533e+00,3.426791024890791944e-06,1.867188440764292658e-05
2.614285714285714324e+00,9.696279088709574087e-07,1.064124975759204283e-05
2.615079365079365115e+00,-1.612969563740386708e-06,3.633214546424408227e-06
2.615873015873015905e+00,-3.952742964501691548e-06,-9.640940724172809349e-07
2.616666666666666696e+00,-5.692104661903936583e-06,-3.218006658374370512e-06
2.617460317460317487e+00,-6.542504673997509142e-06,-4.468240070105582375e-06
2.618253968253968278e+00,-6.333502655369940373e-06,-6.691792860178159796e-06
2.619047619047619069e+00,-5.045431342188440677e-06,-1.166255158843427812e-05
2.619841269841269860e+00,-2.821089073582407192e-06,-2.020744234836294065e-05
2.620634920634920650e+00,4.614162390704654127e-08,-3.179721078722908906e-05
2.621428571428571441e+00,3.148628870662713206e-06,-4.457023939288764938e-05
2.622222222222222232e+00,6.024127769575175068e-06,-5.574656698716621986e-05
2.623015873015873023e+00,8.233383915897008750e-06,-6.229574214586001079e-05
2.623809523809523814e+00,9.443350561612974658e-06,-6.168079005646709911e-05
2.624603174603174605e+00,9.497315156265483872e-06,-5.249981862071595315e-05
2.625396825396825395e+00,8.452588679913924290e-06,-3.488192541719930590e-05
2.626190476190476186e+00,6.572619399807352139e-06,-1.055933973242819081e-05
2.626984126984126977e+00,4.270569868580512967e-06,1.738465871094653487e-05
2.627777777777777768e+00,2.012906110159033573e-06,4.502818303486722066e-05
2.628571428571428559e+00,2.031217632299240474e-07,6.828667444790728896e-05
2.629365079365079350e+00,-9.250725161789281720e-07,8.364641913105202748e-05
2.630158730158730140e+00,-1.373145064346201661e-06,8.883659389012120498e-05
2.630952380952380931e+00,-1.377440875438202413e-06,8.329599273233716608e-05
2.631746031746031722e+00,-1.337176579505709737e-06,6.829513306980678346e-05
2.632539682539682513e+00,-1.688492176057713019e-06,4.665355928338285954e-05
2.633333333333333304e+00,-2.762022799479003691e-06,2.212508092608375185e-05
2.634126984126984095e+00,-4.668267177397257283e-06,-1.369341419612437184e-06
2.634920634920634885e+00,-7.245695633447730259e-06,-2.045998475753121445e-05
2.635714285714285676e+00,-1.008492429829727007e-05,-3.285340746414418402e-05
2.636507936507936467e+00,-1.261823749034294161e-05,-3.760376670039928008e-05
2.637301587301587258e+00,-1.424792133245898034e-05,-3.513716497222325251e-05
2.638095238095238049e+00,-1.448300289608500356e-05,-2.707009998593942610e-05
2.638888888888888840e+00,-1.305728089598704512e-05,-1.587269984898175180e-05
2.639682539682539630e+00,-1.000592370198031834e-05,-4.426250715568896470e-06
2.640476190476190421e+00,-5.682757053671932599e-06,4.476710369192382866e-06
2.641269841269841212e+00,-7.093871386641801025e-07,8.634849843774783967e-06
2.642063492063492003e+00,4.137356866863096502e-06,6.873190197654624773e-06
2.642857142857142794e+00,8.075401560029358536e-06,-6.703644925045079819e-07
2.643650793650793585e+00,1.046882869434664627e-05,-1.248233500080293453e-05
2.644444444444444375e+00,1.094550113266686051e-05,-2.588549741514112692e-05
2.645238095238095166e+00,9.458321279613996754e-06,-3.753946178123854021e-05
2.646031746031745957e+00,6.284693726714199176e-06,-4.418665431045517563e-05
2.646825396825396748e+00,1.972168532495803674e-06,-4.350531662478389783e-05
2.647619047619047539e+00,-2.755716628632126613e-06,-3.482510230372332642e-05
2.648412698412698330e+00,-7.117695165583026105e-06,-1.942837151913324157e-05
2.649206349206349120e+00,-1.039933140955809436e-05,-2.712226041499766452e-07
2.649999999999999911e+00,-1.206344702971112970e-05,1.881634626548859673e-05
2.650793650793650702e+00,-1.182692301547767360e-05,3.417250753631122066e-05
2.651587301587301493e+00,-9.691547664964011990e-06,4.322033416868533399e-05
2.652380952380952284e+00,-5.928161023953127224e-06,4.497587954543469624e-05
2.653174603174603075e+00,-1.024322392255559367e-06,4.005952126501364006e-05
2.653968253968253865e+00,4.389247811973931347e-06,3.031144461259815736e-05
2.654761904761904656e+00,9.620758673020019387e-06,1.820771692565800024e-05
2.655555555555555447e+00,1.400124696151711560e-05,6.266285639089919893e-06
2.656349206349206238e+00,1.696671842233274570e-05,-3.430018570916247827e-06
2.657142857142857029e+00,1.813294627760446697e-05,-9.532179634662577551e-06
2.657936507936507819e+00,1.735280755800893091e-05,-1.153167777207865157e-05
2.658730158730158610e+00,1.474344941754048596e-05,-9.695668841767151946e-06
2.659523809523809401e+00,1.067298902067537209e-05,-4.880018476619143361e-06
2.660317460317460192e+00,5.704127704706247456e-06,1.711220572044465104e-06
2.661111111111110983e+00,5.027071765565185989e-07,8.753301796880491451e-06
2.661904761904761774e+00,-4.270674697280131210e-06,1.497561809734495515e-05
2.662698412698412564e+00,-8.062089481349437223e-06,1.928188479201739370e-05
2.663492063492063355e+00,-1.049658264784631197e-05,2.083746809643603336e-05
2.664285714285714146e+00,-1.140900364788052097e-05,1.914324177787869608e-05
2.665079365079364937e+00,-1.083494138657368293e-05,1.409822830675322230e-05
2.665873015873015728e+00,-8.974763108291735546e-06,6.040582369721667962e-06
2.666666666666666519e+00,-6.147645847899221391e-06,-4.247328595503348953e-06
2.667460317460317309e+00,-2.748158926994784803e-06,-1.558676993217873177e-05
2.668253968253968100e+00,7.911462098093061523e-07,-2.652223921453362323e-05
2.669047619047618891e+00,4.035812503465448528e-06,-3.551993539945833331e-05
2.669841269841269682e+00,6.590933626679196415e-06,-4.122112491696374657e-05
2.670634920634920473e+00,8.149435028314100005e-06,-4.269289135486522017e-05
2.671428571428571264e+00,8.539936795324327995e-06,-3.961090709662037370e-05
2.672222222222222054e+00,7.760994995780321111e-06,-3.233636187489445375e-05
2.673015873015872845e+00,5.989029503997076938e-06,-2.188929258802181746e-05
2.673809523809523636e+00,3.553607318149587104e-06,-9.838909293956927510e-06
2.674603174603174427e+00,8.826091484451688259e-07,1.883411350448466175e-06
2.675396825396825218e+00,-1.572398559850276169e-06,1.126613055588364298e-05
2.676190476190476009e+00,-3.415847638047273107e-06,1.660266536705326114e-05
2.676984126984126799e+00,-4.377701527767184593e-06,1.692766954173638682e-05
2.677777777777777590e+00,-4.360080565271074784e-06,1.237538031656414796e-05
2.678571428571428381e+00,-3.452052095074671381e-06,4.301248813605623833e-06
2.679365079365079172e+00,-1.908348281935173207e-06,-4.936021507937960271e-06
2.680158730158729963e+00,-9.395604913133461919e-08,-1.251642577840458894e-05
2.680952380952380754e+00,1.595662686636911799e-06,-1.588813789024763897e-05
2.681746031746031544e+00,2.821350979185255369e-06,-1.347525701697634132e-05
2.682539682539682335e+00,3.372688320642202488e-06,-5.150257296970640194e-06
2.683333333333333126e+00,3.207313704221417305e-06,7.680420258207439836e-06
2.684126984126983917e+00,2.447710793663753186e-06,2.241735007602257219e-05
2.684920634920634708e+00,1.338713125048240281e-06,3.594452373450384509e-05
2.685714285714285499e+00,1.796299534989753196e-07,4.544279856627926823e-05
2.686507936507936289e+00,-7.503949844272544948e-07,4.909793302938460962e-05
2.687301587301587080e+00,-1.256106770445198319e-06,4.649737029318228514e-05
2.688095238095238315e+00,-1.265148276420501846e-06,3.861601787847616289e-05
2.688888888888889106e+00,-8.344159710541507364e-07,2.742927241574970854e-05
2.689682539682539897e+00,-1.242083313799356814e-07,1.530678155958615553e-05
2.690476190476190688e+00,6.502316554398356102e-07,4.387243780056178716e-06
2.691269841269841478e+00,1.274608791523310360e-06,-3.894008139866005101e-06
2.692063492063492269e+00,1.584323565111355031e-06,-9.025930055832562791e-06
2.692857142857143060e+00,1.496456826012954596e-06,-1.137193053263155510e-05
2.693650793650793851e+00,1.020802495309153136e-06,-1.189547920682473484e-05
2.694444444444444642e+00,2.495246850954935695e-07,-1.175564696781913630e-05
2.695238095238095433e+00,-6.718623303659356144e-07,-1.189647039785096024e-05
2.696031746031746223e+00,-1.585155307566766326e-06,-1.275499959105527542e-05
2.696825396825397014e+00,-2.359891950250729240e-06,-1.417596395083595225e-05
2.697619047619047805e+00,-2.920028036756613502e-06,-1.555128338285827365e-05
2.698412698412698596e+00,-3.247965966717596219e-06,-1.612372877886316245e-05
2.699206349206349387e+00,-3.366483447248896890e-06,-1.533783508904653731e-05
2.700000000000000178e+00,-3.307951763091299948e-06,-1.310996934499022770e-05
2.700793650793650968e+00,-3.084292088929095560e-06,-9.922245773471435217e-06
2.701587301587301759e+00,-2.670561079399087040e-06,-6.703446062900622675e-06
2.702380952380952550e+00,-2.011409699171241742e-06,-4.527000667889463378e-06
2.703174603174603341e+00,-1.052640959645747763e-06,-4.219840692021257604e-06
2.703968253968254132e+00,2.104583607840004345e-07,-6.020040673244393158e-06
2.704761904761904923e+00,1.687091117628068555e-06,-9.421880409180041863e-06
2.705555555555555713e+00,3.170638334842609013e-06,-1.328792792268108960e-05
2.706349206349206504e+00,4.360075552433414287e-06,-1.620168680784330042e-05
2.707142857142857295e+00,4.922112364719490346e-06,-1.693131869349166868e-05
2.707936507936508086e+00,4.576324421141650262e-06,-1.483359494426631397e-05
2.708730158730158877e+00,3.178475089655469554e-06,-1.006501934038357087e-05
2.709523809523809668e+00,7.806010916626557144e-07,-3.548931403142503245e-06
2.710317460317460458e+00,-2.345845370860480540e-06,3.273716708403593555e-06
2.711111111111111249e+00,-5.730859424794671734e-06,8.830304737753825127e-06
2.711904761904762040e+00,-8.772762917576391674e-06,1.183821217751343921e-05
2.712698412698412831e+00,-1.084684148502699800e-05,1.166475573023619326e-05
2.713492063492063622e+00,-1.144151145258286210e-05,8.543466712205021759e-06
2.714285714285714413e+00,-1.029515335494342795e-05,3.582551868558793255e-06
2.715079365079365203e+00,-7.497337939064544620e-06,-1.468776190636921604e-06
2.715873015873015994e+00,-3.519828159609008145e-06,-4.671140166931166464e-06
2.716666666666666785e+00,8.415808726663304151e-07,-4.458849595725105096e-06
2.717460317460317576e+00,4.609433626047161180e-06,-1.537512516676488610e-07
2.718253968253968367e+00,6.824098294234555678e-06,7.738310154979596438e-06
2.719047619047619158e+00,6.759217888075964562e-06,1.756350999102206011e-05
2.719841269841269948e+00,4.107150720324908497e-06,2.691194046191023253e-05
2.720634920634920739e+00,-9.076919407314753062e-07,3.327719352095065457e-05
2.721428571428571530e+00,-7.517725103360086560e-06,3.479207175722464170e-05
2.722222222222222321e+00,-1.451548361701273805e-05,3.079885133548755828e-05
2.723015873015873112e+00,-2.046250658038987477e-05,2.205487865469474089e-05
2.723809523809523903e+00,-2.397204831680724074e-05,1.050204389255535034e-05
2.724603174603174693e+00,-2.401053322058080005e-05,-1.316701684742997395e-06
2.725396825396825484e+00,-2.014618460007502293e-05,-1.099711731725283950e-05
2.726190476190476275e+00,-1.267585131697228631e-05,-1.693604152776938767e-05
2.726984126984127066e+00,-2.589418258389269756e-06,-1.872135727691695006e-05
2.727777777777777857e+00,8.623248305409814948e-06,-1.714884050796104074e-05
2.728571428571428648e+00,1.927413205497347491e-05,-1.388364204379297921e-05
2.729365079365079438e+00,2.781216161385581992e-05,-1.088840188257127339e-05
2.730158730158730229e+00,3.311074596993266865e-05,-9.798284183370959530e-06
2.730952380952381020e+00,3.464233556431851082e-05,-1.142456685979364363e-05
2.731746031746031811e+00,3.250837792655142362e-05,-1.552215520002762209e-05
2.732539682539682602e+00,2.733706801502260231e-05,-2.087929109817322315e-05
2.733333333333333393e+00,2.009871579456520461e-05,-2.569550847689214309e-05
2.734126984126984183e+00,1.190216958546782079e-05,-2.812655365755721058e-05
2.734920634920634974e+00,3.821474954544286594e-06,-2.682302134051971782e-05
2.735714285714285765e+00,-3.227644744724252046e-06,-2.130055704017566007e-05
2.736507936507936556e+00,-8.567646095111859127e-06,-1.205196024994812473e-05
2.737301587301587347e+00,-1.181065042295316300e-05,-4.067488026778481824e-07
2.738095238095238138e+00,-1.288935635012152980e-05,1.178695172915980345e-05
2.738888888888888928e+00,-1.206121736431316727e-05,2.256187164644016214e-05
2.739682539682539719e+00,-9.870996536643192088e-06,3.022601500376814057e-05
2.740476190476190510e+00,-7.059126755862335930e-06,3.367704057718785301e-05
2.741269841269841301e+00,-4.416153928644837623e-06,3.256974466043333175e-05
2.742063492063492092e+00,-2.603639553365065436e-06,2.730053032033593713e-05
2.742857142857142883e+00,-1.983307880483217396e-06,1.883859429990042747e-05
2.743650793650793673e+00,-2.508587016505902624e-06,8.496531751014023022e-06
2.744444444444444464e+00,-3.725038231997734718e-06,-2.263461186348605337e-06
2.745238095238095255e+00,-4.895527802095889871e-06,-1.195613921313252129e-05
2.746031746031746046e+00,-5.222183337598670779e-06,-1.917917183819528834e-05
2.746825396825396837e+00,-4.098837485090718887e-06,-2.277130907795909772e-05
2.747619047619047628e+00,-1.312586426803640331e-06,-2.204714569638892106e-05
2.748412698412698418e+00,2.871260952232038067e-06,-1.704553454147297170e-05
2.749206349206349209e+00,7.766916683280667517e-06,-8.667548747756117865e-06
2.750000000000000000e+00,1.244748528781288940e-05,1.408118935170523072e-06
2.750793650793650791e+00,1.598761492642059609e-05,1.106131094901814439e-05
2.751587301587301582e+00,1.769489167229599063e-05,1.823757208931879733e-05
2.752380952380952372e+00,1.726394647013740591e-05,2.146757731710893677e-05
2.753174603174603163e+00,1.481632584740870714e-05,2.023215967368483266e-05
2.753968253968253954e+00,1.082796605996107677e-05,1.506847307098180410e-05
2.754761904761904745e+00,5.980204441843182604e-06,7.408188593571404280e-06
2.755555555555555536e+00,9.875315012649141017e-07,-7.811407271151031572e-07
2.756349206349206327e+00,-3.548263952477988394e-06,-7.444795758781232388e-06
2.757142857142857117e+00,-7.226595449696983906e-06,-1.087886548360940503e-05
2.757936507936507908e+00,-9.871406546575244506e-06,-1.008105568299979522e-05
2.758730158730158699e+00,-1.150008802844321804e-05,-4.963457685091103182e-06
2.759523809523809490e+00,-1.225885757340193640e-05,3.599967915992188582e-06
2.760317460317460281e+00,-1.234777404687780126e-05,1.389845811090000880e-05
2.761111111111111072e+00,-1.195559472805680020e-05,2.367617685102848613e-05
2.761904761904761862e+00,-1.121829949840800254e-05,3.056947833515182727e-05
2.762698412698412653e+00,-1.020626138358301130e-05,3.263404526836267316e-05
2.763492063492063444e+00,-8.935722331766632220e-06,2.885394533145507629e-05
2.764285714285714235e+00,-7.394069700682031623e-06,1.948725687713328140e-05
2.765079365079365026e+00,-5.568124281823828041e-06,6.120281899820697173e-06
2.765873015873015817e+00,-3.468991246960697525e-06,-8.617594247430680965e-06
2.766666666666666607e+00,-1.151440955736628677e-06,-2.162075974309965589e-05
2.767460317460317398e+00,1.273321415793003065e-06,-3.001785652952737240e-05
2.768253968253968189e+00,3.634797099276238701e-06,-3.185600953391831350e-05
2.769047619047618980e+00,5.715147347864575468e-06,-2.659925428231788594e-05
2.769841269841269771e+00,7.278651250457791933e-06,-1.532212452277452103e-05
2.770634920634920562e+00,8.115378089574406794e-06,-5.446245321048002014e-07
2.771428571428571352e+00,8.089326336320635453e-06,1.426348788340338090e-05
2.772222222222222143e+00,7.177894942081243160e-06,2.540337806954612928e-05
2.773015873015872934e+00,5.490508006457813494e-06,2.973819988619701304e-05
2.773809523809523725e+00,3.258945782570473402e-06,2.539148349720791236e-05
2.774603174603174516e+00,7.992681623916186283e-07,1.221282228267641545e-05
2.775396825396825307e+00,-1.546852673399833134e-06,-8.088729728075244057e-06
2.776190476190476097e+00,-3.477728705047477481e-06,-3.219054972884427535e-05
2.776984126984126888e+00,-4.788481100652181939e-06,-5.576281977353020580e-05
2.777777777777777679e+00,-5.405262183635607045e-06,-7.433828108429908462e-05
2.778571428571428470e+00,-5.388455901331116367e-06,-8.426753331681486193e-05
2.779365079365079261e+00,-4.904747328365450219e-06,-8.352703627896387070e-05
2.780158730158730052e+00,-4.176698525112989763e-06,-7.215689109465569704e-05
2.780952380952380842e+00,-3.423587261331551549e-06,-5.219948993635374092e-05
2.781746031746031633e+00,-2.806728092411440326e-06,-2.716281658360112056e-05
2.782539682539682424e+00,-2.389084507318019308e-06,-1.181860532186847680e-06
2.783333333333333215e+00,-2.117217459947127833e-06,2.186808805904071252e-05
2.784126984126984006e+00,-1.833776326462109849e-06,3.907574696999726411e-05
2.784920634920634797e+00,-1.326020868980151570e-06,4.888891056533376287e-05
2.785714285714285587e+00,-4.061481550299669650e-07,5.118998366705920469e-05
2.786507936507936378e+00,9.955080982161994235e-07,4.711209883164939267e-05
2.787301587301587169e+00,2.755298154503965952e-06,3.867366014852938823e-05
2.788095238095237960e+00,4.531050463815193082e-06,2.830867354792185092e-05
2.788888888888888751e+00,5.806257608585899636e-06,1.837810432810835996e-05
2.789682539682539542e+00,6.001673096916768629e-06,1.075492902893700562e-05
2.790476190476190332e+00,4.630853307610952289e-06,6.559111074712552656e-06
2.791269841269841123e+00,1.461847252523439695e-06,6.075128294092830586e-06
2.792063492063491914e+00,-3.357231947617116199e-06,8.835178691972540800e-06
2.792857142857142705e+00,-9.246342083002401520e-06,1.381899178089742590e-05
2.793650793650793496e+00,-1.524064816864139755e-05,1.971354795805936846e-05
2.794444444444444287e+00,-2.014294295440462388e-05,2.518369972331659372e-05
2.795238095238095077e+00,-2.276251482384018495e-05,2.911175802302126770e-05
2.796031746031745868e+00,-2.219337385032663771e-05,3.076396866679593502e-05
2.796825396825396659e+00,-1.806226962744289478e-05,2.984879094151765704e-05
2.797619047619047450e+00,-1.067332893761882299e-05,2.646503559664708133e-05
2.798412698412698241e+00,-9.987644428074187493e-07,2.098608172386001500e-05
2.799206349206349032e+00,9.492675534407997299e-06,1.394901547068192016e-05
2.799999999999999822e+00,1.913224192797446875e-05,5.992000535911103693e-06
2.800793650793650613e+00,2.640094875485698682e-05,-2.166725918612783169e-06
2.801587301587301404e+00,3.024571219035249140e-05,-9.746849512455350129e-06
2.802380952380952195e+00,3.028340720550136496e-05,-1.595540210410098810e-05
2.803174603174602986e+00,2.684551488362381581e-05,-2.007681912958157624e-05
2.803968253968253777e+00,2.086091506478773052e-05,-2.159082883901122332e-05
2.804761904761904567e+00,1.361762619954908628e-05,-2.029466615598659348e-05
2.805555555555555358e+00,6.471554275736103236e-06,-1.640001574584012999e-05
2.806349206349206149e+00,5.747065633858683626e-07,-1.057028431217710876e-05
2.807142857142856940e+00,-3.320684727746983535e-06,-3.866224150685868067e-06
2.807936507936507731e+00,-4.952772839192572603e-06,2.416099927358659891e-06
2.808730158730158522e+00,-4.533630241254423286e-06,7.001052136994967033e-06
2.809523809523809312e+00,-2.645052453166868127e-06,8.931279110402804157e-06
2.810317460317460103e+00,-7.861484378189590758e-08,7.825298793103356259e-06
2.811111111111110894e+00,2.343516474957411006e-06,4.007647343729661147e-06
2.811904761904761685e+00,3.932883666793256420e-06,-1.544334744005144047e-06
2.812698412698412920e+00,4.257327097897453666e-06,-7.435291980001641456e-06
2.813492063492063711e+00,3.204699045170211085e-06,-1.220639801005869760e-05
2.814285714285714501e+00,9.803488795700956547e-07,-1.470919563107955551e-05
2.815079365079365292e+00,-1.959195908969742399e-06,-1.439451366583374460e-05
2.815873015873016083e+00,-5.022981560715863163e-06,-1.144407507391005976e-05
2.816666666666666874e+00,-7.627843730912294369e-06,-6.725977624648792294e-06
2.817460317460317665e+00,-9.332860261147869706e-06,-1.604470902706456140e-06
2.818253968253968456e+00,-9.932791842062332153e-06,2.343561825322839202e-06
2.819047619047619246e+00,-9.487327987014112181e-06,3.657969929726506127e-06
2.819841269841270037e+00,-8.280526516190464472e-06,1.330309940671986230e-06
2.820634920634920828e+00,-6.724334786616113043e-06,-4.907642471168252760e-06
2.821428571428571619e+00,-5.235562022148854170e-06,-1.441448007019781071e-05
2.822222222222222410e+00,-4.122658830008634108e-06,-2.565938079103839665e-05
2.823015873015873201e+00,-3.514697585728567787e-06,-3.646232651480875225e-05
2.823809523809523991e+00,-3.350517258375570247e-06,-4.442169720887611612e-05
2.824603174603174782e+00,-3.425820598259794169e-06,-4.743807857149855275e-05
2.825396825396825573e+00,-3.477907719020735290e-06,-4.420911985485285225e-05
2.826190476190476364e+00,-3.278408439210336533e-06,-3.457056043492291194e-05
2.826984126984127155e+00,-2.705739326314834441e-06,-1.959475925217781423e-05
2.827777777777777946e+00,-1.778333061089572837e-06,-1.420962049919865189e-06
2.828571428571428736e+00,-6.427916783819419785e-07,1.714084573787093925e-05
2.829365079365079527e+00,4.755150893217503737e-07,3.314257708865615408e-05
2.830158730158730318e+00,1.341585001367062478e-06,4.405805985572853198e-05
2.830952380952381109e+00,1.777640933582778227e-06,4.826287348188949963e-05
2.831746031746031900e+00,1.708326171744716005e-06,4.533978683523437887e-05
2.832539682539682691e+00,1.172266023962174239e-06,3.614358298830230306e-05
2.833333333333333481e+00,2.979575584975873195e-07,2.260778091648913993e-05
2.834126984126984272e+00,-7.467737500907835688e-07,7.337547568429616191e-06
2.834920634920635063e+00,-1.811999618714297448e-06,-6.914587250854239460e-06
2.835714285714285854e+00,-2.805057001008897048e-06,-1.777077389421328430e-05
2.836507936507936645e+00,-3.693897854235228203e-06,-2.363849145362317499e-05
2.837301587301587436e+00,-4.473738705907029294e-06,-2.393607059006690256e-05
2.838095238095238226e+00,-5.115962505462502496e-06,-1.911017651075444645e-05
2.838888888888889017e+00,-5.527542070061013849e-06,-1.047483958690919361e-05
2.839682539682539808e+00,-5.542894024874305963e-06,6.577969540214159997e-08
2.840476190476190599e+00,-4.954086777072866355e-06,1.035239098747799318e-05
2.841269841269841390e+00,-3.570204490760931323e-06,1.833464753517813434e-05
2.842063492063492181e+00,-1.287982190237548246e-06,2.245415485441855626e-05
2.842857142857142971e+00,1.847115197844099070e-06,2.201074512781705045e-05
2.843650793650793762e+00,5.608933791569891456e-06,1.741703569978283068e-05
2.844444444444444553e+00,9.601176250317195739e-06,1.020943539831213747e-05
2.845238095238095344e+00,1.331254130315765446e-05,2.725909242656450837e-06
2.846031746031746135e+00,1.620548299182885893e-05,-2.516122371343708479e-06
2.846825396825396925e+00,1.781801116047119951e-05,-3.567657305685709358e-06
2.847619047619047716e+00,1.785493942800288268e-05,3.278715913590902854e-07
2.848412698412698507e+00,1.624818711800040297e-05,8.451969246972986075e-06
2.849206349206349298e+00,1.317319596106642220e-05,1.876802574561271423e-05
2.850000000000000089e+00,9.018506797597448035e-06,2.846737431708795281e-05
2.850793650793650880e+00,4.316030301870829030e-06,3.473299357127599280e-05
2.851587301587301670e+00,-3.524297666828504184e-07,3.549204928173246111e-05
2.852380952380952461e+00,-4.453475347255158771e-06,2.994655182421511786e-05
2.853174603174603252e+00,-7.587196483458357498e-06,1.875195796030387324e-05
2.853968253968254043e+00,-9.544087029976655335e-06,3.822161630080929291e-06
2.854761904761904834e+00,-1.032283896135674472e-05,-1.216397689580410157e-05
2.855555555555555625e+00,-1.010390309837265295e-05,-2.641626053134349039e-05
2.856349206349206415e+00,-9.183630659688019434e-06,-3.667745672991278895e-05
2.857142857142857206e+00,-7.887083956459925422e-06,-4.168926226261767640e-05
2.857936507936507997e+00,-6.487202383260343388e-06,-4.135772975822791728e-05
2.858730158730158788e+00,-5.155514179216046657e-06,-3.659273576596982938e-05
2.859523809523809579e+00,-3.954856984879900211e-06,-2.890939329906375117e-05
2.860317460317460370e+00,-2.867227441052429395e-06,-1.995480939608589987e-05
2.861111111111111160e+00,-1.839665325713306817e-06,-1.112517745372587004e-05
2.861904761904761951e+00,-8.295205495713067414e-07,-3.371313409139689771e-06
2.862698412698412742e+00,1.665249512079085232e-07,2.804161740593511642e-06
2.863492063492063533e+00,1.109687338386215006e-06,7.230700044253680249e-06
2.864285714285714324e+00,1.942999257624073573e-06,9.936529686154722398e-06
2.865079365079365115e+00,2.629948104543798560e-06,1.107715135807175932e-05
2.865873015873015905e+00,3.186975011498366898e-06,1.094361929396431072e-05
2.866666666666666696e+00,3.690005652075421080e-06,1.000324692331548956e-05
2.867460317460317487e+00,4.246525992395182555e-06,8.896651002243800450e-06
2.868253968253968278e+00,4.940891222388081823e-06,8.339775577091753991e-06
2.869047619047619069e+00,5.774300461954328948e-06,8.937211951759597552e-06
2.869841269841269860e+00,6.626160941887867408e-06,1.096670872758539079e-05
2.870634920634920650e+00,7.257493100304277457e-06,1.421719827760906795e-05
2.871428571428571441e+00,7.361642912657058469e-06,1.794729280970851315e-05
2.872222222222222232e+00,6.649692287772752096e-06,2.098973325581318636e-05
2.873015873015873023e+00,4.945307093094536613e-06,2.198115595415654929e-05
2.873809523809523814e+00,2.260297408403298331e-06,1.966473000397739264e-05
2.874603174603174605e+00,-1.172802083693985587e-06,1.320336053951745474e-05
2.875396825396825395e+00,-4.923848807942613729e-06,2.448461921997184548e-06
2.876190476190476186e+00,-8.441917209742756916e-06,-1.187928820243638386e-05
2.876984126984126977e+00,-1.116811915974133297e-05,-2.813759916439897846e-05
2.877777777777777768e+00,-1.265501209421034284e-05,-4.388205821267303542e-05
2.878571428571428559e+00,-1.266138663103423021e-05,-5.619063759256871690e-05
2.879365079365079350e+00,-1.120069180505760247e-05,-6.218507954801536625e-05
2.880158730158730140e+00,-8.536342925818264825e-06,-5.967500648787032709e-05
2.880952380952380931e+00,-5.129662962656977701e-06,-4.778677904180861504e-05
2.881746031746031722e+00,-1.553008130242003931e-06,-2.740420740709472412e-05
2.882539682539682513e+00,1.615860891267761694e-06,-1.258864860750727774e-06
2.883333333333333304e+00,3.899335163586124623e-06,2.642751967765469542e-05
2.884126984126984095e+00,5.005998000123606205e-06,5.073172754730029103e-05
2.884920634920634885e+00,4.881517564732269674e-06,6.709516950503249463e-05
2.885714285714285676e+00,3.715377549154681997e-06,7.240111791801819127e-05
2.886507936507936467e+00,1.900603173321396522e-06,6.575603085360576098e-05
2.887301587301587258e+00,-5.003087733633768240e-08,4.873030669465753379e-05
2.888095238095238049e+00,-1.618348748153582579e-06,2.497207201417776391e-05
2.888888888888888840e+00,-2.401248579935570885e-06,-6.954338168007985005e-07
2.889682539682539630e+00,-2.205937945347493389e-06,-2.342824590483968671e-05
2.890476190476190421e+00,-1.092365117635247502e-06,-3.944697567077675663e-05
2.891269841269841212e+00,6.496157784871396069e-07,-4.677710337616799389e-05
2.892063492063492003e+00,2.580168056226999368e-06,-4.548296759381864233e-05
2.892857142857142794e+00,4.221165942061302993e-06,-3.737902480822887180e-05
2.893650793650793585e+00,5.167952151352605494e-06,-2.534155102636136012e-05
2.894444444444444375e+00,5.174930013450003748e-06,-1.244664007599097452e-05
2.895238095238095166e+00,4.200861466796940757e-06,-1.196965614755320801e-06
2.896031746031745957e+00,2.411106522076745664e-06,6.948806977897846953e-06
2.896825396825396748e+00,1.405989124544606508e-07,1.165322275275254137e-05
2.897619047619047539e+00,-2.175242470408654488e-06,1.343931301336174564e-05
2.898412698412698330e+00,-4.089982237023410781e-06,1.324934789992814455e-05
2.899206349206349120e+00,-5.238038089009531736e-06,1.200214231542926201e-05
2.899999999999999911e+00,-5.407637230688937065e-06,1.028431295469468235e-05
2.900793650793650702e+00,-4.578231109739996505e-06,8.242142034472870594e-06
2.901587301587301493e+00,-2.917321717660220156e-06,5.675523213867569629e-06
2.902380952380952284e+00,-7.432342305351385917e-07,2.280150428541045640e-06
2.903174603174603075e+00,1.533922067637938147e-06,-2.059957483926301049e-06
2.903968253968253865e+00,3.481244692061712422e-06,-7.047717473445322965e-06
2.904761904761904656e+00,4.713205201065398307e-06,-1.191425164355365084e-05
2.905555555555555447e+00,4.957015624420366426e-06,-1.556434136070300548e-05
2.906349206349206238e+00,4.107874344728977080e-06,-1.688658196071398442e-05
2.907142857142857029e+00,2.266062165467666447e-06,-1.512537469288380111e-05
2.907936507936507819e+00,-2.567880394778363181e-07,-1.018606258373558806e-05
2.908730158730158610e+00,-2.975828698980527538e-06,-2.762010133170542673e-06
2.909523809523809401e+00,-5.320546476232416267e-06,5.775594248965477497e-06
2.910317460317460192e+00,-6.759639284473672929e-06,1.371242491024236592e-05
2.911111111111110983e+00,-6.933683338434372589e-06,1.946195932837870083e-05
2.911904761904761774e+00,-5.757239762988594750e-06,2.202962164867626997e-05
2.912698412698412564e+00,-3.456494249072490838e-06,2.131948570430497887e-05
2.913492063492063355e+00,-5.254333980648927874e-07,1.817911849521552839e-05
2.914285714285714146e+00,2.392443934131326190e-06,1.415780657491223047e-05
2.915079365079364937e+00,4.666582177546284970e-06,1.104129526897650008e-05
2.915873015873015728e+00,5.840310717984059615e-06,1.030245781726500169e-05
2.916666666666666519e+00,5.742573592105577367e-06,1.264314379972414824e-05
2.917460317460317309e+00,4.516880942886471238e-06,1.776814400280217528e-05
2.918253968253968100e+00,2.561156422671451312e-06,2.443665924557598032e-05
2.919047619047618891e+00,4.021217653624813445e-07,3.073744828634886563e-05
2.919841269841269682e+00,-1.452193076640409765e-06,3.448896930731180319e-05
2.920634920634920473e+00,-2.635728646421157450e-06,3.368069544678390346e-05
2.921428571428571264e+00,-2.991309193738874728e-06,2.690264328083046330e-05
2.922222222222222054e+00,-2.572027995070983600e-06,1.371583821736851446e-05
2.923015873015872845e+00,-1.590056344524194450e-06,-5.102779475238615810e-06
2.923809523809523636e+00,-3.386430808980157240e-07,-2.752017417098655670e-05
2.924603174603174427e+00,8.864510410086371596e-07,-5.046964410611837041e-05
2.925396825396825218e+00,1.848246934489902408e-06,-7.033564642052116567e-05
2.926190476190476009e+00,2.405249609560775336e-06,-8.362566116239700687e-05
2.926984126984126799e+00,2.523616558783341995e-06,-8.769112730278693496e-05
2.927777777777777590e+00,2.267854069330159955e-06,-8.133314949099133806e-05
2.928571428571428381e+00,1.773724382885564043e-06,-6.514649764490238056e-05
2.929365079365079172e+00,1.208121562875269210e-06,-4.151010464019869438e-05
2.930158730158729963e+00,7.236162308710316668e-07,-1.420786012212830763e-05
2.930952380952380754e+00,4.189648936695872761e-07,1.225813037173325753e-05
2.931746031746031544e+00,3.179327348998103063e-07,3.353368844267474715e-05
2.932539682539682335e+00,3.744886248053686126e-07,4.628625629797674198e-05
2.933333333333333126e+00,5.029725507998955064e-07,4.889987294494898618e-05
2.934126984126983917e+00,6.211897276583297642e-07,4.182802982075791679e-05
2.934920634920634708e+00,6.883589010807168812e-07,2.750604840404780949e-05
2.935714285714285499e+00,7.221028397172505219e-07,9.823589735269987503e-06
2.936507936507936289e+00,7.879882418369537074e-07,-6.733445516922124244e-06
2.937301587301587080e+00,9.666004741369544398e-07,-1.807510371303350119e-05
2.938095238095238315e+00,1.311768807127435167e-06,-2.139772867588815138e-05
2.938888888888889106e+00,1.816468085950180015e-06,-1.575993669140441915e-05
2.939682539682539897e+00,2.399744729224847036e-06,-2.215349596645750084e-06
2.940476190476190688e+00,2.920498474377923657e-06,1.650692211213633339e-05
2.941269841269841478e+00,3.214847896921442048e-06,3.666648067398323250e-05
2.942063492063492269e+00,3.145725584178896178e-06,5.433721681929844162e-05
2.942857142857143060e+00,2.648710922762241311e-06,6.619471536018796658e-05
2.943650793650793851e+00,1.759022983364580191e-06,7.010209156590602186e-05
2.944444444444444642e+00,6.111983125535048876e-07,6.539523510091754094e-05
2.945238095238095433e+00,-5.877814207825772893e-07,5.284138312357582418e-05
2.946031746031746223e+00,-1.603598628085271957e-06,3.432112061434250747e-05
2.946825396825397014e+00,-2.226077706257031700e-06,1.235420026010911469e-05
2.947619047619047805e+00,-2.315241552850836803e-06,-1.037457444781724185e-05
2.948412698412698596e+00,-1.832775921513611402e-06,-3.135952595578494248e-05
2.949206349206349387e+00,-8.538898511735862939e-07,-4.844198819671187070e-05
2.950000000000000178e+00,4.412627562683163873e-07,-5.985552659388781419e-05
2.950793650793650968e+00,1.794529016748939061e-06,-6.426563150758061245e-05
2.951587301587301759e+00,2.911058334958520920e-06,-6.091065800472749201e-05
2.952380952380952550e+00,3.509007036882509964e-06,-4.986605272759433115e-05
2.953174603174603341e+00,3.369980350532278896e-06,-3.233571497590154381e-05
2.953968253968254132e+00,2.382212985750452368e-06,-1.078828338654780182e-05
2.954761904761904923e+00,5.699368278611730087e-07,1.123836085449728069e-05
2.955555555555555713e+00,-1.895579322180126916e-06,2.972820621436903375e-05
2.956349206349206504e+00,-4.706845283758331259e-06,4.106482438367537694e-05
2.957142857142857295e+00,-7.455991850763752811e-06,4.293973512314555363e-05
2.957936507936508086e+00,-9.696088311074527741e-06,3.498938374050317298e-05
2.958730158730158877e+00,-1.102125579402236865e-05,1.894063919894761522e-05
2.959523809523809668e+00,-1.114989252671563353e-05,-1.782385550959811326e-06
2.960317460317460458e+00,-9.990113299542258140e-06,-2.285945904450061207e-05
2.961111111111111249e+00,-7.668883413045747652e-06,-4.004712922878457228e-05
2.961904761904762040e+00,-4.515333138855485835e-06,-5.007401339025360250e-05
2.962698412698412831e+00,-1.000393815547235689e-06,-5.126105898679347297e-05
2.963492063492063622e+00,2.354318378733012592e-06,-4.375392045393434429e-05
2.964285714285714413e+00,5.077558031656892054e-06,-2.935057172678483020e-05
2.965079365079365203e+00,6.835590930556487264e-06,-1.099775706082030531e-05
2.965873015873015994e+00,7.485299402502755016e-06,7.902192237721756798e-06
2.966666666666666785e+00,7.083093003899037515e-06,2.420118920434316932e-05
2.967460317460317576e+00,5.851644290467711640e-06,3.557120168168209921e-05
2.968253968253968367e+00,4.116381955904442262e-06,4.081875963141663537e-05
2.969047619047619158e+00,2.229301284795875952e-06,3.991814110417670961e-05
2.969841269841269948e+00,4.987364918796445703e-07,3.380705950939501449e-05
2.970634920634920739e+00,-8.597474869966754971e-07,2.403791930251121466e-05
2.971428571428571530e+00,-1.743441543835811387e-06,1.239566555113370991e-05
2.972222222222222321e+00,-2.154476597437862668e-06,5.792845100440194930e-07
2.973015873015873112e+00,-2.172386753369309184e-06,-9.999341033259715765e-06
2.973809523809523903e+00,-1.920130795398251229e-06,-1.830160164127007450e-05
2.974603174603174693e+00,-1.534981278048252689e-06,-2.367537567846656567e-05
2.975396825396825484e+00,-1.148967860081834623e-06,-2.584187382947215195e-05
2.976190476190476275e+00,-8.760859902946248109e-07,-2.487953209047873680e-05
2.976984126984127066e+00,-8.007088872338014889e-07,-2.120008033964196250e-05
2.977777777777777857e+00,-9.648319005995618439e-07,-1.549658849143029514e-05
2.978571428571428648e+00,-1.357231396335607655e-06,-8.646408794624041628e-06
2.979365079365079438e+00,-1.910565639737688138e-06,-1.569677027921593631e-06
2.980158730158730229e+00,-2.510675671361657551e-06,4.931487992465848412e-06
2.980952380952381020e+00,-3.017131032570310463e-06,1.030629467126730046e-05
2.981746031746031811e+00,-3.289183861306703853e-06,1.430797677554047498e-05
2.982539682539682602e+00,-3.210525998201815425e-06,1.693535510335099348e-05
2.983333333333333393e+00,-2.709943111894052899e-06,1.828399244154518491e-05
2.984126984126984183e+00,-1.778949301141515737e-06,1.837992855086189372e-05
2.984920634920634974e+00,-4.868106556274178941e-07,1.708404383069526942e-05
2.985714285714285765e+00,1.012344429710085451e-06,1.412033918209873374e-05
2.986507936507936556e+00,2.491052318449043294e-06,9.221285368442692863e-06
2.987301587301587347e+00,3.687702241602212311e-06,2.334627393061172515e-06
2.988095238095238138e+00,4.371106762315455534e-06,-6.182592805131396780e-06
2.988888888888888928e+00,4.412492741778790392e-06,-1.545110711844388418e-05
2.989682539682539719e+00,3.837166028131285328e-06,-2.408817248476802570e-05
2.990476190476190510e+00,2.831799760922654899e-06,-3.038323383162455161e-05
2.991269841269841301e+00,1.699563804871869847e-06,-3.262126843515998300e-05
2.992063492063492092e+00,7.758356955133887258e-07,-2.950264556008618509e-05
2.992857142857142883e+00,3.319080016931470324e-07,-2.056525674438946835e-05
2.993650793650793673e+00,4.969921598335193857e-07,-6.483552059212146929e-06
2.994444444444444464e+00,1.220980077520698979e-06,1.087833177407700541e-05
2.995238095238095255e+00,2.287305631038558520e-06,2.872813956536255945e-05
2.996031746031746046e+00,3.371609989869896656e-06,4.389270154559117045e-05
2.996825396825396837e+00,4.130242715252507205e-06,5.351865917817885660e-05
2.997619047619047628e+00,4.295000399608738681e-06,5.573396100059494781e-05
2.998412698412698418e+00,3.749227656621853033e-06,5.008447542900594805e-05
2.999206349206349209e+00,2.566153632232585962e-06,3.762638058498753808e-05
3.000000000000000000e+00,1.000594782993692808e-06,2.065341631311798883e-05
3.000793650793650791e+00,-5.644905866400414967e-07,2.141017969074723322e-06
3.001587301587301582e+00,-1.707241914362136378e-06,-1.493177962361952266e-05
3.002380952380952372e+00,-2.075784248664962501e-06,-2.819781926538574425e-05
3.003174603174603163e+00,-1.492888555850798666e-06,-3.631077622379661369e-05
3.003968253968253954e+00,-2.672794938849745464e-08,-3.908017771401604118e-05
3.004761904761904745e+00,1.999135535860869967e-06,-3.733540623099820203e-05
3.005555555555555536e+00,4.068857419430346029e-06,-3.257147025165271889e-05
3.006349206349206327e+00,5.600563520554482188e-06,-2.646899093689944937e-05
3.007142857142857117e+00,6.103708625596989617e-06,-2.041458918244646440e-05
3.007936507936507908e+00,5.321949057424227346e-06,-1.516065273165960331e-05
3.008730158730158699e+00,3.317383673889923473e-06,-1.073295485177235874e-05
3.009523809523809490e+00,4.690408114132308470e-07,-6.614074997622885749e-06
3.010317460317460281e+00,-2.615999219433521890e-06,-2.125893944404988369e-06
3.011111111111111072e+00,-5.256636693153025615e-06,3.145221676026258697e-06
3.011904761904761862e+00,-6.879028622429302107e-06,9.051557302801009614e-06
3.012698412698412653e+00,-7.180174890457918355e-06,1.483009539388318031e-05
3.013492063492063444e+00,-6.229458661017948732e-06,1.930614174770393143e-05
3.014285714285714235e+00,-4.473812966442321527e-06,2.127170486569784265e-05
3.015079365079365026e+00,-2.634280877160723979e-06,1.990309134130027562e-05
3.015873015873015817e+00,-1.512721995351482456e-06,1.508794767749026864e-05
3.016666666666666607e+00,-1.756943152192930713e-06,7.574616130212543580e-06
3.017460317460317398e+00,-3.649242316733084056e-06,-1.094431512732617873e-06
3.018253968253968189e+00,-6.981062001168351687e-06,-8.860973410010317976e-06
3.019047619047618980e+00,-1.105552481490675796e-05,-1.359873595175375979e-05
3.019841269841269771e+00,-1.482609370359171514e-05,-1.364802724670867220e-05
3.020634920634920562e+00,-1.714327013022117185e-05,-8.312981418325340278e-06
3.021428571428571352e+00,-1.705146263433234937e-05,1.830417284956056354e-06
3.022222222222222143e+00,-1.406031377589478737e-05,1.494668086709062207e-05
3.023015873015872934e+00,-8.312760818393596108e-06,2.831590558915459460e-05
3.023809523809523725e+00,-5.920021909821979225e-07,3.898325217314617755e-05
3.024603174603174516e+00,7.846108962956486801e-06,4.448551266797621888e-05
3.025396825396825307e+00,1.557179670571648902e-05,4.342811677182219042e-05
3.026190476190476097e+00,2.132321468773842792e-05,3.574976194738704031e-05
3.026984126984126888e+00,2.429234665089106081e-05,2.263319516343947788e-05
3.027777777777777679e+00,2.428042103766079205e-05,6.140868450749044416e-06
3.028571428571428470e+00,2.169273093074833246e-05,-1.127573728650334873e-05
3.029365079365079261e+00,1.738749560223426126e-05,-2.724458562849645359e-05
3.030158730158730052e+00,1.242717529141900057e-05,-3.982725134917988296e-05
3.030952380952380842e+00,7.800816233947644197e-06,-4.773751472264345510e-05
3.031746031746031633e+00,4.191180771789815465e-06,-5.044511730358635499e-05
3.032539682539682424e+00,1.847145178854431408e-06,-4.818644628874256346e-05
3.033333333333333215e+00,5.899375404874716671e-07,-4.188746107069055933e-05
3.034126984126984006e+00,-5.985421512579566899e-08,-3.299790579175614460e-05
3.034920634920634797e+00,-6.837492575030584487e-07,-2.324411668401114007e-05
3.035714285714285587e+00,-1.762356440221297538e-06,-1.432111199723865089e-05
3.036507936507936378e+00,-3.529481340227930968e-06,-7.562200266992338172e-06
3.037301587301587169e+00,-5.920198885005028582e-06,-3.648671046287091339e-06
3.038095238095237960e+00,-8.615928386171864905e-06,-2.440454532676094493e-06
3.038888888888888751e+00,-1.115902471970620250e-05,-2.998362441577299518e-06
3.039682539682539542e+00,-1.309170756646118919e-05,-3.821677581900834858e-06
3.040476190476190332e+00,-1.407348681708837090e-05,-3.257840700709969682e-06
3.041269841269841123e+00,-1.394607075793148964e-05,1.665989875141219081e-08
3.042063492063491914e+00,-1.273824411728460997e-05,6.569632836890039202e-06
3.042857142857142705e+00,-1.062530391482370413e-05,1.595474014673171158e-05
3.043650793650793496e+00,-7.869389017232749262e-06,2.670031497614978517e-05
3.044444444444444287e+00,-4.764945029795243317e-06,3.657195658137772057e-05
3.045238095238095077e+00,-1.601266118860434006e-06,4.306360499352493372e-05
3.046031746031745868e+00,1.359530428491663784e-06,4.399812597915535864e-05
3.046825396825396659e+00,3.896980759999780410e-06,3.808269933648796951e-05
3.047619047619047450e+00,5.844195444429665805e-06,2.528948094586848627e-05
3.048412698412698241e+00,7.096284400912646118e-06,6.994993263208596861e-06
3.049206349206349032e+00,7.612574423406613762e-06,-1.413430629345081485e-05
3.049999999999999822e+00,7.413290501353506642e-06,-3.450056408470459019e-05
3.050793650793650613e+00,6.574891514342786466e-06,-5.015713887855661861e-05
3.051587301587301404e+00,5.227265384157065021e-06,-5.756276818586748519e-05
3.052380952380952195e+00,3.550912170175098288e-06,-5.439083847567536493e-05
3.053174603174602986e+00,1.767588542494552434e-06,-4.020756034632533960e-05
3.053968253968253777e+00,1.180998181910402413e-07,-1.680160068077960926e-05
3.054761904761904567e+00,-1.173165865170270773e-06,1.200422513969555467e-05
3.055555555555555358e+00,-1.939237983499044107e-06,4.108930256966436361e-05
3.056349206349206149e+00,-2.104361462867534415e-06,6.515934287660971784e-05
3.057142857142856940e+00,-1.699360653420190894e-06,7.994257272506393591e-05
3.057936507936507731e+00,-8.543617375481653489e-07,8.310558914632373807e-05
3.058730158730158522e+00,2.273190704714482563e-07,7.464235156989267234e-05
3.059523809523809312e+00,1.305520435434577397e-06,5.668248145307977292e-05
3.060317460317460103e+00,2.140771291734556338e-06,3.284768258531129098e-05
3.061111111111110894e+00,2.526982211610702351e-06,7.384688094023027445e-06
3.061904761904761685e+00,2.318216794537864895e-06,-1.569322419032790321e-05
3.062698412698412920e+00,1.452262892388352448e-06,-3.328360865492899478e-05
3.063492063492063711e+00,-2.770648447388900899e-08,-4.359930723088735135e-05
3.064285714285714501e+00,-1.959013001063703493e-06,-4.628242697278416371e-05
3.065079365079365292e+00,-4.064943093982197567e-06,-4.226600561971324328e-05
3.065873015873016083e+00,-5.990526943585932159e-06,-3.345414754466118979e-05
3.066666666666666874e+00,-7.368842982891714707e-06,-2.229965468557889617e-05
3.067460317460317665e+00,-7.903976272703146987e-06,-1.134695745827817790e-05
3.068253968253968456e+00,-7.447043626473117542e-06,-2.791930640552131312e-06
3.069047619047619246e+00,-6.041421841781989510e-06,1.893297235686619699e-06
3.069841269841270037e+00,-3.922025843184609703e-06,2.209699372379830371e-06
3.070634920634920828e+00,-1.466569578926432797e-06,-1.313142708321670603e-06
3.071428571428571619e+00,8.903559065790204055e-07,-7.294562691792077324e-06
3.072222222222222410e+00,2.759105224986853815e-06,-1.388275153535919993e-05
3.073015873015873201e+00,3.885381892181306617e-06,-1.923045399596372108e-05
3.073809523809523991e+00,4.203481386704638764e-06,-2.192611964946942951e-05
3.074603174603174782e+00,3.837581164463351768e-06,-2.126974803876637574e-05
3.075396825396825573e+00,3.053307976822188391e-06,-1.735077895289780141e-05
3.076190476190476364e+00,2.177419085702919809e-06,-1.094630471392746737e-05
3.076984126984127155e+00,1.510968546345728412e-06,-3.287193539998282554e-06
3.077777777777777946e+00,1.259330695804505773e-06,4.250523859334616603e-06
3.078571428571428736e+00,1.494410196781394004e-06,1.046032454813737449e-05
3.079365079365079527e+00,2.154524642158172924e-06,1.454630467948607377e-05
3.080158730158730318e+00,3.077639792651975562e-06,1.622315373789792454e-05
3.080952380952381109e+00,4.054861583014460552e-06,1.565550227423315923e-05
3.081746031746031900e+00,4.886174699394327431e-06,1.328268535149655678e-05
3.082539682539682691e+00,5.422358238015523868e-06,9.618362820688942203e-06
3.083333333333333481e+00,5.584952095112954671e-06,5.108903714936128148e-06
3.084126984126984272e+00,5.365197581160288610e-06,8.740190848754897600e-08
3.084920634920635063e+00,4.808468899574237245e-06,-5.195974458913813221e-06
3.085714285714285854e+00,3.992284095350160340e-06,-1.051854373443913640e-05
3.086507936507936645e+00,3.005552931211507629e-06,-1.564820488180776765e-05
3.087301587301587436e+00,1.934901783856898450e-06,-2.033309240912019829e-05
3.088095238095238226e+00,8.597379877420642285e-07,-2.429448554582865958e-05
3.088888888888889017e+00,-1.476893312427077382e-07,-2.720035298329217627e-05
3.089682539682539808e+00,-1.023599700552699802e-06,-2.862829128631224761e-05
3.090476190476190599e+00,-1.719000657719151223e-06,-2.806100664760983874e-05
3.091269841269841390e+00,-2.208777606447632991e-06,-2.496581610312508683e-05
3.092063492063492181e+00,-2.497247393804812872e-06,-1.897975998307243080e-05
3.092857142857142971e+00,-2.614624920948507179e-06,-1.016153200706832230e-05
3.093650793650793762e+00,-2.603282328379462266e-06,7.922692582081732706e-07
3.094444444444444553e+00,-2.497401633958841194e-06,1.249465697696204031e-05
3.095238095238095344e+00,-2.302494008147852407e-06,2.306361331168981117e-05
3.096031746031746135e+00,-1.982591375332216942e-06,3.054612186981988140e-05
3.096825396825396925e+00,-1.463328028313606175e-06,3.344378581293980219e-05
3.097619047619047716e+00,-6.569977483089016963e-07,3.116053253089730871e-05
3.098412698412698507e+00,4.916295735592368823e-07,2.422002663074766796e-05
3.099206349206349298e+00,1.951364200100894555e-06,1.418676364505120526e-05
3.100000000000000089e+00,3.564244238612084080e-06,3.327442628645612059e-06
3.100793650793650880e+00,5.040432678498954297e-06,-5.872812118372481929e-06
3.101587301587301670e+00,5.999770668409427389e-06,-1.119802348141639306e-05
3.102380952380952461e+00,6.055796099570393721e-06,-1.108270786817263882e-05
3.103174603174603252e+00,4.923101413062334288e-06,-4.847337602544860697e-06
3.103968253968254043e+00,2.518533586700530313e-06,7.187260021220266175e-06
3.104761904761904834e+00,-9.766551184997135830e-07,2.367003185294753456e-05
3.105555555555555625e+00,-5.120610937644634334e-06,4.228534234234268530e-05
3.106349206349206415e+00,-9.290706218159249972e-06,5.997860206858334376e-05
3.107142857142857206e+00,-1.282421717275188320e-05,7.339475640810876511e-05
3.107936507936507997e+00,-1.517952843646461654e-05,7.949227833465354683e-05
3.108730158730158788e+00,-1.606512806017996260e-05,7.619359994601748753e-05
3.109523809523809579e+00,-1.549337521899329549e-05,6.289890767251571434e-05
3.110317460317460370e+00,-1.374542159208451876e-05,4.073258597040734408e-05
3.111111111111111160e+00,-1.126766420620310378e-05,1.245845094051847875e-05
3.111904761904761951e+00,-8.541312581097497379e-06,-1.794250339139855427e-05
3.112698412698412742e+00,-5.967571716046811002e-06,-4.597764136377840153e-05
3.113492063492063533e+00,-3.796468510314020845e-06,-6.750298917198887161e-05
3.114285714285714324e+00,-2.107722537173937019e-06,-7.954657629106798083e-05
3.115079365079365115e+00,-8.356081586277985242e-07,-8.089063737505925919e-05
3.115873015873015905e+00,1.793708897482714132e-07,-7.226455894563693801e-05
3.116666666666666696e+00,1.130448901994052507e-06,-5.610736672232260374e-05
3.117460317460317487e+00,2.190533382522385337e-06,-3.597575315585276138e-05
3.118253968253968278e+00,3.473015316835385088e-06,-1.576080572854351094e-05
3.119047619047619069e+00,5.012591081877897370e-06,1.090483306479587073e-06
3.119841269841269860e+00,6.768330422988332112e-06,1.217801501545863283e-05
3.120634920634920650e+00,8.646169204868300252e-06,1.647180845345677994e-05
3.121428571428571441e+00,1.053071380248833283e-05,1.433077037404527515e-05
3.122222222222222232e+00,1.231165618517287687e-05,7.257095954245471717e-06
3.123015873015873023e+00,1.389314529851285623e-05,-2.530939953781892903e-06
3.123809523809523814e+00,1.518426655841309422e-05,-1.260232956386179865e-05
3.124603174603174605e+00,1.607952576037589905e-05,-2.078607524573859898e-05
3.125396825396825395e+00,1.644444791566090837e-05,-2.552963704778986133e-05
3.126190476190476186e+00,1.612094502738292502e-05,-2.609870373396678772e-05
3.126984126984126977e+00,1.496014929140541231e-05,-2.261150370471953007e-05
3.127777777777777768e+00,1.287817864987272150e-05,-1.592380298584938265e-05
3.128571428571428559e+00,9.916252840556147709e-06,-7.391255200637079715e-06
3.129365079365079350e+00,6.277399160413893914e-06,1.453632878150357015e-06
3.130158730158730140e+00,2.314785884274545284e-06,9.253030385481515963e-06
3.130952380952380931e+00,-1.536353546266556254e-06,1.512329943186300614e-05
3.131746031746031722e+00,-4.866180270393401801e-06,1.881377429523271194e-05
3.132539682539682513e+00,-7.399000609056641728e-06,2.066484262331183438e-05
3.133333333333333304e+00,-9.059918393804951907e-06,2.137327459796726934e-05
3.134126984126984095e+00,-9.970864036458728578e-06,2.165108963971702218e-05
3.134920634920634885e+00,-1.037672888267142486e-05,2.191082431235517915e-05
3.135714285714285676e+00,-1.053276549325831991e-05,2.209909607264719250e-05
3.136507936507936467e+00,-1.060143415044942408e-05,2.173600321655048305e-05
3.137301587301587258e+00,-1.060170461396033734e-05,2.013061811569349867e-05
3.138095238095238049e+00,-1.042859050856130699e-05,1.667608070847534154e-05
3.138888888888888840e+00,-9.927783914245049107e-06,1.111158180863497372e-05
3.139682539682539630e+00,-8.986177296595150178e-06,3.668154334177058294e-06
3.140476190476190421e+00,-7.595900225415006180e-06,-4.936328788423607420e-06
3.141269841269841212e+00,-5.867512005602195926e-06,-1.364080638919680567e-05
3.142063492063492003e+00,-3.994947795571011503e-06,-2.127320759434682453e-05
3.142857142857142794e+00,-2.194850991853918622e-06,-2.679732997161193519e-05
3.143650793650793585e+00,-6.476921736610915792e-07,-2.950046258457841221e-05
3.144444444444444375e+00,5.397703273839535138e-07,-2.907524857128306232e-05
3.145238095238095166e+00,1.343384958722832071e-06,-2.559322631345013795e-05
3.146031746031745957e+00,1.804983674762129693e-06,-1.940797881752091093e-05
3.146825396825396748e+00,2.000301194584965217e-06,-1.104864419319765947e-05
3.147619047619047539e+00,2.004848936111861620e-06,-1.161747684961011606e-06
3.148412698412698330e+00,1.869912025083225414e-06,9.475351196842401734e-06
3.149206349206349120e+00,1.614733681896381794e-06,1.990399916134249540e-05
3.149999999999999911e+00,1.232759937967419959e-06,2.897711015777589683e-05
3.150793650793650702e+00,7.042571595368607040e-07,3.546891225109351990e-05
3.151587301587301493e+00,8.015400728146140177e-09,3.830999848991228826e-05
3.152380952380952284e+00,-8.694972521464242377e-07,3.687363660013261174e-05
3.153174603174603075e+00,-1.923222622955475367e-06,3.119749537846800249e-05
3.153968253968253865e+00,-3.112370349751929741e-06,2.205137094152855433e-05
3.154761904761904656e+00,-4.339897790243493571e-06,1.082991905835906886e-05
3.155555555555555447e+00,-5.440552992114182368e-06,-6.937765815786754342e-07
3.156349206349206238e+00,-6.191327112602186645e-06,-1.069908029559596981e-05
3.157142857142857029e+00,-6.349673064279270228e-06,-1.767658367103752191e-05
3.157936507936507819e+00,-5.711912850030762676e-06,-2.074671080919379316e-05
3.158730158730158610e+00,-4.175258572370605430e-06,-1.985795922704319347e-05
3.159523809523809401e+00,-1.784760748516725635e-06,-1.579960998358688435e-05
3.160317460317460192e+00,1.250634720758807787e-06,-1.001093922909753589e-05
3.161111111111110983e+00,4.582145947148470107e-06,-4.227361089020676236e-06
3.161904761904761774e+00,7.783703284090647096e-06,-5.139009205594625003e-08
3.162698412698412564e+00,1.043810042484127303e-05,1.439423190695427588e-06
3.163492063492063355e+00,1.222229883709799216e-05,-5.790588569372336092e-08
3.164285714285714146e+00,1.296735318135324072e-05,-4.029732384194271545e-06
3.165079365079364937e+00,1.267796512233459909e-05,-9.313918650627229999e-06
3.165873015873015728e+00,1.151072409657097382e-05,-1.442302465847922339e-05
3.166666666666666519e+00,9.722580254174691692e-06,-1.793676367360172097e-05
3.167460317460317309e+00,7.607875307162596377e-06,-1.887383616856181022e-05
3.168253968253968100e+00,5.441817821371119324e-06,-1.695824608047202518e-05
3.169047619047618891e+00,3.442111017589856472e-06,-1.270324656030186571e-05
3.169841269841269682e+00,1.752382689762138791e-06,-7.265540159602404567e-06
3.170634920634920473e+00,4.446094740343201405e-07,-2.089207488171616391e-06
3.171428571428571264e+00,-4.661152346140847688e-07,1.556941384313949859e-06
3.172222222222222054e+00,-1.002674422402858523e-06,2.990994642424360199e-06
3.173015873015872845e+00,-1.210443746661261643e-06,2.333191450676012828e-06
3.173809523809523636e+00,-1.150168588396416073e-06,4.548048590680367236e-07
3.174603174603174427e+00,-9.001459549862590225e-07,-1.310171499070867670e-06
3.175396825396825218e+00,-5.639153387548008657e-07,-1.586828245553845266e-06
3.176190476190476009e+00,-2.754188331067575602e-07,6.143877346134644294e-07
3.176984126984126799e+00,-1.921674734813357612e-07,5.580195704139502978e-06
3.177777777777777590e+00,-4.702176204423896186e-07,1.276329668711150829e-05
3.178571428571428381e+00,-1.222331543991135168e-06,2.087193975405350963e-05
3.179365079365079172e+00,-2.470020046914880015e-06,2.816491492421296000e-05
3.180158730158729963e+00,-4.107524381505671351e-06,3.288072551072403839e-05
3.180952380952380754e+00,-5.897105605828533478e-06,3.368191573017612723e-05
3.181746031746031544e+00,-7.507493278728702531e-06,2.998053180268379306e-05
3.182539682539682335e+00,-8.591894693783973860e-06,2.204458406851450480e-05
3.183333333333333126e+00,-8.884078182603894725e-06,1.086169438809900385e-05
3.184126984126983917e+00,-8.279437317774671382e-06,-2.172819486541795240e-06
3.184920634920634708e+00,-6.870514412362226745e-06,-1.560837389518649992e-05
3.185714285714285499e+00,-4.924030132838119861e-06,-2.818730146261111299e-05
3.186507936507936289e+00,-2.809742369083830668e-06,-3.890626724878819325e-05
3.187301587301587080e+00,-9.071625075644088834e-07,-4.691709026066667585e-05
3.188095238095238315e+00,4.822170786308881661e-07,-5.138803864446637375e-05
3.188888888888889106e+00,1.197799295505883098e-06,-5.147168707280081650e-05
3.189682539682539897e+00,1.248121658133818038e-06,-4.646655528190725258e-05
3.190476190476190688e+00,8.013911081074058959e-07,-3.614708187831614363e-05
3.191269841269841478e+00,1.405246917400908159e-07,-2.112329885383030470e-05
3.192063492063492269e+00,-4.087514115873489383e-07,-3.034880517904053827e-06
3.192857142857143060e+00,-5.615816683077219270e-07,1.557614876725903137e-05
3.193650793650793851e+00,-1.499882578709944624e-07,3.173924340393970611e-05
3.194444444444444642e+00,8.284097789166796820e-07,4.274238878992540295e-05
3.195238095238095433e+00,2.203206587452814285e-06,4.680087066407600486e-05
3.196031746031746223e+00,3.668484951009509901e-06,4.348944915791478987e-05
3.196825396825397014e+00,4.854061356661097184e-06,3.382322484228621933e-05
3.197619047619047805e+00,5.411507325966873690e-06,2.000054380168780785e-05
3.198412698412698596e+00,5.095066953550410070e-06,4.915692077928751467e-06
3.199206349206349387e+00,3.821851929485623679e-06,-8.415455849224986749e-06
3.200000000000000178e+00,1.700490886050497391e-06,-1.739430189543582836e-05
3.200793650793650968e+00,-9.780265395231855919e-07,-2.027169822385868414e-05
3.201587301587301759e+00,-3.787440259365520947e-06,-1.644395128406732167e-05
3.202380952380952550e+00,-6.243357393070818879e-06,-6.586181516496635758e-06
3.203174603174603341e+00,-7.895197299394552889e-06,7.427020740873143221e-06
3.203968253968254132e+00,-8.414105858060575891e-06,2.286371641138532849e-05
3.204761904761904923e+00,-7.658964721728533137e-06,3.672186047223203754e-05
3.205555555555555713e+00,-5.706902963276038082e-06,4.642210663321648850e-05
3.206349206349206504e+00,-2.841603199241469921e-06,5.037411392708622586e-05
3.207142857142857295e+00,4.978603367820601605e-07,4.821370703910272173e-05
3.207936507936508086e+00,3.795412237116738437e-06,4.066237451355840803e-05
3.208730158730158877e+00,6.546790592017729575e-06,2.913200078811100941e-05
3.209523809523809668e+00,8.344138586099356407e-06,1.527236187950913539e-05
3.210317460317460458e+00,8.945831155548344152e-06,6.196592021544184424e-07
3.211111111111111249e+00,8.321402303371277468e-06,-1.358582101085158172e-05
3.211904761904762040e+00,6.659594220098196894e-06,-2.642536110607130961e-05
3.212698412698412831e+00,4.330834227025451504e-06,-3.723180340155256345e-05
3.213492063492063622e+00,1.807584799187952675e-06,-4.550019681686831937e-05
3.214285714285714413e+00,-4.385793475546999742e-07,-5.084036078288446474e-05
3.215079365079365203e+00,-2.035257791356653501e-06,-5.299568153779258151e-05
3.215873015873015994e+00,-2.777078145479412049e-06,-5.191106053570110416e-05
3.216666666666666785e+00,-2.648294492962719485e-06,-4.780779159622821473e-05
3.217460317460317576e+00,-1.799630504716659122e-06,-4.122402116825545250e-05
3.218253968253968367e+00,-4.914842847536429393e-07,-3.299751061598126954e-05
3.219047619047619158e+00,9.769226114105652181e-07,-2.418679689669318719e-05
3.219841269841269948e+00,2.332045702703415812e-06,-1.593984295631245671e-05
3.220634920634920739e+00,3.369008921114178261e-06,-9.325253975922645792e-06
3.221428571428571530e+00,3.967117801768006660e-06,-5.141000405836131717e-06
3.222222222222222321e+00,4.081905261779280651e-06,-3.716551557118441518e-06
3.223015873015873112e+00,3.724797015704297916e-06,-4.739415336236254892e-06
3.223809523809523903e+00,2.942928684893643575e-06,-7.167455126880534418e-06
3.224603174603174693e+00,1.807647861623998942e-06,-9.310483347945544460e-06
3.225396825396825484e+00,4.136459063630268599e-07,-9.144365743501178378e-06
3.226190476190476275e+00,-1.115467044472534951e-06,-4.843023044144511652e-06
3.226984126984127066e+00,-2.623164029341712568e-06,4.598644840443407697e-06
3.227777777777777857e+00,-3.925988065429660414e-06,1.886709748150807559e-05
3.228571428571428648e+00,-4.834477603218207767e-06,3.617719739986814209e-05
3.229365079365079438e+00,-5.187930114405298163e-06,5.357840766044384825e-05
3.230158730158730229e+00,-4.895633743856857136e-06,6.766345603901550293e-05
3.230952380952381020e+00,-3.972669357042370925e-06,7.546514762338150603e-05
3.231746031746031811e+00,-2.556784623696277643e-06,7.525113095982423122e-05
3.232539682539682602e+00,-8.954019816283157230e-07,6.696105307651060545e-05
3.233333333333333393e+00,7.004128380965482907e-07,5.215999828099815552e-05
3.234126984126984183e+00,1.926462364762258031e-06,3.355323214967153163e-05
3.234920634920634974e+00,2.560983910000182531e-06,1.424989935919195422e-05
