Timestamp,Flexor carpi radialis,Extensor digitorum
2.000000000000000000e+00,-2.051530054127865538e-07,4.437973861806287755e-06
2.000793650793650791e+00,-8.180327252924331341e-08,7.986558833298770084e-07
2.001587301587301582e+00,3.543845856666703407e-07,-3.979999801766240857e-06
2.002380952380952372e+00,1.122155647981095151e-06,-9.667781817968162475e-06
2.003174603174603163e+00,2.180402369905755128e-06,-1.556414710615980904e-05
2.003968253968253954e+00,3.426573796347502218e-06,-2.060981764806807612e-05
2.004761904761904745e+00,4.698938804053576281e-06,-2.365664823342581168e-05
2.005555555555555536e+00,5.789192415540172074e-06,-2.381204463123038771e-05
2.006349206349206327e+00,6.471382672243234220e-06,-2.074707982966155767e-05
2.007142857142857117e+00,6.547078175881635609e-06,-1.487267964283359348e-05
2.007936507936507908e+00,5.897610983364063873e-06,-7.329698836263278918e-06
2.008730158730158699e+00,4.526794549739325121e-06,2.149563902045443694e-07
2.009523809523809490e+00,2.576743218429011709e-06,5.931227056679239064e-06
2.010317460317460281e+00,3.074781107419351349e-07,8.271633553579655758e-06
2.011111111111111072e+00,-1.955545355577175499e-06,6.388014671373608486e-06
2.011904761904761862e+00,-3.890178500120523447e-06,3.955259350126621566e-07
2.012698412698412653e+00,-5.242106477578685981e-06,-8.607698131231546489e-06
2.013492063492063444e+00,-5.867569246001829574e-06,-1.878059778512592768e-05
2.014285714285714235e+00,-5.745232590052177568e-06,-2.796592101933764035e-05
2.015079365079365026e+00,-4.959576420028474212e-06,-3.417495636633186674e-05
2.015873015873015817e+00,-3.667826731445263980e-06,-3.600120029677512701e-05
2.016666666666666607e+00,-2.065369739104652380e-06,-3.287476176046156444e-05
2.017460317460317398e+00,-3.596687454740200100e-07,-2.512094454840392517e-05
2.018253968253968189e+00,1.246008225201671019e-06,-1.382935859070219203e-05
2.019047619047618980e+00,2.564533848662339674e-06,-5.740011449669851463e-07
2.019841269841269771e+00,3.439261091637466661e-06,1.294342594580734693e-05
2.020634920634920562e+00,3.763317620050737274e-06,2.522977473576339837e-05
2.021428571428571352e+00,3.500457601461009142e-06,3.522019725614200817e-05
2.022222222222222143e+00,2.700527474470382540e-06,4.232772045402292022e-05
2.023015873015872934e+00,1.502810175360667259e-06,4.634083475023048642e-05
2.023809523809523725e+00,1.227572169367359413e-07,4.724979931475873756e-05
2.024603174603174516e+00,-1.179678264488838637e-06,4.510018772971017322e-05
2.025396825396825307e+00,-2.148092473542498276e-06,3.994138674813054634e-05
2.026190476190476097e+00,-2.586097404814194759e-06,3.188257470089797904e-05
2.026984126984126888e+00,-2.407670045619815423e-06,2.121810937668341615e-05
2.027777777777777679e+00,-1.663892748016716216e-06,8.555929755023788228e-06
2.028571428571428470e+00,-5.331824601224143039e-07,-5.118340890046588160e-06
2.029365079365079261e+00,7.253675129066343848e-07,-1.848579146646898972e-05
2.030158730158730052e+00,1.840507356809522304e-06,-3.005322477784205926e-05
2.030952380952380842e+00,2.594856860572578736e-06,-3.839302416338652522e-05
2.031746031746031633e+00,2.867136035179117399e-06,-4.240343187248270886e-05
2.032539682539682424e+00,2.642131926874521768e-06,-4.152531781630020686e-05
2.033333333333333215e+00,1.993184618953562727e-06,-3.586934187023133427e-05
2.034126984126984006e+00,1.048443016529548235e-06,-2.623303891864839542e-05
2.034920634920634797e+00,-4.803235870427830693e-08,-1.400620209858192988e-05
2.035714285714285587e+00,-1.171645915654550577e-06,-9.710869403803725986e-07
2.036507936507936378e+00,-2.242006337023041305e-06,1.098884719574459017e-05
2.037301587301587169e+00,-3.230967971102239025e-06,2.023775079114603306e-05
2.038095238095237960e+00,-4.150636196343751514e-06,2.572469005574193096e-05
2.038888888888888751e+00,-5.023743242740849551e-06,2.721008979471965252e-05
2.039682539682539542e+00,-5.846305439431252607e-06,2.528896868112391651e-05
2.040476190476190332e+00,-6.557862467639494459e-06,2.117936127478353507e-05
2.041269841269841123e+00,-7.033794648883478618e-06,1.633528483162199814e-05
2.042063492063491914e+00,-7.106508015050819878e-06,1.201387784975769372e-05
2.042857142857142705e+00,-6.611414715238239072e-06,8.938774655662184036e-06
2.043650793650793496e+00,-5.444630539996144058e-06,7.158160607809435127e-06
2.044444444444444287e+00,-3.614751966804260884e-06,6.125134532449189544e-06
2.045238095238095077e+00,-1.271172485956973200e-06,4.959627437227028781e-06
2.046031746031745868e+00,1.303883372459063220e-06,2.801694418905938664e-06
2.046825396825396659e+00,3.743008986493234675e-06,-8.578902184694666985e-07
2.047619047619047450e+00,5.671589167169289092e-06,-5.977053443137759439e-06
2.048412698412698241e+00,6.794877482908974137e-06,-1.195756594689961380e-05
2.049206349206349032e+00,6.968256300956678961e-06,-1.783116564683721557e-05
2.049999999999999822e+00,6.230967297905733592e-06,-2.255805452004745613e-05
2.050793650793650613e+00,4.797244046283990137e-06,-2.531934806149537594e-05
2.051587301587301404e+00,3.011258645593866751e-06,-2.570195505628709352e-05
2.052380952380952195e+00,1.277949632630317788e-06,-2.373447027996196919e-05
2.053174603174602986e+00,-1.780658880438384534e-08,-1.979722282910940581e-05
2.053968253968253777e+00,-5.913048337236316979e-07,-1.446667778641599187e-05
2.054761904761904567e+00,-3.235411558025343939e-07,-8.357571787761859203e-06
2.055555555555555358e+00,7.027528462629259257e-07,-2.008262179294274097e-06
2.056349206349206149e+00,2.208778722355081749e-06,4.168583998843936161e-06
2.057142857142856940e+00,3.771325056299859875e-06,9.869006159602651955e-06
2.057936507936507731e+00,4.913456880287110199e-06,1.483332367190793708e-05
2.058730158730158522e+00,5.216603922021856619e-06,1.877195928180825832e-05
2.059523809523809312e+00,4.429060862360161149e-06,2.132865596424781765e-05
2.060317460317460103e+00,2.542897076643213759e-06,2.211649915403996304e-05
2.061111111111110894e+00,-1.856359056059009395e-07,2.082902602365094315e-05
2.061904761904761685e+00,-3.284668041413638883e-06,1.738977255436034063e-05
2.062698412698412920e+00,-6.175155400359040085e-06,1.207882179593333782e-05
2.063492063492063711e+00,-8.307823995591189406e-06,5.576182736277890466e-06
2.064285714285714501e+00,-9.286903882133212314e-06,-1.111672521277464105e-06
2.065079365079365292e+00,-8.947379062817904064e-06,-6.836325393055124251e-06
2.065873015873016083e+00,-7.373627404707854315e-06,-1.056106334309200313e-05
2.066666666666666874e+00,-4.866139758546619476e-06,-1.161910532090398584e-05
2.067460317460317665e+00,-1.869579951150305014e-06,-9.904507796649275007e-06
2.068253968253968456e+00,1.124780597418290954e-06,-5.933164466605084616e-06
2.069047619047619246e+00,3.684706571495829232e-06,-7.420414183412318299e-07
2.069841269841270037e+00,5.524082087455320130e-06,4.354576726057349480e-06
2.070634920634920828e+00,6.543354851012998269e-06,8.081532571095306593e-06
2.071428571428571619e+00,6.809504533689417071e-06,9.498139531383981312e-06
2.072222222222222410e+00,6.486145615814685200e-06,8.197083126856726215e-06
2.073015873015873201e+00,5.745563494880831700e-06,4.374903378059719639e-06
2.073809523809523991e+00,4.700731247089324816e-06,-1.223381678939206053e-06
2.074603174603174782e+00,3.383583274928662133e-06,-7.473656377897880926e-06
2.075396825396825573e+00,1.773672191724089589e-06,-1.314091568417592067e-05
2.076190476190476364e+00,-1.382924673396237416e-07,-1.720187928130988543e-05
2.076984126984127155e+00,-2.277120733516499843e-06,-1.912520936720847012e-05
2.077777777777777946e+00,-4.427060126107935634e-06,-1.898838714327817474e-05
2.078571428571428736e+00,-6.218912138103017483e-06,-1.736247718254471992e-05
2.079365079365079527e+00,-7.180336635638434682e-06,-1.500681970478686941e-05
2.080158730158730318e+00,-6.852678912670086282e-06,-1.251015332514446663e-05
2.080952380952381109e+00,-4.950737642787719309e-06,-1.003158314670684759e-05
2.081746031746031900e+00,-1.515213043880647980e-06,-7.236297291195095497e-06
2.082539682539682691e+00,3.003953830501709022e-06,-3.435888471543879647e-06
2.083333333333333481e+00,7.780991516247466448e-06,2.121706840779186650e-06
2.084126984126984272e+00,1.177417647229146410e-05,9.898530311588688447e-06
2.084920634920635063e+00,1.397672720494385173e-05,1.974636852348931972e-05
2.085714285714285854e+00,1.369126690324985905e-05,3.072222858177987571e-05
2.086507936507936645e+00,1.075094301793601581e-05,4.112919606679602371e-05
2.087301587301587436e+00,5.620801909721708998e-06,4.881872265026276957e-05
2.088095238095238226e+00,-6.608814694022156143e-07,5.169938205687406025e-05
2.088888888888889017e+00,-6.702963908147575133e-06,4.831106537725115109e-05
2.089682539682539808e+00,-1.110019055843216456e-05,3.828909310564718714e-05
2.090476190476190599e+00,-1.280713836268559841e-05,2.257446068687000060e-05
2.091269841269841390e+00,-1.144285785249821817e-05,3.304537512952431795e-06
2.092063492063492181e+00,-7.430211750997466087e-06,-1.659173543808789144e-05
2.092857142857142971e+00,-1.914924957574594838e-06,-3.399779354467217938e-05
2.093650793650793762e+00,3.526601575629625990e-06,-4.627282723973730281e-05
2.094444444444444553e+00,7.315018797912900508e-06,-5.181876875453322087e-05
2.095238095238095344e+00,8.310380905724754172e-06,-5.040720684334464447e-05
2.096031746031746135e+00,6.141017230391814762e-06,-4.317180741995101860e-05
2.096825396825396925e+00,1.322950378672931750e-06,-3.225891086424453928e-05
2.097619047619047716e+00,-4.866941267612513903e-06,-2.023094193631619846e-05
2.098412698412698507e+00,-1.073196862225212678e-05,-9.394634613369944924e-06
2.099206349206349298e+00,-1.461763900917682996e-05,-1.246136300969723114e-06
2.100000000000000089e+00,-1.536472509417550545e-05,3.818316255231910556e-06
2.100793650793650880e+00,-1.262449438288671660e-05,6.460837927267879338e-06
2.101587301587301670e+00,-6.948024294124861597e-06,8.052480680641762762e-06
2.102380952380952461e+00,3.701838357526219519e-07,1.011117171369770956e-05
2.103174603174603252e+00,7.641601020420637114e-06,1.367817959859567133e-05
2.103968253968254043e+00,1.322128537832612807e-05,1.882350823747783880e-05
2.104761904761904834e+00,1.591165322943646857e-05,2.446819549120341883e-05
2.105555555555555625e+00,1.522785140129735401e-05,2.863294488408129620e-05
2.106349206349206415e+00,1.146383111479509399e-05,2.907226548015509049e-05
2.107142857142857206e+00,5.556803475920615441e-06,2.409439971075580674e-05
2.107936507936507997e+00,-1.194150979034025830e-06,1.327996849265846770e-05
2.108730158730158788e+00,-7.461968591428629137e-06,-2.162272383228419283e-06
2.109523809523809579e+00,-1.218237405205707555e-05,-1.954114689153422954e-05
2.110317460317460370e+00,-1.473647238909919599e-05,-3.530093259842489474e-05
2.111111111111111160e+00,-1.500391963161941676e-05,-4.593035641611755565e-05
2.111904761904761951e+00,-1.330037121122298780e-05,-4.889281546477873655e-05
2.112698412698412742e+00,-1.023022777666210688e-05,-4.330428059538033619e-05
2.113492063492063533e+00,-6.493220089140950799e-06,-3.016569637939776029e-05
2.114285714285714324e+00,-2.691888261269636095e-06,-1.209762449480303396e-05
2.115079365079365115e+00,8.055869016237711402e-07,7.320370842284515972e-06
2.115873015873015905e+00,3.900271549352462881e-06,2.439334914226439079e-05
2.116666666666666696e+00,6.679594375937742547e-06,3.610087007655061938e-05
2.117460317460317487e+00,9.248628772593584204e-06,4.065346575791964383e-05
2.118253968253968278e+00,1.154934333888392884e-05,3.773400191318923347e-05
2.119047619047619069e+00,1.325533006176117901e-05,2.843268711011366732e-05
2.119841269841269860e+00,1.380416710100679055e-05,1.493781884473821008e-05
2.120634920634920650e+00,1.257316536726390032e-05,6.072541854269202775e-08
2.121428571428571441e+00,9.141282090618280774e-06,-1.332367810566750484e-05
2.122222222222222232e+00,3.538674837792278817e-06,-2.282832767540472605e-05
2.123015873015873023e+00,-3.617074670837125073e-06,-2.699179254422711126e-05
2.123809523809523814e+00,-1.116235344278565646e-05,-2.550708965178007410e-05
2.124603174603174605e+00,-1.760920985419279006e-05,-1.919333192644328843e-05
2.125396825396825395e+00,-2.148713111882888111e-05,-9.730044072576712343e-06
2.126190476190476186e+00,-2.170520553346274659e-05,7.661392369166176416e-07
2.126984126984126977e+00,-1.783290711043339683e-05,1.021118072118721081e-05
2.127777777777777768e+00,-1.022908461134068110e-05,1.696036602731054935e-05
2.128571428571428559e+00,4.504212982669469558e-09,2.007240420292900803e-05
2.129365079365079350e+00,1.122580357208625759e-05,1.939768532189767135e-05
2.130158730158730140e+00,2.156224086613671599e-05,1.550482374078693544e-05
2.130952380952380931e+00,2.926253708774631242e-05,9.491365340662344545e-06
2.131746031746031722e+00,3.302154230067798406e-05,2.732439564590461832e-06
2.132539682539682513e+00,3.221748261989886545e-05,-3.387883965261141908e-06
2.133333333333333304e+00,2.701895995254721927e-05,-7.727375190848427073e-06
2.134126984126984095e+00,1.834211395802837574e-05,-9.584152350605411522e-06
2.134920634920634885e+00,7.664809497714035127e-06,-8.806997293745360138e-06
2.135714285714285676e+00,-3.266566811352348110e-06,-5.790778007408214029e-06
2.136507936507936467e+00,-1.277670940317740884e-05,-1.354071036364385581e-06
2.137301587301587258e+00,-1.957296351481336004e-05,3.473534421597211272e-06
2.138095238095238049e+00,-2.295958503511909239e-05,7.700864825050207055e-06
2.138888888888888840e+00,-2.291021622971380731e-05,1.059510651620324802e-05
2.139682539682539630e+00,-1.999196753975198342e-05,1.181540912436456727e-05
2.140476190476190421e+00,-1.517272337940459610e-05,1.143517010499886803e-05
2.141269841269841212e+00,-9.569412235508457611e-06,9.865486025187292801e-06
2.142063492063492003e+00,-4.202647604010147137e-06,7.713305377619464667e-06
2.142857142857142794e+00,1.868889667254459826e-07,5.609446013283569660e-06
2.143650793650793585e+00,3.227350742288722664e-06,4.038678137801139613e-06
2.144444444444444375e+00,4.904642657055593804e-06,3.206002562209345534e-06
2.145238095238095166e+00,5.471859684050306923e-06,2.975009545132714922e-06
2.146031746031745957e+00,5.317051794182687780e-06,2.906247562373465050e-06
2.146825396825396748e+00,4.831520242766542562e-06,2.400393040840576947e-06
2.147619047619047539e+00,4.312146896760841886e-06,9.147945062286250862e-07
2.148412698412698330e+00,3.914304987317912147e-06,-1.813772310626171896e-06
2.149206349206349120e+00,3.654453176573124823e-06,-5.621632017319742323e-06
2.149999999999999911e+00,3.449617419264495941e-06,-9.907843354846576994e-06
2.150793650793650702e+00,3.175775113158399800e-06,-1.377580691395092098e-05
2.151587301587301493e+00,2.726536784570177782e-06,-1.628766468799834209e-05
2.152380952380952284e+00,2.055973940853746324e-06,-1.675155330499428609e-05
2.153174603174603075e+00,1.195249729744435746e-06,-1.494738914049706034e-05
2.153968253968253865e+00,2.415947293729545724e-07,-1.121389691236502729e-05
2.154761904761904656e+00,-6.726956676655831245e-07,-6.364771570776949045e-06
2.155555555555555447e+00,-1.418426649624082491e-06,-1.461406035809993968e-06
2.156349206349206238e+00,-1.903086389871336976e-06,2.479457595935254135e-06
2.157142857142857029e+00,-2.093130829252808675e-06,4.745512342358016064e-06
2.157936507936507819e+00,-2.022457019992073951e-06,5.080355250286588277e-06
2.158730158730158610e+00,-1.785783588407594040e-06,3.700753747666033264e-06
2.159523809523809401e+00,-1.516492252715819774e-06,1.201997875341732383e-06
2.160317460317460192e+00,-1.351979738764248092e-06,-1.603780139979333412e-06
2.161111111111110983e+00,-1.394794234862574537e-06,-3.875435435206223819e-06
2.161904761904761774e+00,-1.681097259722824031e-06,-4.929223629134588683e-06
2.162698412698412564e+00,-2.166887125853387967e-06,-4.400364908585675439e-06
2.163492063492063355e+00,-2.737378170025181493e-06,-2.346693612133069331e-06
2.164285714285714146e+00,-3.238197441319994337e-06,7.471091202042507275e-07
2.165079365079364937e+00,-3.521035768865150965e-06,4.091180265029472286e-06
2.165873015873015728e+00,-3.492248960855327451e-06,6.820611813199061153e-06
2.166666666666666519e+00,-3.150601548614516963e-06,8.265466991127753857e-06
2.167460317460317309e+00,-2.600342405364241418e-06,8.165788575668765948e-06
2.168253968253968100e+00,-2.030126291317273581e-06,6.752322623669435690e-06
2.169047619047618891e+00,-1.658487939440571970e-06,4.662472147058257774e-06
2.169841269841269682e+00,-1.660296083110412323e-06,2.718622782663170425e-06
2.170634920634920473e+00,-2.099288853832593651e-06,1.640515303649570651e-06
2.171428571428571264e+00,-2.892682940009486144e-06,1.784222951261359145e-06
2.172222222222222054e+00,-3.823128243237493575e-06,2.994816825307991393e-06
2.173015873015872845e+00,-4.595608178621646278e-06,4.628425425161314700e-06
2.173809523809523636e+00,-4.920468081352211004e-06,5.747333157499574856e-06
2.174603174603174427e+00,-4.595483591527796993e-06,5.432484850935590210e-06
2.175396825396825218e+00,-3.561909108972539669e-06,3.112627230206225368e-06
2.176190476190476009e+00,-1.919262434195490847e-06,-1.200231513221278706e-06
2.176984126984126799e+00,1.030607183002153913e-07,-6.846747153138878964e-06
2.177777777777777590e+00,2.206206288615826505e-06,-1.264732493458671859e-05
2.178571428571428381e+00,4.094014900187511440e-06,-1.718478593981637132e-05
2.179365079365079172e+00,5.534661371248520612e-06,-1.917072861279135168e-05
2.180158730158729963e+00,6.395897677551531926e-06,-1.780527931978809349e-05
2.180952380952380754e+00,6.649798189493480068e-06,-1.303510456725413199e-05
2.181746031746031544e+00,6.354247228189426936e-06,-5.628630685144775739e-06
2.182539682539682335e+00,5.623952161976516612e-06,2.971118411156487006e-06
2.183333333333333126e+00,4.602087381103987926e-06,1.099087217056434982e-05
2.184126984126983917e+00,3.437902019424269868e-06,1.677681773141897901e-05
2.184920634920634708e+00,2.270602484530387072e-06,1.921749514946919220e-05
2.185714285714285499e+00,1.218314226874100083e-06,1.801306262906492362e-05
2.186507936507936289e+00,3.720435344696136972e-07,1.371476194504208386e-05
2.187301587301587080e+00,-2.047733715314538813e-07,7.533466187179716898e-06
2.188095238095238315e+00,-4.725218997810556503e-07,9.856550041975253125e-07
2.188888888888889106e+00,-4.122841209330274904e-07,-4.513787328839894653e-06
2.189682539682539897e+00,-2.910204188284476040e-08,-7.997513372418802623e-06
2.190476190476190688e+00,6.366602744314417103e-07,-9.142314848266248060e-06
2.191269841269841478e+00,1.494910564111564263e-06,-8.275363997669614433e-06
2.192063492063492269e+00,2.397898612462236036e-06,-6.203394566734047814e-06
2.192857142857143060e+00,3.147530263665228041e-06,-3.925529818266906330e-06
2.193650793650793851e+00,3.521714542489183245e-06,-2.318864909409831405e-06
2.194444444444444642e+00,3.317315591271516731e-06,-1.888183296529483845e-06
2.195238095238095433e+00,2.402147322133373146e-06,-2.647190609091494343e-06
2.196031746031746223e+00,7.647098559509746101e-07,-4.156300347943294863e-06
2.196825396825397014e+00,-1.452662134676769105e-06,-5.695483258247056617e-06
2.197619047619047805e+00,-3.952687196567281687e-06,-6.514489042959717878e-06
2.198412698412698596e+00,-6.324845966450306509e-06,-6.085343254228510418e-06
2.199206349206349387e+00,-8.127865821554495861e-06,-4.284542355853083968e-06
2.200000000000000178e+00,-8.993891953643728431e-06,-1.452171877574229250e-06
2.200793650793650968e+00,-8.723267883949209310e-06,1.691439845288337457e-06
2.201587301587301759e+00,-7.339644016424313108e-06,4.250397431904624089e-06
2.202380952380952550e+00,-5.088556641608290382e-06,5.421709001165484030e-06
2.203174603174603341e+00,-2.380778673455888979e-06,4.750328855336712778e-06
2.203968253968254132e+00,3.040340312566610030e-07,2.296919406139773426e-06
2.204761904761904923e+00,2.530216256164719141e-06,-1.332529912761897699e-06
2.205555555555555713e+00,4.008790800100911412e-06,-5.111822615146303236e-06
2.206349206349206504e+00,4.663053096249903926e-06,-7.851866779142716615e-06
2.207142857142857295e+00,4.636286999878813557e-06,-8.528283612101223400e-06
2.207936507936508086e+00,4.235930174360613209e-06,-6.586934372209529851e-06
2.208730158730158877e+00,3.829043070207494121e-06,-2.128666565629810708e-06
2.209523809523809668e+00,3.721313805771723936e-06,4.095051612472315097e-06
2.210317460317460458e+00,4.058010088662045300e-06,1.088085232610077780e-05
2.211111111111111249e+00,4.777868053799475937e-06,1.690090561241248458e-05
2.211904761904762040e+00,5.633612882082135598e-06,2.104859441097674101e-05
2.212698412698412831e+00,6.272309592021696885e-06,2.269420942856659412e-05
2.213492063492063622e+00,6.351175134630915954e-06,2.178552519135341142e-05
2.214285714285714413e+00,5.653967609394474380e-06,1.878529617601641809e-05
2.215079365079365203e+00,4.172035972238429268e-06,1.448414466673873807e-05
2.215873015873015994e+00,2.123559066183077534e-06,9.753846912230335815e-06
2.216666666666666785e+00,-9.706184987685773904e-08,5.313753896215848874e-06
2.217460317460317576e+00,-2.025553549701840157e-06,1.573387981666282010e-06
2.218253968253968367e+00,-3.257840845418872830e-06,-1.411379162278143551e-06
2.219047619047619158e+00,-3.564605617789781650e-06,-3.866543305236651712e-06
2.219841269841269948e+00,-2.956481942408595901e-06,-6.145243233144489067e-06
2.220634920634920739e+00,-1.681470790241490405e-06,-8.546372845236011007e-06
2.221428571428571530e+00,-1.563017679104737504e-07,-1.116814794627883808e-05
2.222222222222222321e+00,1.148247258993064162e-06,-1.384364960269718101e-05
2.223015873015873112e+00,1.836677361125986055e-06,-1.617618626772916881e-05
2.223809523809523903e+00,1.698319353295006659e-06,-1.765890488665116395e-05
2.224603174603174693e+00,7.673168738070415081e-07,-1.783659576699593089e-05
2.225396825396825484e+00,-6.850334030162191423e-07,-1.645654275608260730e-05
2.226190476190476275e+00,-2.226034220498838022e-06,-1.356220341231336876e-05
2.226984126984127066e+00,-3.386134338136154948e-06,-9.503765939690209634e-06
2.227777777777777857e+00,-3.797205836015691109e-06,-4.864493274307021203e-06
2.228571428571428648e+00,-3.303624998775215416e-06,-3.241607510033776333e-07
2.229365079365079438e+00,-2.012290361904136799e-06,3.502741941102976691e-06
2.230158730158730229e+00,-2.659744043087666766e-07,6.208767030631650047e-06
2.230952380952381020e+00,1.452450032545744462e-06,7.674425955064519323e-06
2.231746031746031811e+00,2.657116328648229107e-06,8.064743659057561106e-06
2.232539682539682602e+00,2.997959477533628846e-06,7.742759317742593282e-06
2.233333333333333393e+00,2.360704625986055040e-06,7.125154509884461670e-06
2.234126984126984183e+00,8.984200383088994688e-07,6.522028127611050043e-06
2.234920634920634974e+00,-1.014539362290432185e-06,6.010197391611767882e-06
2.235714285714285765e+00,-2.891549455834175103e-06,5.385435940201679885e-06
2.236507936507936556e+00,-4.272099291791282305e-06,4.221630737637693371e-06
2.237301587301587347e+00,-4.848198781400706870e-06,2.033987280794951377e-06
2.238095238095238138e+00,-4.542939593975073942e-06,-1.495553715364264664e-06
2.238888888888888928e+00,-3.521377495117965924e-06,-6.306306273865862775e-06
2.239682539682539719e+00,-2.134458327227270146e-06,-1.184537631426931282e-05
2.240476190476190510e+00,-8.150197347488850588e-07,-1.711138041540255747e-05
2.241269841269841301e+00,4.362483115464846072e-08,-2.086079538016212041e-05
2.242063492063492092e+00,1.931190884298318705e-07,-2.192750014539428930e-05
2.242857142857142883e+00,-4.081870696242401075e-07,-1.956955377809231012e-05
2.243650793650793673e+00,-1.592079911380809543e-06,-1.374488095161368759e-05
2.244444444444444464e+00,-3.034511567493189221e-06,-5.228661604150995976e-06
2.245238095238095255e+00,-4.350169232422431070e-06,4.480615509967750565e-06
2.246031746031746046e+00,-5.200364935701881751e-06,1.346608775682798293e-05
2.246825396825396837e+00,-5.383451427994135766e-06,1.984721349894410456e-05
2.247619047619047628e+00,-4.881993091665490538e-06,2.227219974272194830e-05
2.248412698412698418e+00,-3.854166412944566259e-06,2.031236132666984235e-05
2.249206349206349209e+00,-2.574228363062998003e-06,1.463629530943504605e-05
2.250000000000000000e+00,-1.342134423744104328e-06,6.893286984201713205e-06
2.250793650793650791e+00,-3.909465140503448828e-07,-6.863673725739410751e-07
2.251587301587301582e+00,1.791297296251991605e-07,-5.882379217778464884e-06
2.252380952380952372e+00,4.195429606297904904e-07,-7.109833176851926421e-06
2.253174603174603163e+00,4.999484729566012542e-07,-3.895843961622832378e-06
2.253968253968253954e+00,6.357721194114242232e-07,2.950029144657936625e-06
2.254761904761904745e+00,1.004286504015056248e-06,1.154898820608963438e-05
2.255555555555555536e+00,1.680112684606702883e-06,1.950515741072867144e-05
2.256349206349206327e+00,2.611481412222637339e-06,2.462541497554828396e-05
2.257142857142857117e+00,3.640962328660305475e-06,2.556153718538220379e-05
2.257936507936507908e+00,4.557970873886150551e-06,2.215491752383931350e-05
2.258730158730158699e+00,5.162094080373577747e-06,1.538591804303939450e-05
2.259523809523809490e+00,5.316822687818253619e-06,6.984497109030445113e-06
2.260317460317460281e+00,4.979413672234921799e-06,-1.131819786776436031e-06
2.261111111111111072e+00,4.201276183188153561e-06,-7.398806731901094994e-06
2.261904761904761862e+00,3.102627308393731525e-06,-1.097161489450742286e-05
2.262698412698412653e+00,1.833161532276243157e-06,-1.183746377563122266e-05
2.263492063492063444e+00,5.342784601704989601e-07,-1.067806528629590753e-05
2.264285714285714235e+00,-6.840169115305341875e-07,-8.553842150464748304e-06
2.265079365079365026e+00,-1.746250841109504409e-06,-6.525034564827931311e-06
2.265873015873015817e+00,-2.598851235139843063e-06,-5.333550860164318569e-06
2.266666666666666607e+00,-3.192515282367393011e-06,-5.240115788323385441e-06
2.267460317460317398e+00,-3.470904001015903989e-06,-6.049996643021807170e-06
2.268253968253968189e+00,-3.371636632605924535e-06,-7.289498336720593948e-06
2.269047619047618980e+00,-2.837815006512457235e-06,-8.445333592754993653e-06
2.269841269841269771e+00,-1.833239984129375036e-06,-9.169540968507538332e-06
2.270634920634920562e+00,-3.550989350214841417e-07,-9.380644143548987632e-06
2.271428571428571352e+00,1.557203438907263844e-06,-9.238349840008069344e-06
2.272222222222222143e+00,3.813922759687145418e-06,-9.014685890544037950e-06
2.273015873015872934e+00,6.264587783835212986e-06,-8.917451671453496657e-06
2.273809523809523725e+00,8.687566005355787591e-06,-8.937681193906374234e-06
2.274603174603174516e+00,1.078816473253424811e-05,-8.788622957368656021e-06
2.275396825396825307e+00,1.221661954851301168e-05,-7.975525614973363756e-06
2.276190476190476097e+00,1.261434452641674066e-05,-5.984723052902814975e-06
2.276984126984126888e+00,1.168851874985793693e-05,-2.524950697107188368e-06
2.277777777777777679e+00,9.302724065201417068e-06,2.276141243281382553e-06
2.278571428571428470e+00,5.557981759956457307e-06,7.802635908741888921e-06
2.279365079365079261e+00,8.308766449094181299e-07,1.304082730264321128e-05
2.280158730158730052e+00,-4.258667450413338385e-06,1.680530112778249181e-05
2.280952380952380842e+00,-8.955725785501602232e-06,1.803574027361294337e-05
2.281746031746031633e+00,-1.253087868171599930e-05,1.608384190941823390e-05
2.282539682539682424e+00,-1.444594848788799743e-05,1.091562138284148573e-05
2.283333333333333215e+00,-1.447423608150250586e-05,3.174094205188433354e-06
2.284126984126984006e+00,-1.274156469734423446e-05,-5.922665340348339029e-06
2.284920634920634797e+00,-9.682340937382853156e-06,-1.483094788223653184e-05
2.285714285714285587e+00,-5.929786871742358184e-06,-2.201352758114944987e-05
2.286507936507936378e+00,-2.173201966318472043e-06,-2.626057634552905068e-05
2.287301587301587169e+00,9.822897348760645031e-07,-2.691638566214168849e-05
2.288095238095237960e+00,3.122684907152985340e-06,-2.397163746390176166e-05
2.288888888888888751e+00,4.077742709854176576e-06,-1.802423276497910402e-05
2.289682539682539542e+00,3.913254334211373707e-06,-1.013389151823570599e-05
2.290476190476190332e+00,2.874451176668666541e-06,-1.600755708230040427e-06
2.291269841269841123e+00,1.305572379094742022e-06,6.298194619851085330e-06
2.292063492063491914e+00,-4.270714052892027634e-07,1.256993941314072124e-05
2.292857142857142705e+00,-1.991460131929429154e-06,1.670398213638125129e-05
2.293650793650793496e+00,-3.124201889791662887e-06,1.874662356281654477e-05
2.294444444444444287e+00,-3.651063949070211894e-06,1.921476461617068116e-05
2.295238095238095077e+00,-3.500336945406898797e-06,1.886825383666882323e-05
2.296031746031745868e+00,-2.708602032591939612e-06,1.841886090626639633e-05
2.296825396825396659e+00,-1.414852116284816886e-06,1.828041105692760590e-05
2.297619047619047450e+00,1.594358026054865425e-07,1.844234503094457439e-05
2.298412698412698241e+00,1.743897298921459281e-06,1.849527796242940851e-05
2.299206349206349032e+00,3.064390263991375177e-06,1.778413758355676172e-05
2.299999999999999822e+00,3.894911319035869147e-06,1.563307780487612582e-05
2.300793650793650613e+00,4.106905274864541842e-06,1.157821003425403210e-05
2.301587301587301404e+00,3.702062517927342652e-06,5.550478446684824023e-06
2.302380952380952195e+00,2.815548730713897508e-06,-2.035501198462503429e-06
2.303174603174602986e+00,1.685530049660332537e-06,-1.031033289415135662e-05
2.303968253968253777e+00,5.973591868493725139e-07,-1.809138533594021925e-05
2.304761904761904567e+00,-1.817978662144991177e-07,-2.410227821091105591e-05
2.305555555555555358e+00,-4.633991721282117189e-07,-2.721962403406617272e-05
2.306349206349206149e+00,-1.838286004320575595e-07,-2.670009389895471123e-05
2.307142857142856940e+00,5.694081548242328736e-07,-2.235392536007557065e-05
2.307936507936507731e+00,1.557254192561529862e-06,-1.463885136044020418e-05
2.308730158730158522e+00,2.419638087531320768e-06,-4.649177623712603026e-06
2.309523809523809312e+00,2.739070508170227700e-06,6.020264700699041938e-06
2.310317460317460103e+00,2.133132832740942117e-06,1.553474862011946158e-05
2.311111111111110894e+00,3.628305829289358128e-07,2.216801671707605906e-05
2.311904761904761685e+00,-2.565927032373202381e-06,2.466443931146486068e-05
2.312698412698412920e+00,-6.337347618850105157e-06,2.252413252659726039e-05
2.313492063492063711e+00,-1.032646200547659777e-05,1.613539893230179155e-05
2.314285714285714501e+00,-1.368419686030160242e-05,6.718200771661513088e-06
2.315079365079365292e+00,-1.550529461279407555e-05,-3.913480050896181336e-06
2.315873015873016083e+00,-1.505103852428359337e-05,-1.372480592764878434e-05
2.316666666666666874e+00,-1.197297854756047130e-05,-2.089081976039581389e-05
2.317460317460317665e+00,-6.469906647591084747e-06,-2.418246983773528292e-05
2.318253968253968456e+00,6.813800335045593599e-07,-2.320487806051077525e-05
2.319047619047619246e+00,8.248478323559390007e-06,-1.842249197643527236e-05
2.319841269841270037e+00,1.479888054262229629e-05,-1.097595396584818428e-05
2.320634920634920828e+00,1.902461031155710687e-05,-2.366650198033334250e-06
2.321428571428571619e+00,2.004933254240597965e-05,5.882605637208427942e-06
2.322222222222222410e+00,1.763934795691339939e-05,1.250450460429545744e-05
2.323015873015873201e+00,1.227248295149375023e-05,1.666746932960627071e-05
2.323809523809523991e+00,5.057568524643697007e-06,1.806297252270702323e-05
2.324603174603174782e+00,-2.473911002638720054e-06,1.690845339495355084e-05
2.325396825396825573e+00,-8.665658300258498179e-06,1.386304072845423372e-05
2.326190476190476364e+00,-1.207399113946796122e-05,9.854429321963626182e-06
2.326984126984127155e+00,-1.178438718106033772e-05,5.839293042154513317e-06
2.327777777777777946e+00,-7.641180003635564594e-06,2.552883582395133773e-06
2.328571428571428736e+00,-3.321798725606700200e-07,3.221148341993679211e-07
2.329365079365079527e+00,8.704929978540732686e-06,-9.937186614598513751e-07
2.330158730158730318e+00,1.754980445581210200e-05,-1.905633210095957182e-06
2.330952380952381109e+00,2.419548899450274829e-05,-3.060180006337792126e-06
2.331746031746031900e+00,2.699483546082931192e-05,-4.937179483492007703e-06
2.332539682539682691e+00,2.505694465071792791e-05,-7.590675807041308133e-06
2.333333333333333481e+00,1.848986485649520192e-05,-1.055085232256645976e-05
2.334126984126984272e+00,8.410113700355541545e-06,-1.295550087414205365e-05
2.334920634920635063e+00,-3.303872997310159771e-06,-1.388039875835036592e-05
2.335714285714285854e+00,-1.446013487730677081e-05,-1.273487728771610719e-05
2.336507936507936645e+00,-2.308055616362249642e-05,-9.543346324656945705e-06
2.337301587301587436e+00,-2.785608462336256971e-05,-4.978959065018188497e-06
2.338095238095238226e+00,-2.840470569522330428e-05,-1.331460564894133452e-07
2.338888888888889017e+00,-2.527403477152345175e-05,3.867923855006731884e-06
2.339682539682539808e+00,-1.970782223795142774e-05,6.224351152016983762e-06
2.340476190476190599e+00,-1.325686097446951732e-05,6.659369234096924420e-06
2.341269841269841390e+00,-7.348866432486794336e-06,5.411505167469604794e-06
2.342063492063492181e+00,-2.937447020232610837e-06,3.077299943650330786e-06
2.342857142857142971e+00,-3.250426457802175758e-07,4.005472456954073085e-07
2.343650793650793762e+00,8.004319700436178829e-07,-1.909679463630642124e-06
2.344444444444444553e+00,1.145470615177042916e-06,-3.290862252673843494e-06
2.345238095238095344e+00,1.495418246972701107e-06,-3.370321292979490578e-06
2.346031746031746135e+00,2.414670055247233085e-06,-1.970685257811143129e-06
2.346825396825396925e+00,4.057199724397907430e-06,8.833492502205694023e-07
2.347619047619047716e+00,6.137033560802503201e-06,4.931310237771767595e-06
2.348412698412698507e+00,8.054061782701790682e-06,9.623677363210929008e-06
2.349206349206349298e+00,9.124231143689897987e-06,1.409780369214369849e-05
2.350000000000000089e+00,8.835292725738210076e-06,1.725417744052575443e-05
2.350793650793650880e+00,7.045237596122313585e-06,1.797826905623400119e-05
2.351587301587301670e+00,4.061226436019275022e-06,1.547927683596140368e-05
2.352380952380952461e+00,5.756837060900406883e-07,9.636196686170912830e-06
2.353174603174603252e+00,-2.520102886846968474e-06,1.206421036020289905e-06
2.353968253968254043e+00,-4.389462647217839714e-06,-8.214180441216118494e-06
2.354761904761904834e+00,-4.497108164773920528e-06,-1.650662767519889962e-05
2.355555555555555625e+00,-2.776859395050773935e-06,-2.155241673390496251e-05
2.356349206349206415e+00,3.309427143259965338e-07,-2.182802541593491222e-05
2.357142857142857206e+00,3.987399270340541374e-06,-1.690227165744740697e-05
2.357936507936507997e+00,7.181613533170135728e-06,-7.679771610113428587e-06
2.358730158730158788e+00,9.013505395822749738e-06,3.711682461342647466e-06
2.359523809523809579e+00,8.951189328083969965e-06,1.439669658632157082e-05
2.360317460317460370e+00,6.984260338718339951e-06,2.148153723195812823e-05
2.361111111111111160e+00,3.622146767855518885e-06,2.283267667573334094e-05
2.361904761904761951e+00,-2.651294990122592417e-07,1.767102339896340453e-05
2.362698412698412742e+00,-3.713065558114984586e-06,6.803202290612494587e-06
2.363492063492063533e+00,-5.948177002012023924e-06,-7.572366982542142162e-06
2.364285714285714324e+00,-6.600985385973472750e-06,-2.241843733079626269e-05
2.365079365079365115e+00,-5.783080869092949699e-06,-3.461009152991820925e-05
2.365873015873015905e+00,-4.013346947049684747e-06,-4.168261798024978248e-05
2.366666666666666696e+00,-2.027801515777034121e-06,-4.238518796145093005e-05
2.367460317460317487e+00,-5.400419880434791232e-07,-3.690246448054092986e-05
2.368253968253968278e+00,-2.634517565239259931e-08,-2.669584773210497046e-05
2.369047619047619069e+00,-5.941707794091912932e-07,-1.402677405304936668e-05
2.369841269841269860e+00,-1.964467642760164779e-06,-1.320035823125918325e-06
2.370634920634920650e+00,-3.565643474667629410e-06,9.435697514719887599e-06
2.371428571428571441e+00,-4.707575046959866994e-06,1.708473475839609819e-05
2.372222222222222232e+00,-4.784402376791409594e-06,2.141471401503575818e-05
2.373015873015873023e+00,-3.450356219203382070e-06,2.299126138736197128e-05
2.373809523809523814e+00,-7.245235131165817669e-07,2.280561218301810413e-05
2.374603174603174605e+00,2.996959450961656762e-06,2.186716231396114990e-05
2.375396825396825395e+00,7.018928930231148894e-06,2.087412027612893455e-05
2.376190476190476186e+00,1.049578339527696491e-05,2.005713508338519003e-05
2.376984126984126977e+00,1.262120897652130041e-05,1.922556754588115790e-05
2.377777777777777768e+00,1.282321545713915391e-05,1.797362360275217883e-05
2.378571428571428559e+00,1.092307605907769002e-05,1.594815566223888736e-05
2.379365079365079350e+00,7.215136860203965585e-06,1.306420075040836789e-05
2.380158730158730140e+00,2.433904310998999837e-06,9.585313286633545562e-06
2.380952380952380931e+00,-2.400276964539674332e-06,6.047064248074964954e-06
2.381746031746031722e+00,-6.229826220255260876e-06,3.064556524871121827e-06
2.382539682539682513e+00,-8.241455536036224484e-06,1.104171299324046768e-06
2.383333333333333304e+00,-8.100441071106589773e-06,3.053548889377532077e-07
2.384126984126984095e+00,-6.063446391199071040e-06,4.132282328193318405e-07
2.384920634920634885e+00,-2.927474932365838234e-06,8.411816461481941392e-07
2.385714285714285676e+00,1.798007727121075371e-07,8.426983561668000184e-07
2.386507936507936467e+00,2.115440794339043642e-06,-2.545233364018036410e-07
2.387301587301587258e+00,2.055493593469410838e-06,-2.811957945126075929e-06
2.388095238095238049e+00,-2.496229789640406335e-07,-6.706498366633001567e-06
2.388888888888888840e+00,-4.377481528044654655e-06,-1.128113338519491557e-05
2.389682539682539630e+00,-9.325644982017074523e-06,-1.545745973504199163e-05
2.390476190476190421e+00,-1.376602996020250635e-05,-1.799858197059990808e-05
2.391269841269841212e+00,-1.638696322439057746e-05,-1.785417385587511951e-05
2.392063492063492003e+00,-1.622926302416678111e-05,-1.448500993774344099e-05
2.392857142857142794e+00,-1.293276729221244054e-05,-8.071090438834490870e-06
2.393650793650793585e+00,-6.838637858715378566e-06,4.529699724243278947e-07
2.394444444444444375e+00,1.071067693611085796e-06,9.544740817357342456e-06
2.395238095238095166e+00,9.379432968808603578e-06,1.735482316822050769e-05
2.396031746031745957e+00,1.653877977076537308e-05,2.212366393270970822e-05
2.396825396825396748e+00,2.120420362895619455e-05,2.259024279843614041e-05
2.397619047619047539e+00,2.252057430549915087e-05,1.831489686580436846e-05
2.398412698412698330e+00,2.029654257850826938e-05,9.829446711822411396e-06
2.399206349206349120e+00,1.502543149201292282e-05,-1.434831264065272065e-06
2.399999999999999911e+00,7.751026242396807933e-06,-1.343606317597840175e-05
2.400793650793650702e+00,-1.842649191803983903e-07,-2.396478281884621028e-05
2.401587301587301493e+00,-7.442981473966318649e-06,-3.113507478945107997e-05
2.402380952380952284e+00,-1.297214634491116884e-05,-3.380103420154406652e-05
2.403174603174603075e+00,-1.619190063862671112e-05,-3.178946896362873017e-05
2.403968253968253865e+00,-1.705141180656212047e-05,-2.588333548209658015e-05
2.404761904761904656e+00,-1.594791503649124113e-05,-1.756015327708350119e-05
2.405555555555555447e+00,-1.354566965417453453e-05,-8.568977686126142882e-06
2.406349206349206238e+00,-1.055981951701441191e-05,-4.840066052815328644e-07
2.407142857142857029e+00,-7.573308497908371465e-06,5.628174179561884596e-06
2.407936507936507819e+00,-4.933644432465145498e-06,9.346533686927666897e-06
2.408730158730158610e+00,-2.742261919912888084e-06,1.083669693329435722e-05
2.409523809523809401e+00,-9.177783251581000384e-07,1.065823850999262321e-05
2.410317460317460192e+00,7.032288020944358884e-07,9.528849155844216400e-06
2.411111111111110983e+00,2.265742594840763525e-06,8.123703237238332652e-06
2.411904761904761774e+00,3.824702929491352722e-06,6.951735496067093358e-06
2.412698412698412564e+00,5.317901356600352166e-06,6.312307954940573712e-06
2.413492063492063355e+00,6.585509472735022518e-06,6.310872781131614785e-06
2.414285714285714146e+00,7.425328805408893368e-06,6.902824942835171370e-06
2.415079365079364937e+00,7.662978057401465313e-06,7.937133826043425987e-06
2.415873015873015728e+00,7.213399294303785428e-06,9.183080820218720525e-06
2.416666666666666519e+00,6.115425907249576555e-06,1.034107214282180485e-05
2.417460317460317309e+00,4.531625889857810751e-06,1.105412092635017746e-05
2.418253968253968100e+00,2.716167307889021668e-06,1.094175690465130687e-05
2.419047619047618891e+00,9.606465678180707768e-07,9.669698836116482645e-06
2.419841269841269682e+00,-4.684099014207734717e-07,7.049617037061254977e-06
2.420634920634920473e+00,-1.384782421844847533e-06,3.141622614742317437e-06
2.421428571428571264e+00,-1.715029967006406598e-06,-1.681179817908321758e-06
2.422222222222222054e+00,-1.497373480565321851e-06,-6.742928059331718950e-06
2.423015873015872845e+00,-8.473494426049423694e-07,-1.116595178538963878e-05
2.423809523809523636e+00,9.505542698824651818e-08,-1.404909793544508163e-05
2.424603174603174427e+00,1.212884315167395337e-06,-1.468383294470779681e-05
2.425396825396825218e+00,2.433388156750457309e-06,-1.275295745370624786e-05
2.426190476190476009e+00,3.716505496641114518e-06,-8.454742457028802385e-06
2.426984126984126799e+00,5.021803249622093358e-06,-2.507871548341073778e-06
2.427777777777777590e+00,6.275338346640002694e-06,3.979224635654411360e-06
2.428571428571428381e+00,7.355962555285839074e-06,9.750207247495542201e-06
2.429365079365079172e+00,8.109212038307605150e-06,1.368910515004892651e-05
2.430158730158729963e+00,8.383433601615285032e-06,1.507165055317446987e-05
2.430952380952380754e+00,8.073778925526635313e-06,1.371223199839390336e-05
2.431746031746031544e+00,7.157840574019103459e-06,9.979342092953913379e-06
2.432539682539682335e+00,5.711056580752657260e-06,4.691579051494819316e-06
2.433333333333333126e+00,3.897692269018774256e-06,-1.072393586570294705e-06
2.434126984126983917e+00,1.940847268515450102e-06,-6.209553308344773163e-06
2.434920634920634708e+00,8.008794384458364618e-08,-9.829052053628587466e-06
2.435714285714285499e+00,-1.472591692626264639e-06,-1.143906516537696189e-05
2.436507936507936289e+00,-2.568325750221151897e-06,-1.103485719324679157e-05
2.437301587301587080e+00,-3.141474184774664427e-06,-9.058760388400933171e-06
2.438095238095238315e+00,-3.212611000661887685e-06,-6.242086165635685122e-06
2.438888888888889106e+00,-2.877716361741338003e-06,-3.381721276549650955e-06
2.439682539682539897e+00,-2.288348379512399052e-06,-1.125634537176029430e-06
2.440476190476190688e+00,-1.625473220512955096e-06,1.700270134459399093e-07
2.441269841269841478e+00,-1.068036087225848332e-06,4.825635490545795847e-07
2.442063492063492269e+00,-7.600147820221822806e-07,6.764451739273602701e-08
2.442857142857143060e+00,-7.848513534395018131e-07,-6.628225982309231543e-07
2.443650793650793851e+00,-1.157499864611044557e-06,-1.286149120484540059e-06
2.444444444444444642e+00,-1.837835999148038532e-06,-1.492736832021267205e-06
2.445238095238095433e+00,-2.758156837735826134e-06,-1.156001786634431643e-06
2.446031746031746223e+00,-3.850210741341398217e-06,-3.374246767231015797e-07
2.446825396825397014e+00,-5.059207358221180204e-06,7.623678141085010309e-07
2.447619047619047805e+00,-6.341060610924675581e-06,1.880910970959789812e-06
2.448412698412698596e+00,-7.646942125032462354e-06,2.770702664177741741e-06
2.449206349206349387e+00,-8.901709892550994647e-06,3.253807625244899359e-06
2.450000000000000178e+00,-9.983048240007243445e-06,3.244920091789874510e-06
2.450793650793650968e+00,-1.071058684006249844e-05,2.745534086869846927e-06
2.451587301587301759e+00,-1.085689326524644826e-05,1.820658984069603734e-06
2.452380952380952550e+00,-1.018857282555426803e-05,5.731226926575960509e-07
2.453174603174603341e+00,-8.532991603271713357e-06,-8.723079743228244955e-07
2.453968253968254132e+00,-5.849961857005176133e-06,-2.370349446135645545e-06
2.454761904761904923e+00,-2.278994564619170377e-06,-3.746600542762206733e-06
2.455555555555555713e+00,1.860628372093614958e-06,-4.791475245723693599e-06
2.456349206349206504e+00,6.119793159709491427e-06,-5.273318537073788204e-06
2.457142857142857295e+00,1.000093057406213451e-05,-4.982140838355603310e-06
2.457936507936508086e+00,1.304255677808943650e-05,-3.798576965366887788e-06
2.458730158730158877e+00,1.488520324728367879e-05,-1.762425658918036925e-06
2.459523809523809668e+00,1.531183327718007835e-05,8.929877401703000623e-07
2.460317460317460458e+00,1.426637126836267226e-05,3.762419082692858706e-06
2.461111111111111249e+00,1.185457830077847370e-05,6.344374544819938658e-06
2.461904761904762040e+00,8.327487841016349154e-06,8.148759294063913459e-06
2.462698412698412831e+00,4.047138927801278809e-06,8.806164891240837172e-06
2.463492063492063622e+00,-5.607393693465282374e-07,8.151511675110705414e-06
2.464285714285714413e+00,-5.056971489078411799e-06,6.264828289422873738e-06
2.465079365079365203e+00,-9.031137831919641812e-06,3.463551374041196476e-06
2.465873015873015994e+00,-1.212936022802496080e-05,2.492051101127472742e-07
2.466666666666666785e+00,-1.406842904877398501e-05,-2.783316774551604970e-06
2.467460317460317576e+00,-1.464324652170985038e-05,-5.059919485009212218e-06
2.468253968253968367e+00,-1.373766861700848533e-05,-6.144495921570595404e-06
2.469047619047619158e+00,-1.134727681069554547e-05,-5.835461362588128533e-06
2.469841269841269948e+00,-7.615000588661259939e-06,-4.220751150903353367e-06
2.470634920634920739e+00,-2.867921813414082995e-06,-1.677697945795469292e-06
2.471428571428571530e+00,2.368013562087497965e-06,1.187231883408223478e-06
2.472222222222222321e+00,7.400856274222109127e-06,3.655331568501527069e-06
2.473015873015873112e+00,1.146640037354419368e-05,5.055267708346051791e-06
2.473809523809523903e+00,1.387205594952721608e-05,4.936810242469937682e-06
2.474603174603174693e+00,1.415447013152691117e-05,3.214273550145822501e-06
2.475396825396825484e+00,1.220193240079989029e-05,2.301219179259515802e-07
2.476190476190476275e+00,8.302112752281370987e-06,-3.293793412888740371e-06
2.476984126984127066e+00,3.101661879769180649e-06,-6.414310126524194210e-06
2.477777777777777857e+00,-2.509509469145490412e-06,-8.196265239729445709e-06
2.478571428571428648e+00,-7.561506537573022701e-06,-7.956873355926306774e-06
2.479365079365079438e+00,-1.118329445108618859e-05,-5.467977010881242309e-06
2.480158730158730229e+00,-1.276523853960688420e-05,-1.066474917159987837e-06
2.480952380952381020e+00,-1.207492007456730199e-05,4.364039926682070154e-06
2.481746031746031811e+00,-9.300865868352389029e-06,9.555769481528851578e-06
2.482539682539682602e+00,-5.011206834944388791e-06,1.314513415707581778e-05
2.483333333333333393e+00,-3.425789071666652931e-08,1.402786311088655571e-05
2.484126984126984183e+00,4.710435469751020552e-06,1.168703148546029448e-05
2.484920634920634974e+00,8.388973591410595919e-06,6.392300036060070204e-06
2.485714285714285765e+00,1.039832102924504322e-05,-8.012544142337891161e-07
2.486507936507936556e+00,1.045493705751042005e-05,-8.267510393306429358e-06
2.487301587301587347e+00,8.620083988836277112e-06,-1.418793594554205321e-05
2.488095238095238138e+00,5.268432786082553905e-06,-1.700269142397661351e-05
2.488888888888888928e+00,1.012421467114230741e-06,-1.582414751198264960e-05
2.489682539682539719e+00,-3.404086102366268407e-06,-1.070634282563771767e-05
2.490476190476190510e+00,-7.228757792679961975e-06,-2.689856926335939718e-06
2.491269841269841301e+00,-9.824441350711587064e-06,6.407847433585358518e-06
2.492063492063492092e+00,-1.077543215466405324e-05,1.441803726953235623e-05
2.492857142857142883e+00,-9.958123309957819095e-06,1.935701788298386242e-05
2.493650793650793673e+00,-7.561472725139585521e-06,1.992840819131882598e-05
2.494444444444444464e+00,-4.050504642796834510e-06,1.585241956152568576e-05
2.495238095238095255e+00,-7.662462177668804008e-08,7.934281650737160627e-06
2.496031746031746046e+00,3.650006124352290294e-06,-2.138877828008153971e-06
2.496825396825396837e+00,6.500514299778675850e-06,-1.220870403064447783e-05
2.497619047619047628e+00,8.048462540924540865e-06,-2.015051023692558498e-05
2.498412698412698418e+00,8.143479705375387647e-06,-2.434425167721308294e-05
2.499206349206349209e+00,6.921113999366255526e-06,-2.400107792985042482e-05
2.500000000000000000e+00,4.750447034711678371e-06,-1.927769133913755743e-05
2.500793650793650791e+00,2.136974879983864417e-06,-1.116779106125544111e-05
2.501587301587301582e+00,-3.928709416729162944e-07,-1.216922440234176053e-06
2.502380952380952372e+00,-2.398355812511380041e-06,8.851591844914957093e-06
2.503174603174603163e+00,-3.600144288694068736e-06,1.749820903358391029e-05
2.503968253968253954e+00,-3.911474768417309948e-06,2.363110943666051346e-05
2.504761904761904745e+00,-3.421620725835213124e-06,2.672499154769835566e-05
2.505555555555555536e+00,-2.340208356458299334e-06,2.679140954630762495e-05
2.506349206349206327e+00,-9.220115123320890751e-07,2.423586317581154253e-05
2.507142857142857117e+00,6.025071903546632673e-07,1.966182731365407018e-05
2.507936507936507908e+00,2.069523980217327905e-06,1.368838980462617753e-05
2.508730158730158699e+00,3.388057002635164063e-06,6.834897185061379228e-06
2.509523809523809490e+00,4.515886225194612322e-06,-5.023271199468294728e-07
2.510317460317460281e+00,5.421692902990779511e-06,-7.990051855052151297e-06
2.511111111111111072e+00,6.052853618139721673e-06,-1.525312206544180605e-05
2.511904761904761862e+00,6.323718523968081233e-06,-2.177907684623269484e-05
2.512698412698412653e+00,6.130072215532719012e-06,-2.688619216497073377e-05
2.513492063492063444e+00,5.385731414156434048e-06,-2.978934997058313832e-05
2.514285714285714235e+00,4.069424625641536211e-06,-2.976445080139363225e-05
2.515079365079365026e+00,2.264994558338101114e-06,-2.637367429589481920e-05
2.515873015873015817e+00,1.766398052107012517e-07,-1.968341515146522510e-05
2.516666666666666607e+00,-1.894168881604353234e-06,-1.039563123314867562e-05
2.517460317460317398e+00,-3.611248584737561872e-06,1.720759873125855888e-07
2.518253968253968189e+00,-4.691059803505600583e-06,1.028322971373759604e-05
2.519047619047618980e+00,-4.987875574396615388e-06,1.812749327835498563e-05
2.519841269841269771e+00,-4.546896892999503735e-06,2.223267560276377298e-05
2.520634920634920562e+00,-3.603455414319761015e-06,2.183102128602342829e-05
2.521428571428571352e+00,-2.522621457511530407e-06,1.707196320153301836e-05
2.522222222222222143e+00,-1.692752727318310805e-06,9.016066509962860801e-06
2.523015873015872934e+00,-1.403008230157584709e-06,-5.912390140302398329e-07
2.523809523809523725e+00,-1.743312403139216952e-06,-9.707971924934352158e-06
2.524603174603174516e+00,-2.561686748954578358e-06,-1.645132467979697308e-05
2.525396825396825307e+00,-3.497377013602200309e-06,-1.951601422889571484e-05
2.526190476190476097e+00,-4.083307454450603399e-06,-1.846024726391693848e-05
2.526984126984126888e+00,-3.887515524306253691e-06,-1.378969889039414844e-05
2.527777777777777679e+00,-2.650015981133447382e-06,-6.812097953532930319e-06
2.528571428571428470e+00,-3.737126921887647868e-07,7.073600766531459544e-07
2.529365079365079261e+00,2.656490419231451300e-06,7.000166797861059876e-06
2.530158730158730052e+00,5.930325183744770847e-06,1.073249059814187732e-05
2.530952380952380842e+00,8.828342965577489840e-06,1.130852429371207365e-05
2.531746031746031633e+00,1.076800564794288565e-05,8.968267514442771932e-06
2.532539682539682424e+00,1.134393899084638085e-05,4.671852337263736740e-06
2.533333333333333215e+00,1.042749987340626874e-05,-1.842241031047910770e-07
2.534126984126984006e+00,8.199757014598334717e-06,-4.140149208449094497e-06
2.534920634920634797e+00,5.108769149035886148e-06,-6.041603784689576362e-06
2.535714285714285587e+00,1.762288824446401566e-06,-5.313501204359309424e-06
2.536507936507936378e+00,-1.215968262243682218e-06,-2.069794070813952023e-06
2.537301587301587169e+00,-3.329635069803540673e-06,2.967394557399160688e-06
2.538095238095237960e+00,-4.316825777866160351e-06,8.710462268786154784e-06
2.538888888888888751e+00,-4.194814796296580057e-06,1.402999376309183517e-05
2.539682539682539542e+00,-3.231578789397879894e-06,1.805172769330689177e-05
2.540476190476190332e+00,-1.852971879025289057e-06,2.033134446110931032e-05
2.541269841269841123e+00,-5.135747433500226132e-07,2.085984830185840303e-05
2.542063492063491914e+00,4.287131800395771645e-07,1.991749712968325019e-05
2.542857142857142705e+00,7.960367148195056118e-07,1.785013423941050838e-05
2.543650793650793496e+00,6.096627037043717201e-07,1.486675592581122781e-05
2.544444444444444287e+00,4.597555291223660089e-08,1.094295885729399606e-05
2.545238095238095077e+00,-6.486855393521089339e-07,5.869214978499446601e-06
2.546031746031745868e+00,-1.252038803519295868e-06,-5.752235581234004460e-07
2.546825396825396659e+00,-1.638342997128593641e-06,-8.390648040563849041e-06
2.547619047619047450e+00,-1.809885914936966211e-06,-1.715780162240647039e-05
2.548412698412698241e+00,-1.882148434935697907e-06,-2.595212027739543972e-05
2.549206349206349032e+00,-2.030219928391823394e-06,-3.341706865543601370e-05
2.549999999999999822e+00,-2.414192428816505205e-06,-3.799742512126466366e-05
2.550793650793650613e+00,-3.107939358009565301e-06,-3.829220042414101379e-05
2.551587301587301404e+00,-4.056400206400362761e-06,-3.345302078291293373e-05
2.552380952380952195e+00,-5.078422640719846202e-06,-2.352645153720861557e-05
2.553174603174602986e+00,-5.916348787309485142e-06,-9.626394285143208054e-06
2.553968253968253777e+00,-6.316036044588221242e-06,6.155953802048829687e-06
2.554761904761904567e+00,-6.109716069144745946e-06,2.113079278097891836e-05
2.555555555555555358e+00,-5.273681800777930361e-06,3.260557738427333088e-05
2.556349206349206149e+00,-3.942596744327552936e-06,3.853552312137205593e-05
2.557142857142856940e+00,-2.377428044163323595e-06,3.802742728331154326e-05
2.557936507936507731e+00,-8.984212426187854402e-07,3.153638831857478927e-05
2.558730158730158522e+00,1.964282505782385267e-07,2.070299007827916727e-05
2.559523809523809312e+00,7.045271156045989753e-07,7.902050008664869232e-06
2.560317460317460103e+00,5.636223862152054360e-07,-4.343903250790657575e-06
2.561111111111110894e+00,-1.437624955150283609e-07,-1.391780771064232645e-05
2.561904761904761685e+00,-1.227014691117818997e-06,-1.949771111948354644e-05
2.562698412698412920e+00,-2.452365477415975802e-06,-2.071614434704354405e-05
2.563492063492063711e+00,-3.613048018014659897e-06,-1.808684674877126749e-05
2.564285714285714501e+00,-4.579922818715343415e-06,-1.274895775908029027e-05
2.565079365079365292e+00,-5.315711237208645164e-06,-6.114464965123967015e-06
2.565873015873016083e+00,-5.850080551061363697e-06,4.809821229808520606e-07
2.566666666666666874e+00,-6.227166676546848806e-06,6.036627671865867618e-06
2.567460317460317665e+00,-6.446514140185225005e-06,1.000541399856599770e-05
2.568253968253968456e+00,-6.420665899200180422e-06,1.227168702486907964e-05
2.569047619047619246e+00,-5.967995935860302191e-06,1.302442729932064284e-05
2.569841269841270037e+00,-4.848883446047993469e-06,1.258211762496292206e-05
2.570634920634920828e+00,-2.838942853004092395e-06,1.122879470824196071e-05
2.571428571428571619e+00,1.812059426898637236e-07,9.111996260868840392e-06
2.572222222222222410e+00,4.148783622960135642e-06,6.232848647192909880e-06
2.573015873015873201e+00,8.782211814361157311e-06,2.527428017251596765e-06
2.573809523809523991e+00,1.360081943927034684e-05,-1.997447069069269181e-06
2.574603174603174782e+00,1.799787246285594917e-05,-7.138604104451501803e-06
2.575396825396825573e+00,2.134688772827040518e-05,-1.244704828371531798e-05
2.576190476190476364e+00,2.311428947919732605e-05,-1.728564185186094168e-05
2.576984126984127155e+00,2.295554227132831461e-05,-2.096956344138425289e-05
2.577777777777777946e+00,2.077995749086525247e-05,-2.292625505052855236e-05
2.578571428571428736e+00,1.677476574756033373e-05,-2.281461635770337277e-05
2.579365079365079527e+00,1.138225919036020483e-05,-2.057829729271143303e-05
2.580158730158730318e+00,5.229890146744150778e-06,-1.644262479725743870e-05
2.580952380952381109e+00,-9.756710183769054561e-07,-1.087619047196228787e-05
2.581746031746031900e+00,-6.567434192599289732e-06,-4.528897708394099555e-06
2.582539682539682691e+00,-1.102096859288095960e-05,1.853863179653979629e-06
2.583333333333333481e+00,-1.401722671903252296e-05,7.541208067289563762e-06
2.584126984126984272e+00,-1.545551508836510526e-05,1.193741558668358930e-05
2.584920634920635063e+00,-1.542327492320251116e-05,1.468395966015418046e-05
2.585714285714285854e+00,-1.414032107427523145e-05,1.571077055545610905e-05
2.586507936507936645e+00,-1.189773773071409271e-05,1.521887610992571526e-05
2.587301587301587436e+00,-9.007951940048074759e-06,1.359891786539098305e-05
2.588095238095238226e+00,-5.775754129325076610e-06,1.130916402251353766e-05
2.588888888888889017e+00,-2.491625364460537421e-06,8.747817045229124336e-06
2.589682539682539808e+00,5.601309405452407682e-07,6.156777836983670092e-06
2.590476190476190599e+00,3.092571167875737156e-06,3.586546535554550586e-06
2.591269841269841390e+00,4.821975875057186161e-06,9.346037680152644084e-07
2.592063492063492181e+00,5.498142167327696821e-06,-1.954193303245756255e-06
2.592857142857142971e+00,4.957650742589063370e-06,-5.159313115344360528e-06
2.593650793650793762e+00,3.186180283838271484e-06,-8.573850631836248882e-06
2.594444444444444553e+00,3.678384998006362923e-07,-1.185117613826503044e-05
2.595238095238095344e+00,-3.100632607378750172e-06,-1.443025978728653225e-05
2.596031746031746135e+00,-6.645269814782302385e-06,-1.564031063975609479e-05
2.596825396825396925e+00,-9.601528160189147512e-06,-1.486751891270778280e-05
2.597619047619047716e+00,-1.133848190562205491e-05,-1.174900352050007950e-05
2.598412698412698507e+00,-1.139284878510054264e-05,-6.340737009231450074e-06
2.599206349206349298e+00,-9.577471303034907049e-06,8.035908685403292356e-07
2.600000000000000089e+00,-6.032733954034131185e-06,8.692341513643950772e-06
2.600793650793650880e+00,-1.205498297794434535e-06,1.610035049773882231e-05
2.601587301587301670e+00,4.237224724334612919e-06,2.186302544181058512e-05
2.602380952380952461e+00,9.533636899675631380e-06,2.515775839915331921e-05
2.603174603174603252e+00,1.395858109481189621e-05,2.566882702763264180e-05
2.603968253968254043e+00,1.693443589621283291e-05,2.358447447989526761e-05
2.604761904761904834e+00,1.810704826026836859e-05,1.945271901497508130e-05
2.605555555555555625e+00,1.738199643906398326e-05,1.397841110390537404e-05
2.606349206349206415e+00,1.492138677016846221e-05,7.848901627299810288e-06
2.607142857142857206e+00,1.110440566937000947e-05,1.637911954893964053e-06
2.607936507936507997e+00,6.458879116978872096e-06,-4.211223195790252076e-06
2.608730158730158788e+00,1.575787923226555413e-06,-9.353884460972497464e-06
2.609523809523809579e+00,-2.978461233109455533e-06,-1.350344159371374190e-05
2.610317460317460370e+00,-6.737798009162289792e-06,-1.641204571075135778e-05
2.611111111111111160e+00,-9.389229734669711155e-06,-1.788591698745718776e-05
2.611904761904761951e+00,-1.079543714393972860e-05,-1.782805307716768073e-05
2.612698412698412742e+00,-1.098477001637676356e-05,-1.628580840752930041e-05
2.613492063492063533e+00,-1.011309651980808084e-05,-1.347722554083790130e-05
2.614285714285714324e+00,-8.410470015831707956e-06,-9.779994907985675102e-06
2.615079365079365115e+00,-6.131167541206613937e-06,-5.683485816032850574e-06
2.615873015873015905e+00,-3.523486499311250369e-06,-1.717145466848564182e-06
2.616666666666666696e+00,-8.253182740420097309e-07,1.628057997057263790e-06
2.617460317460317487e+00,1.722324765928242185e-06,3.972965706690026729e-06
2.618253968253968278e+00,3.861961598960710983e-06,5.112013763972086760e-06
2.619047619047619069e+00,5.325854731384604962e-06,5.057703710325848483e-06
2.619841269841269860e+00,5.872121079470927434e-06,4.055485372694159012e-06
2.620634920634920650e+00,5.345667639374920018e-06,2.550084002632447460e-06
2.621428571428571441e+00,3.744438959099401083e-06,1.090023260140167471e-06
2.622222222222222232e+00,1.264834978792230957e-06,1.812213365798444838e-07
2.623015873015873023e+00,-1.696226881565540980e-06,1.311317426925208264e-07
2.623809523809523814e+00,-4.593700695532120748e-06,9.393342211226473995e-07
2.624603174603174605e+00,-6.837150424875899087e-06,2.277226809701453112e-06
2.625396825396825395e+00,-7.923902715576802607e-06,3.568229358853089627e-06
2.626190476190476186e+00,-7.569523055925170465e-06,4.148893765651383936e-06
2.626984126984126977e+00,-5.797089515914090983e-06,3.470305661977648115e-06
2.627777777777777768e+00,-2.953651250578264486e-06,1.287558947873009980e-06
2.628571428571428559e+00,3.584043355180808022e-07,-2.218327311220971069e-06
2.629365079365079350e+00,3.421551241352838388e-06,-6.431854352462372201e-06
2.630158730158730140e+00,5.578690333663357272e-06,-1.042376828442435057e-05
2.630952380952380931e+00,6.396705202145461937e-06,-1.317162848046951311e-05
2.631746031746031722e+00,5.773582218271710971e-06,-1.381213629421774932e-05
2.632539682539682513e+00,3.958790316122422654e-06,-1.184927426706673617e-05
2.633333333333333304e+00,1.478105842906833364e-06,-7.267660955688779903e-06
2.634126984126984095e+00,-1.019844351799968209e-06,-5.383260990602124099e-07
2.634920634920634885e+00,-2.952503357524495827e-06,7.468190218831510019e-06
2.635714285714285676e+00,-3.969235961586607954e-06,1.563555629951061246e-05
2.636507936507936467e+00,-4.039169175753833808e-06,2.279392321464129132e-05
2.637301587301587258e+00,-3.431858985657163204e-06,2.791798333071940252e-05
2.638095238095238049e+00,-2.600687469672299480e-06,3.028984369675832508e-05
2.638888888888888840e+00,-2.012927898892351339e-06,2.958456112130826868e-05
2.639682539682539630e+00,-1.984245710650935502e-06,2.585610978129392667e-05
2.640476190476190421e+00,-2.568144168556416523e-06,1.944251189787484194e-05
2.641269841269841212e+00,-3.531801259578379317e-06,1.084766738377180655e-05
2.642063492063492003e+00,-4.426099726751885657e-06,6.640758863354600999e-07
2.642857142857142794e+00,-4.731720620814272883e-06,-1.043282162425970450e-05
2.643650793650793585e+00,-4.038854246200635670e-06,-2.163892519653355702e-05
2.644444444444444375e+00,-2.203647182149767083e-06,-3.198035608587069850e-05
2.645238095238095166e+00,5.722774136272168057e-07,-4.033563302569367800e-05
2.646031746031745957e+00,3.770505009798321359e-06,-4.555348891386221100e-05
2.646825396825396748e+00,6.688891298868247748e-06,-4.665859068498359123e-05
2.647619047619047539e+00,8.639664673776667079e-06,-4.309848750294773895e-05
2.648412698412698330e+00,9.151043254612112299e-06,-3.495793716111246388e-05
2.649206349206349120e+00,8.110598582027325333e-06,-2.306025293668847309e-05
2.649999999999999911e+00,5.808718261174601477e-06,-8.897583899085301603e-06
2.650793650793650702e+00,2.871020153590347092e-06,5.616622621272015673e-06
2.651587301587301493e+00,9.876098089868254176e-08,1.851653444192510268e-05
2.652380952380952284e+00,-1.740270437785783468e-06,2.817340582976862414e-05
2.653174603174603075e+00,-2.114737372320933047e-06,3.360174649746374385e-05
2.653968253968253865e+00,-8.712832995339652355e-07,3.461304839449897487e-05
2.654761904761904656e+00,1.725081209525965457e-06,3.179638750827978958e-05
2.655555555555555447e+00,5.062734258279472809e-06,2.634451928427329688e-05
2.656349206349206238e+00,8.344924053616007505e-06,1.976777780766294509e-05
2.657142857142857029e+00,1.079258278380051615e-05,1.355350844605582228e-05
2.657936507936507819e+00,1.183131435894913378e-05,8.842118004779356809e-06
2.658730158730158610e+00,1.121531875980326504e-05,6.196046752580929740e-06
2.659523809523809401e+00,9.062931009088689662e-06,5.522073316863961125e-06
2.660317460317460192e+00,5.803287736217462547e-06,6.167014928992387547e-06
2.661111111111110983e+00,2.055042419673820689e-06,7.155998610455374662e-06
2.661904761904761774e+00,-1.527518259697326061e-06,7.501675351259172336e-06
2.662698412698412564e+00,-4.400861122625309238e-06,6.495306512530472382e-06
2.663492063492063355e+00,-6.237092707997639515e-06,3.899643003171457400e-06
2.664285714285714146e+00,-6.967732384038024959e-06,-5.441732343085100858e-09
2.665079365079364937e+00,-6.763869195821201733e-06,-4.531423288166120231e-06
2.665873015873015728e+00,-5.964711335070798374e-06,-8.810088708315326494e-06
2.666666666666666519e+00,-4.975778882430579159e-06,-1.207741247385395110e-05
2.667460317460317309e+00,-4.161674216183881498e-06,-1.392538863291823873e-05
2.668253968253968100e+00,-3.757322015689439432e-06,-1.443212136470775813e-05
2.669047619047618891e+00,-3.817014613621798849e-06,-1.411047496827981191e-05
2.669841269841269682e+00,-4.213328434883217751e-06,-1.368012135221641359e-05
2.670634920634920473e+00,-4.687697482464061399e-06,-1.374270016613203773e-05
2.671428571428571264e+00,-4.941088516211525580e-06,-1.448702987116345195e-05
2.672222222222222054e+00,-4.739675851561488273e-06,-1.554536611612620004e-05
2.673015873015872845e+00,-4.002483780877904159e-06,-1.606510457263446643e-05
2.673809523809523636e+00,-2.840800481476756225e-06,-1.497988976223522725e-05
2.674603174603174427e+00,-1.533500443093865894e-06,-1.139335811094159563e-05
2.675396825396825218e+00,-4.437023459488760255e-07,-4.949475110074361370e-06
2.676190476190476009e+00,9.751457915105424901e-08,3.937569473602945913e-06
2.676984126984126799e+00,-9.684251261461979115e-08,1.408223744918276455e-05
2.677777777777777590e+00,-9.977484114440792081e-07,2.376935293541752357e-05
2.678571428571428381e+00,-2.351810788442845170e-06,3.116567383984207622e-05
2.679365079365079172e+00,-3.741526006164258943e-06,3.476858255773098056e-05
2.680158730158729963e+00,-4.699786739650168675e-06,3.375663153516074845e-05
2.680952380952380754e+00,-4.848105130672996458e-06,2.815666691608951187e-05
2.681746031746031544e+00,-4.018965614869010878e-06,1.881122065974996982e-05
2.682539682539682335e+00,-2.324088060965615235e-06,7.182756351031013928e-06
2.683333333333333126e+00,-1.431147525110759850e-07,-4.946203210183327329e-06
2.684126984126983917e+00,1.970867497370992587e-06,-1.581644395215032979e-05
2.684920634920634708e+00,3.446750110370972319e-06,-2.401903076551531327e-05
2.685714285714285499e+00,3.867507097367315459e-06,-2.874297989677064227e-05
2.686507936507936289e+00,3.104469837530449138e-06,-2.988633251680900398e-05
2.687301587301587080e+00,1.366161493739077448e-06,-2.800078187869939868e-05
2.688095238095238315e+00,-8.612757559901548872e-07,-2.408497875421842144e-05
2.688888888888889106e+00,-2.968151844106589387e-06,-1.928526552464692958e-05
2.689682539682539897e+00,-4.419291751896135892e-06,-1.458746911933458478e-05
2.690476190476190688e+00,-4.925636046631720987e-06,-1.058292449061779750e-05
2.691269841269841478e+00,-4.527032241443570385e-06,-7.369662732357662892e-06
2.692063492063492269e+00,-3.558140008432988148e-06,-4.614393498191594775e-06
2.692857142857143060e+00,-2.514173619758491871e-06,-1.760203342089764898e-06
2.693650793650793851e+00,-1.867643115760981954e-06,1.677699727685176608e-06
2.694444444444444642e+00,-1.898055919221465403e-06,5.824719157055000642e-06
2.695238095238095433e+00,-2.585796448335624218e-06,1.028181741468541846e-05
2.696031746031746223e+00,-3.600395415600330648e-06,1.416853739929134777e-05
2.696825396825397014e+00,-4.389316702790476848e-06,1.638464264217124306e-05
2.697619047619047805e+00,-4.346616632222003318e-06,1.601020994608581959e-05
2.698412698412698596e+00,-3.014317301021806928e-06,1.270277655561802862e-05
2.699206349206349387e+00,-2.532923761176300098e-07,6.944697676090224483e-06
2.700000000000000178e+00,3.674596765629304352e-06,4.141780578871989846e-08
2.700793650793650968e+00,8.143413980495450884e-06,-6.150055218253337144e-06
2.701587301587301759e+00,1.230801892485912453e-05,-9.699841589287664097e-06
2.702380952380952550e+00,1.530967149692915203e-05,-9.161226473530649468e-06
2.703174603174603341e+00,1.648183972442623460e-05,-4.038426349490000013e-06
2.703968253968254132e+00,1.550732482787409408e-05,4.989144484409895568e-06
2.704761904761904923e+00,1.249917885958581834e-05,1.617463462298312628e-05
2.705555555555555713e+00,7.993470620808998986e-06,2.712192534443288034e-05
2.706349206349206504e+00,2.851668246779594256e-06,3.538295083534047033e-05
2.707142857142857295e+00,-1.915890740014272105e-06,3.904576473945680135e-05
2.707936507936508086e+00,-5.373076074996443300e-06,3.714481910543806072e-05
2.708730158730158877e+00,-6.875990178480791625e-06,2.980419373615117692e-05
2.709523809523809668e+00,-6.228739561827804463e-06,1.811893897380944342e-05
2.710317460317460458e+00,-3.733125934898020670e-06,3.848674074389697697e-06
2.711111111111111249e+00,-1.168820195092260601e-07,-1.097404884546824186e-05
2.711904761904762040e+00,3.642175650102988635e-06,-2.442166988916324001e-05
2.712698412698412831e+00,6.553378174714120385e-06,-3.495841093484269255e-05
2.713492063492063622e+00,7.856653467723291137e-06,-4.159201143034821547e-05
2.714285714285714413e+00,7.215569488186261129e-06,-4.388936448850037561e-05
2.715079365079365203e+00,4.810869790437502540e-06,-4.189691685641328732e-05
2.715873015873015994e+00,1.304490692337418617e-06,-3.602987368877173070e-05
2.716666666666666785e+00,-2.323623691645546831e-06,-2.698575250152795776e-05
2.717460317460317576e+00,-5.025845222018451925e-06,-1.570118152982472880e-05
2.718253968253968367e+00,-5.957047712641768231e-06,-3.326923563668347426e-06
2.719047619047619158e+00,-4.693372577519344464e-06,8.828105644768838206e-06
2.719841269841269948e+00,-1.347729806777733314e-06,1.942147761929316119e-05
2.720634920634920739e+00,3.438406428123797256e-06,2.726710277603172912e-05
2.721428571428571530e+00,8.618938594436457231e-06,3.154202825597366886e-05
2.722222222222222321e+00,1.295705899983789942e-05,3.194172201297142155e-05
2.723015873015873112e+00,1.529173641041275174e-05,2.873063489882475514e-05
2.723809523809523903e+00,1.480658240076048856e-05,2.267257483683063457e-05
2.724603174603174693e+00,1.124010496204747044e-05,1.486267901425549512e-05
2.725396825396825484e+00,4.979806757492929980e-06,6.505213784150163712e-06
2.726190476190476275e+00,-2.992931470969140991e-06,-1.311704797242850921e-06
2.726984126984127066e+00,-1.130163144776568366e-05,-7.797335127626868674e-06
2.727777777777777857e+00,-1.847317825666145005e-05,-1.256002151956574839e-05
2.728571428571428648e+00,-2.326514694978984232e-05,-1.561197742953711540e-05
2.729365079365079438e+00,-2.494124135721166268e-05,-1.728141142671129590e-05
2.730158730158730229e+00,-2.342335685308844648e-05,-1.805655697685713365e-05
2.730952380952381020e+00,-1.927841101146616476e-05,-1.840040443830175744e-05
2.731746031746031811e+00,-1.354412445493913638e-05,-1.858170707175173182e-05
2.732539682539682602e+00,-7.446597194693457167e-06,-1.856760178820867507e-05
2.733333333333333393e+00,-2.094090759989815207e-06,-1.801432896679447274e-05
2.734126984126984183e+00,1.767490724606346880e-06,-1.637120957590701618e-05
2.734920634920634974e+00,3.879346601943757570e-06,-1.307901420148195815e-05
2.735714285714285765e+00,4.458016916945846416e-06,-7.806706142445878763e-06
2.736507936507936556e+00,4.068775415992751605e-06,-6.480209240446506720e-07
2.737301587301587347e+00,3.430355014109005397e-06,7.793855056452206806e-06
2.738095238095238138e+00,3.205027166954131254e-06,1.646959460177724002e-05
2.738888888888888928e+00,3.822938642924666537e-06,2.408306860039167004e-05
2.739682539682539719e+00,5.377195222475177629e-06,2.937466853833361680e-05
2.740476190476190510e+00,7.609412031994907601e-06,3.141540064836423324e-05
2.741269841269841301e+00,9.985064899779179845e-06,2.983608016820993430e-05
2.742063492063492092e+00,1.183692068296267197e-05,2.492973763859284079e-05
2.742857142857142883e+00,1.253901197717531239e-05,1.759566166782232236e-05
2.743650793650793673e+00,1.166793262244727203e-05,9.136971611544906008e-06
2.744444444444444464e+00,9.113503259528589359e-06,9.672480014128609947e-07
2.745238095238095255e+00,5.114539150822275701e-06,-5.691713240709537296e-06
2.746031746031746046e+00,2.135086261975730847e-07,-1.004098445391848729e-05
2.746825396825396837e+00,-4.857765437189593270e-06,-1.181438675549170288e-05
2.747619047619047628e+00,-9.333475665989922118e-06,-1.126054674227095944e-05
2.748412698412698418e+00,-1.257163092271063543e-05,-9.025216514818266842e-06
2.749206349206349209e+00,-1.417390244377547096e-05,-5.974678770408852229e-06
2.750000000000000000e+00,-1.403888106508818014e-05,-2.998186760891069113e-06
2.750793650793650791e+00,-1.234359790404242691e-05,-8.240754012533647048e-07
2.751587301587301582e+00,-9.472240030816281699e-06,1.152562196167354987e-07
2.752380952380952372e+00,-5.922853032296412782e-06,-2.606252232672696604e-07
2.753174603174603163e+00,-2.218734034430513427e-06,-1.713976651425697293e-06
2.753968253968253954e+00,1.161889007921797033e-06,-3.794449480182192512e-06
2.754761904761904745e+00,3.836303464487402961e-06,-5.975369580299200600e-06
2.755555555555555536e+00,5.551267499407131102e-06,-7.776584286318834392e-06
2.756349206349206327e+00,6.202160024989450876e-06,-8.847448996812086539e-06
2.757142857142857117e+00,5.835268515803748809e-06,-9.007359592814672371e-06
2.757936507936507908e+00,4.630281835422818327e-06,-8.253879259906818347e-06
2.758730158730158699e+00,2.863540391569905227e-06,-6.746605234797573902e-06
2.759523809523809490e+00,8.579778417254712923e-07,-4.769369999337776133e-06
2.760317460317460281e+00,-1.070560195461840789e-06,-2.673602367316420085e-06
2.761111111111111072e+00,-2.660406681653737873e-06,-8.101699337587855374e-07
2.761904761904761862e+00,-3.736329417941879464e-06,5.400137120079576577e-07
2.762698412698412653e+00,-4.221857915459067387e-06,1.226219000197889876e-06
2.763492063492063444e+00,-4.130541646819778149e-06,1.268893979121049806e-06
2.764285714285714235e+00,-3.539956734273041448e-06,8.711248076836347875e-07
2.765079365079365026e+00,-2.557417018099972727e-06,3.913975019592160670e-07
2.765873015873015817e+00,-1.289445356651920904e-06,2.736851134471165237e-07
2.766666666666666607e+00,1.741685854243384722e-07,9.413129075538040242e-07
2.767460317460317398e+00,1.757137978702518533e-06,2.674565027303080736e-06
2.768253968253968189e+00,3.378891615428867318e-06,5.502699238131093432e-06
2.769047619047618980e+00,4.934478148536755326e-06,9.142548827596450438e-06
2.769841269841269771e+00,6.286004495911318023e-06,1.300644419350794640e-05
2.770634920634920562e+00,7.273920360159789474e-06,1.628590410566902407e-05
2.771428571428571352e+00,7.746926346097763656e-06,1.810046553301101140e-05
2.772222222222222143e+00,7.600755151157687652e-06,1.768681026459043170e-05
2.773015873015872934e+00,6.812315680672989808e-06,1.459279857167488903e-05
2.773809523809523725e+00,5.457399747349446487e-06,8.834351777907309029e-06
2.774603174603174516e+00,3.705428078492406216e-06,9.724677156666427707e-07
2.775396825396825307e+00,1.791270412312980299e-06,-7.922368506776535720e-06
2.776190476190476097e+00,-2.920289580420421830e-08,-1.642737993325687671e-05
2.776984126984126888e+00,-1.527738274388503235e-06,-2.302326830094165083e-05
2.777777777777777679e+00,-2.542666545585910375e-06,-2.639925722801085990e-05
2.778571428571428470e+00,-2.998325492144612547e-06,-2.574781671355426125e-05
2.779365079365079261e+00,-2.902827189741853294e-06,-2.099110304783076929e-05
2.780158730158730052e+00,-2.329103024827078362e-06,-1.288481049826566049e-05
2.780952380952380842e+00,-1.387403375275436807e-06,-2.952375617813166300e-06
2.781746031746031633e+00,-1.974571358241231471e-07,6.773313871219727163e-06
2.782539682539682424e+00,1.132682905977789958e-06,1.417500598247188683e-05
2.783333333333333215e+00,2.515752315185155518e-06,1.755618389801251954e-05
2.784126984126984006e+00,3.879878583040501548e-06,1.609269520399053701e-05
2.784920634920634797e+00,5.150972171312171723e-06,1.009217274128501539e-05
2.785714285714285587e+00,6.231059674040535166e-06,9.691762870952592622e-07
2.786507936507936378e+00,6.985030508167598342e-06,-9.072368567868687938e-06
2.787301587301587169e+00,7.247516858835012300e-06,-1.757005704883797707e-05
2.788095238095237960e+00,6.854084856107732706e-06,-2.240747500683328597e-05
2.788888888888888751e+00,5.689295720179737462e-06,-2.233526647836541764e-05
2.789682539682539542e+00,3.734816128616385311e-06,-1.727647573481782382e-05
2.790476190476190332e+00,1.098965226842050746e-06,-8.339712835597884173e-06
2.791269841269841123e+00,-1.984581643048480385e-06,2.463238290499137210e-06
2.792063492063491914e+00,-5.190475116746817567e-06,1.272398572700221167e-05
2.792857142857142705e+00,-8.158759958270260621e-06,2.023719845737301869e-05
2.793650793650793496e+00,-1.055914696944281089e-05,2.353441112645459523e-05
2.794444444444444287e+00,-1.214427610245341827e-05,2.220929217694673350e-05
2.795238095238095077e+00,-1.277786509024505794e-05,1.695252365487445346e-05
2.796031746031745868e+00,-1.243333849456678714e-05,9.301873025826433656e-06
2.796825396825396659e+00,-1.117045753100229485e-05,1.195577117865973173e-06
2.797619047619047450e+00,-9.105815963654770564e-06,-5.534106522600658834e-06
2.798412698412698241e+00,-6.392855673024115722e-06,-9.587380147075415555e-06
2.799206349206349032e+00,-3.218280770059950110e-06,-1.044033394482717099e-05
2.799999999999999822e+00,1.898839335196642455e-07,-8.362585920835430235e-06
2.800793650793650613e+00,3.554632663892602293e-06,-4.232305714926722960e-06
2.801587301587301404e+00,6.554460001399717124e-06,7.738688238330806197e-07
2.802380952380952195e+00,8.846303354080500741e-06,5.511455365049353495e-06
2.803174603174602986e+00,1.010742744286645479e-05,9.124451260696591704e-06
2.803968253968253777e+00,1.009231880051295842e-05,1.117328046928197262e-05
2.804761904761904567e+00,8.695819992732576269e-06,1.163068496165639999e-05
2.805555555555555358e+00,6.007406968175204680e-06,1.077956697110492349e-05
2.806349206349206149e+00,2.336942204086741906e-06,9.063275768702006810e-06
2.807142857142856940e+00,-1.805410627079186585e-06,6.938644581584010351e-06
2.807936507936507731e+00,-5.781331110749439093e-06,4.771558258318205893e-06
2.808730158730158522e+00,-8.938590233095208934e-06,2.796446707415299986e-06
2.809523809523809312e+00,-1.074276715025254831e-05,1.137306006580843819e-06
2.810317460317460103e+00,-1.089417459495969657e-05,-1.348713732259552968e-07
2.811111111111110894e+00,-9.399479043212610206e-06,-9.464721600042409661e-07
2.811904761904761685e+00,-6.577548741592459536e-06,-1.202912897025123040e-06
2.812698412698412920e+00,-2.994229671212575851e-06,-8.236936582131652849e-07
2.813492063492063711e+00,6.622432124275184240e-07,1.821179238941265781e-07
2.814285714285714501e+00,3.737219412066971601e-06,1.638029761658320032e-06
2.815079365079365292e+00,5.757149875095657213e-06,3.165002616118071250e-06
2.815873015873016083e+00,6.527315937386456094e-06,4.218643897073065946e-06
2.816666666666666874e+00,6.151668457203603998e-06,4.198758225203439432e-06
2.817460317460317665e+00,4.971485847250143838e-06,2.602802693745882617e-06
2.818253968253968456e+00,3.445500727277526188e-06,-8.211895121590944265e-07
2.819047619047619246e+00,2.010508668514161870e-06,-5.966997892755778890e-06
2.819841269841270037e+00,9.636377905212637005e-07,-1.234012755181415993e-05
2.820634920634920828e+00,3.974251917197987567e-07,-1.911625045824502959e-05
2.821428571428571619e+00,2.018389968918482929e-07,-2.527479557521154348e-05
2.822222222222222410e+00,1.284085083179337214e-07,-2.977525830034055733e-05
2.823015873015873201e+00,-1.056531573592458638e-07,-3.173844192582829532e-05
2.823809523809523991e+00,-7.073564161294236414e-07,-3.060343396434091456e-05
2.824603174603174782e+00,-1.727910745185199222e-06,-2.624347886595679514e-05
2.825396825396825573e+00,-3.038313967238896899e-06,-1.902815411528145791e-05
2.826190476190476364e+00,-4.366292916768221773e-06,-9.813670240612273736e-06
2.826984126984127155e+00,-5.379624729662622381e-06,1.607049923833469216e-07
2.827777777777777946e+00,-5.787559816214832330e-06,9.478681337166463088e-06
2.828571428571428736e+00,-5.429670058326206251e-06,1.682920498018594281e-05
2.829365079365079527e+00,-4.328033968772192800e-06,2.129772228159335003e-05
2.830158730158730318e+00,-2.689506870520907450e-06,2.257829152954692872e-05
2.830952380952381109e+00,-8.562273973825203094e-07,2.103427243361665670e-05
2.831746031746031900e+00,7.860103027648105779e-07,1.758185599841676478e-05
2.832539682539682691e+00,1.919678367663024357e-06,1.342569048549293607e-05
2.833333333333333481e+00,2.395275128607072484e-06,9.718692095712248437e-06
2.834126984126984272e+00,2.283705654093720613e-06,7.238888706705159755e-06
2.834920634920635063e+00,1.856916681129895690e-06,6.173154581246545800e-06
2.835714285714285854e+00,1.496172860261487523e-06,6.073051965445112065e-06
2.836507936507936645e+00,1.555210556565618234e-06,6.005956235131376851e-06
2.837301587301587436e+00,2.225023560219579102e-06,4.871876397463860368e-06
2.838095238095238226e+00,3.449124842193084812e-06,1.804092848128096910e-06
2.838888888888889017e+00,4.921617561253107938e-06,-3.463299459363261295e-06
2.839682539682539808e+00,6.171990100167651146e-06,-1.037973106316361081e-05
2.840476190476190599e+00,6.710968756395573227e-06,-1.759770985849321210e-05
2.841269841269841390e+00,6.191084970772800049e-06,-2.324801144481546448e-05
2.842063492063492181e+00,4.530257863268726913e-06,-2.541696604463606244e-05
2.842857142857142971e+00,1.958530949316503499e-06,-2.270495214785719611e-05
2.843650793650793762e+00,-1.026354284105112558e-06,-1.470420826679149457e-05
2.844444444444444553e+00,-3.779115836863853126e-06,-2.238521794895788911e-06
2.845238095238095344e+00,-5.665457756954160462e-06,1.273389248498828206e-05
2.846031746031746135e+00,-6.214743111197735796e-06,2.755064679373166360e-05
2.846825396825396925e+00,-5.229784699974453776e-06,3.949086054178434560e-05
2.847619047619047716e+00,-2.831964825040212401e-06,4.643778658784085135e-05
2.848412698412698507e+00,5.634626053649019700e-07,4.735189075622747376e-05
2.849206349206349298e+00,4.333715542229060108e-06,4.242238519932580018e-05
2.850000000000000089e+00,7.779042574624750366e-06,3.288848985503364629e-05
2.850793650793650880e+00,1.027228715758968294e-05,2.063305632494907271e-05
2.851587301587301670e+00,1.139502589854905765e-05,7.702789011702976593e-06
2.852380952380952461e+00,1.102546448977035188e-05,-4.106134311166857030e-06
2.853174603174603252e+00,9.351811775963533033e-06,-1.351428515430067433e-05
2.853968253968254043e+00,6.805341617642802682e-06,-1.985720016952632964e-05
2.854761904761904834e+00,3.933028828503976389e-06,-2.304311977778061935e-05
2.855555555555555625e+00,1.249742951134423206e-06,-2.342159116635433830e-05
2.856349206349206415e+00,-8.839873742329833670e-07,-2.161663939650061429e-05
2.857142857142857206e+00,-2.322996132256595906e-06,-1.836676969093343202e-05
2.857936507936507997e+00,-3.124402757321198117e-06,-1.439754943422312391e-05
2.858730158730158788e+00,-3.474313062267953873e-06,-1.033727199871128022e-05
2.859523809523809579e+00,-3.588872668253261599e-06,-6.675110769404411055e-06
2.860317460317460370e+00,-3.630523332963284987e-06,-3.754104759161374372e-06
2.861111111111111160e+00,-3.669481680895370801e-06,-1.786311902363845679e-06
2.861904761904761951e+00,-3.697701120692636222e-06,-8.734036774733224045e-07
2.862698412698412742e+00,-3.678495086492517239e-06,-1.015276093236235621e-06
2.863492063492063533e+00,-3.600081965748389358e-06,-2.096832564225992149e-06
2.864285714285714324e+00,-3.502053076685033592e-06,-3.861008422060811270e-06
2.865079365079365115e+00,-3.460696069764866298e-06,-5.897416916587455909e-06
2.865873015873015905e+00,-3.544184225093596019e-06,-7.684039645961606184e-06
2.866666666666666696e+00,-3.766506168977247526e-06,-8.699409269673214737e-06
2.867460317460317487e+00,-4.067707400763918460e-06,-8.580434996669387629e-06
2.868253968253968278e+00,-4.330248861808054778e-06,-7.264641654114182991e-06
2.869047619047619069e+00,-4.421451783994979155e-06,-5.052057085050401376e-06
2.869841269841269860e+00,-4.242098321101370103e-06,-2.553405714200741471e-06
2.870634920634920650e+00,-3.762728364273631419e-06,-5.370854135440788394e-07
2.871428571428571441e+00,-3.036688956676360296e-06,2.768631852246543317e-07
2.872222222222222232e+00,-2.187475277597655665e-06,-5.847117464903374537e-07
2.873015873015873023e+00,-1.375125900841762823e-06,-3.208202271971307001e-06
2.873809523809523814e+00,-7.518050789744501476e-07,-7.242690270481953898e-06
2.874603174603174605e+00,-4.195627917145115118e-07,-1.194638664338798304e-05
2.875396825396825395e+00,-4.025334686971587513e-07,-1.631574838298742260e-05
2.876190476190476186e+00,-6.410728108213695810e-07,-1.926613751673022986e-05
2.876984126984126977e+00,-1.008100207005915404e-06,-1.982853127602762040e-05
2.877777777777777768e+00,-1.341611547663723431e-06,-1.733625043333469873e-05
2.878571428571428559e+00,-1.484616725934555109e-06,-1.158639028692250979e-05
2.879365079365079350e+00,-1.324108672172840319e-06,-2.956626296616162983e-06
2.880158730158730140e+00,-8.215210489329730195e-07,7.560312070434461210e-06
2.880952380952380931e+00,-2.736345441086694716e-08,1.845416408563030296e-05
2.881746031746031722e+00,9.261095404481644953e-07,2.795711944013887419e-05
2.882539682539682513e+00,1.855965939335132716e-06,3.443829024710519062e-05
2.883333333333333304e+00,2.577187339053578215e-06,3.682781408437003635e-05
2.884126984126984095e+00,2.954029767106797399e-06,3.491699021416913373e-05
2.884920634920634885e+00,2.935881668256253425e-06,2.940572748501343650e-05
2.885714285714285676e+00,2.564596531585345286e-06,2.166933562152037441e-05
2.886507936507936467e+00,1.952207509409956481e-06,1.333754051972091897e-05
2.887301587301587258e+00,1.239874619685234961e-06,5.846850560606629004e-06
2.888095238095238049e+00,5.548568261389214046e-07,1.129345048242309386e-07
2.888888888888888840e+00,-1.945832077677586962e-08,-3.599819304687754298e-06
2.889682539682539630e+00,-4.526333545285749107e-07,-5.609674775489654846e-06
2.890476190476190421e+00,-7.563609623808843791e-07,-6.599192964473199779e-06
2.891269841269841212e+00,-9.617939243045951971e-07,-7.322477776130326653e-06
2.892063492063492003e+00,-1.096164240414756742e-06,-8.324231844827138433e-06
2.892857142857142794e+00,-1.168228610907876501e-06,-9.754809707306546232e-06
2.893650793650793585e+00,-1.166768020495021118e-06,-1.134103827293160606e-05
2.894444444444444375e+00,-1.069923245023403580e-06,-1.252001955209385313e-05
2.895238095238095166e+00,-8.586727011626659041e-07,-1.267962227437607228e-05
2.896031746031745957e+00,-5.273141107112240865e-07,-1.140972408292509731e-05
2.896825396825396748e+00,-8.717718968024007423e-08,-8.674044117113212022e-06
2.897619047619047539e+00,4.355522201002958068e-07,-4.853282290742825555e-06
2.898412698412698330e+00,1.004218058675623891e-06,-6.590513485029895334e-07
2.899206349206349120e+00,1.575168766275203717e-06,3.045276728426488452e-06
2.899999999999999911e+00,2.100098511536853099e-06,5.461980342803155390e-06
2.900793650793650702e+00,2.529624741057887246e-06,6.056774401823341404e-06
2.901587301587301493e+00,2.820450221410326570e-06,4.688099529223281634e-06
2.902380952380952284e+00,2.945898580820256931e-06,1.638206826273223001e-06
2.903174603174603075e+00,2.906782556757833278e-06,-2.456397652469038835e-06
2.903968253968253865e+00,2.738245447859932518e-06,-6.749485577120520095e-06
2.904761904761904656e+00,2.508400110166631462e-06,-1.036224260125272618e-05
2.905555555555555447e+00,2.306006338159351400e-06,-1.255247259691392547e-05
2.906349206349206238e+00,2.217351333868954694e-06,-1.284930479773389845e-05
2.907142857142857029e+00,2.296584263902214544e-06,-1.113878255487486985e-05
2.907936507936507819e+00,2.537648460399594663e-06,-7.688233518588089225e-06
2.908730158730158610e+00,2.858130234184953442e-06,-3.096425702787749078e-06
2.909523809523809401e+00,3.104421367855031887e-06,1.835131048143368994e-06
2.910317460317460192e+00,3.082569881962966604e-06,6.290169622289738269e-06
2.911111111111110983e+00,2.610741149885657573e-06,9.634331299773528652e-06
2.911904761904761774e+00,1.580545802691397069e-06,1.155446273096662149e-05
2.912698412698412564e+00,9.741548990701721280e-09,1.209235414186528992e-05
2.913492063492063355e+00,-1.930097876952593452e-06,1.156917461983879011e-05
2.914285714285714146e+00,-3.921848200264705225e-06,1.043987056285242890e-05
2.915079365079364937e+00,-5.550509566930237652e-06,9.134611336957897918e-06
2.915873015873015728e+00,-6.385471997490913252e-06,7.935559429016548471e-06
2.916666666666666519e+00,-6.083538415895149904e-06,6.915941191239943424e-06
2.917460317460317309e+00,-4.490537968629980029e-06,5.947887152191298398e-06
2.918253968253968100e+00,-1.714728580155915882e-06,4.770518992194979117e-06
2.919047619047618891e+00,1.852548257787294763e-06,3.098364575513928120e-06
2.919841269841269682e+00,5.582710015484127976e-06,7.401765120031021004e-07
2.920634920634920473e+00,8.718659466300744324e-06,-2.307054984209389168e-06
2.921428571428571264e+00,1.052504292600189491e-05,-5.817686624039309085e-06
2.922222222222222054e+00,1.044750915661258788e-05,-9.360391633522200706e-06
2.923015873015872845e+00,8.246140592465367092e-06,-1.237292795273505298e-05
2.923809523809523636e+00,4.072199483428136700e-06,-1.426592356112781758e-05
2.924603174603174427e+00,-1.534328851663522005e-06,-1.453407919718077560e-05
2.925396825396825218e+00,-7.734103402946509816e-06,-1.285834525590875003e-05
2.926190476190476009e+00,-1.355008077476449722e-05,-9.184329990826731305e-06
2.926984126984126799e+00,-1.806354012815438766e-05,-3.761601340273765605e-06
2.927777777777777590e+00,-2.059412278306693345e-05,2.868377173799831641e-06
2.928571428571428381e+00,-2.081915481125882887e-05,9.937819285799021776e-06
2.929365079365079172e+00,-1.880757845590294350e-05,1.655952047002453298e-05
2.930158730158729963e+00,-1.496776463614747364e-05,2.185246908451479579e-05
2.930952380952380754e+00,-9.928594503198823380e-06,2.506379989704430279e-05
2.931746031746031544e+00,-4.388371033772408123e-06,2.567295099878405944e-05
2.932539682539682335e+00,1.024713420801598616e-06,2.346976427310566360e-05
2.933333333333333126e+00,5.839835750169458955e-06,1.859705719585655280e-05
2.934126984126983917e+00,9.757699923164587412e-06,1.154656395346889596e-05
2.934920634920634708e+00,1.260155892540500769e-05,3.103166183599759080e-06
2.935714285714285499e+00,1.424190332698246119e-05,-5.755241262447740282e-06
2.936507936507936289e+00,1.454134184538670450e-05,-1.398467432392096309e-05
2.937301587301587080e+00,1.335491205708203581e-05,-2.060988788361719311e-05
2.938095238095238315e+00,1.059440894626154916e-05,-2.485464445666217174e-05
2.938888888888889106e+00,6.334835136426461902e-06,-2.626010821566186412e-05
2.939682539682539897e+00,9.189644041766809670e-07,-2.477787335999632250e-05
2.940476190476190688e+00,-4.990159360927061526e-06,-2.080820027362322792e-05
2.941269841269841478e+00,-1.044813734455099060e-05,-1.514705457442477851e-05
2.942063492063492269e+00,-1.437389415280244142e-05,-8.826742792373207721e-06
2.942857142857143060e+00,-1.577991078732578979e-05,-2.879560034590689863e-06
2.943650793650793851e+00,-1.403242136443061344e-05,1.906148013838722757e-06
2.944444444444444642e+00,-9.063858543432823476e-06,5.157754595458389373e-06
2.945238095238095433e+00,-1.463820314794340790e-06,6.960442804817601242e-06
2.946031746031746223e+00,7.592605392833918361e-06,7.752979356948131628e-06
2.946825396825397014e+00,1.656964066474996366e-05,8.104703646466660498e-06
2.947619047619047805e+00,2.389028038041688185e-05,8.440917799087022284e-06
2.948412698412698596e+00,2.826621069522481020e-05,8.814180797804999721e-06
2.949206349206349387e+00,2.896072902441808086e-05,8.826110953301442405e-06
2.950000000000000178e+00,2.593484607684438102e-05,7.765827222272624441e-06
2.950793650793650968e+00,1.985485632109628700e-05,4.942116641251325042e-06
2.951587301587301759e+00,1.196054692133791229e-05,8.434356769844157873e-08
2.952380952380952550e+00,3.814216603404039828e-06,-6.364721715203819335e-06
2.953174603174603341e+00,-3.023657393558958184e-06,-1.320535162913746540e-05
2.953968253968254132e+00,-7.324630891927967441e-06,-1.872445734696300373e-05
2.954761904761904923e+00,-8.455629589330562718e-06,-2.115062429930494937e-05
2.955555555555555713e+00,-6.516859141072467200e-06,-1.917445058372459430e-05
2.956349206349206504e+00,-2.323243385637821091e-06,-1.238147580166515269e-05
2.957142857142857295e+00,2.769160787528972338e-06,-1.485144263236408512e-06
2.957936507936508086e+00,7.159507113474163631e-06,1.170091221692657052e-05
2.958730158730158877e+00,9.364195926941746372e-06,2.456684951572947508e-05
2.959523809523809668e+00,8.370549533010530050e-06,3.425281584294013093e-05
2.960317460317460458e+00,3.900994124444077217e-06,3.833739452467116768e-05
2.961111111111111249e+00,-3.484071407416143434e-06,3.550437041207756103e-05
2.961904761904762040e+00,-1.248374897381971031e-05,2.599913891506050150e-05
2.962698412698412831e+00,-2.134098547263033071e-05,1.172177253893874487e-05
2.963492063492063622e+00,-2.824645037496732462e-05,-4.107881201234634880e-06
2.964285714285714413e+00,-3.176069573958564764e-05,-1.766343945178622637e-05
2.965079365079365203e+00,-3.114969603354869143e-05,-2.544691950494640332e-05
2.965873015873015994e+00,-2.655208004018603287e-05,-2.521810322796667970e-05
2.966666666666666785e+00,-1.893658869341004913e-05,-1.667371916138579181e-05
2.967460317460317576e+00,-9.857379910842340410e-06,-1.673572897921823413e-06
2.968253968253968367e+00,-1.067061407296109585e-06,1.608839889207458273e-05
2.969047619047619158e+00,5.908059910575855213e-06,3.192303904997004379e-05
2.969841269841269948e+00,1.010844283829404350e-05,4.129527875614695981e-05
2.970634920634920739e+00,1.130091556954226850e-05,4.098011824070769532e-05
2.971428571428571530e+00,9.924806028872905239e-06,2.991177419745573248e-05
2.972222222222222321e+00,6.866810819505631676e-06,9.500267736377011164e-06
2.973015873015873112e+00,3.158774222690544058e-06,-1.666140771586048169e-05
2.973809523809523903e+00,-2.977363498455122142e-07,-4.361791594234030398e-05
2.974603174603174693e+00,-2.905304613281327654e-06,-6.619093156548664432e-05
2.975396825396825484e+00,-4.416434068235492201e-06,-8.015332035886972497e-05
2.976190476190476275e+00,-4.870140524463860872e-06,-8.314455935591580880e-05
2.976984126984127066e+00,-4.468046789841376080e-06,-7.510046229516477803e-05
2.977777777777777857e+00,-3.448182135014333458e-06,-5.810922589858065273e-05
2.978571428571428648e+00,-2.003728115792016888e-06,-3.577636278365991531e-05
2.979365079365079438e+00,-2.673951977611809896e-07,-1.231494419311432673e-05
2.980158730158730229e+00,1.648691047543891093e-06,8.377276159729964364e-06
2.980952380952381020e+00,3.590313436528195125e-06,2.343733727580680042e-05
2.981746031746031811e+00,5.315648395980403245e-06,3.143237176271385460e-05
2.982539682539682602e+00,6.497772269304562510e-06,3.241129164625154718e-05
2.983333333333333393e+00,6.784589831668899671e-06,2.767261815169196182e-05
2.984126984126984183e+00,5.900559124748488548e-06,1.935392455720176614e-05
2.984920634920634974e+00,3.756874677809940867e-06,9.957086721681979613e-06
2.985714285714285765e+00,5.324603872891637792e-07,1.899435781462889810e-06
2.986507936507936556e+00,-3.304791967425681361e-06,-2.859128427681186190e-06
2.987301587301587347e+00,-7.053340949489623242e-06,-3.093983823702906287e-06
2.988095238095238138e+00,-9.907709305153691802e-06,1.513596361613855400e-06
2.988888888888888928e+00,-1.113718938085747928e-05,1.033496116155218012e-05
2.989682539682539719e+00,-1.026741830503651894e-05,2.190895295150449188e-05
2.990476190476190510e+00,-7.211888911058826062e-06,3.422476294810134617e-05
2.991269841269841301e+00,-2.314054058695294620e-06,4.514354843438221599e-05
2.992063492063492092e+00,3.710538485320258117e-06,5.287199734755461628e-05
2.992857142857142883e+00,9.912795109514523523e-06,5.635280004748876014e-05
2.993650793650793673e+00,1.529240474560894137e-05,5.543754489661427095e-05
2.994444444444444464e+00,1.898503153293462119e-05,5.077901696035763430e-05
2.995238095238095255e+00,2.042209112191478793e-05,4.349444175300951895e-05
2.996031746031746046e+00,1.943791029147312044e-05,3.474355951105053726e-05
2.996825396825396837e+00,1.630522407060693176e-05,2.538571096864030596e-05
2.997619047619047628e+00,1.168886316267255179e-05,1.582893031409591275e-05
2.998412698412698418e+00,6.520908680903738249e-06,6.098168985313419080e-06
2.999206349206349209e+00,1.816014871288426479e-06,-3.932026685727872277e-06
3.000000000000000000e+00,-1.540435066692265037e-06,-1.424995057753148915e-05
3.000793650793650791e+00,-2.988355852925193330e-06,-2.449172597795657311e-05
3.001587301587301582e+00,-2.426620190169303630e-06,-3.390129833502757319e-05
3.002380952380952372e+00,-2.456698829822936246e-07,-4.149983955629692341e-05
3.003174603174603163e+00,2.758560238997858721e-06,-4.640578540075363656e-05
3.003968253968253954e+00,5.577393811486068007e-06,-4.816979329669201430e-05
3.004761904761904745e+00,7.246803127395626883e-06,-4.697272722390615862e-05
3.005555555555555536e+00,7.104998483362377057e-06,-4.359221607098332906e-05
3.006349206349206327e+00,4.978518182054376078e-06,-3.914354716670209874e-05
3.007142857142857117e+00,1.239521977268236431e-06,-3.469372258487996659e-05
3.007936507936507908e+00,-3.287058679338273169e-06,-3.089648670182144034e-05
3.008730158730158699e+00,-7.542104375244891260e-06,-2.778795703643824401e-05
3.009523809523809490e+00,-1.051492145020925229e-05,-2.482315292812832053e-05
3.010317460317460281e+00,-1.151198637497275040e-05,-2.114360200533076876e-05
3.011111111111111072e+00,-1.033998984059440165e-05,-1.597680009085522649e-05
3.011904761904761862e+00,-7.354388935327681089e-06,-9.014482609974431532e-06
3.012698412698412653e+00,-3.359350596617199781e-06,-6.227946145078660679e-07
3.013492063492063444e+00,6.144718345051927950e-07,8.196871939060341135e-06
3.014285714285714235e+00,3.591009208752270665e-06,1.608061183027672796e-05
3.015079365079365026e+00,4.904720366394332165e-06,2.170635152434524824e-05
3.015873015873015817e+00,4.353226248349310054e-06,2.418616927009155696e-05
3.016666666666666607e+00,2.202472043813634862e-06,2.331687688919562970e-05
3.017460317460317398e+00,-9.480150455376659293e-07,1.961744086062283432e-05
3.018253968253968189e+00,-4.383126216916908751e-06,1.415900304682031300e-05
3.019047619047618980e+00,-7.490750179949799364e-06,8.259367861397359518e-06
3.019841269841269771e+00,-9.905064865566154454e-06,3.146712043368083293e-06
3.020634920634920562e+00,-1.153355197197301591e-05,-3.073921944420130456e-07
3.021428571428571352e+00,-1.247446265321434645e-05,-1.717820107410662620e-06
3.022222222222222143e+00,-1.287413147808915547e-05,-1.159318068074364371e-06
3.023015873015872934e+00,-1.279567440295276071e-05,9.810178568215363926e-07
3.023809523809523725e+00,-1.216190942628589445e-05,4.193859147423764572e-06
3.024603174603174516e+00,-1.079685782732094113e-05,7.994980082587849402e-06
3.025396825396825307e+00,-8.539875580808056836e-06,1.198102690435326813e-05
3.026190476190476097e+00,-5.371632404658151135e-06,1.580271646184467122e-05
3.026984126984126888e+00,-1.489697039576660306e-06,1.910716811622071789e-05
3.027777777777777679e+00,2.699549042265258501e-06,2.150691460199950628e-05
3.028571428571428470e+00,6.665397767263602379e-06,2.260570903980187900e-05
3.029365079365079261e+00,9.876348798820314966e-06,2.207197148103734479e-05
3.030158730158730052e+00,1.191886816872125795e-05,1.972528883828180216e-05
3.030952380952380842e+00,1.258126906786283758e-05,1.560316109971403986e-05
3.031746031746031633e+00,1.189115644773742503e-05,9.993586360796179616e-06
3.032539682539682424e+00,1.010643017195259675e-05,3.430896825530840492e-06
3.033333333333333215e+00,7.664945930224652238e-06,-3.350526508328784691e-06
3.034126984126984006e+00,5.102413007930540142e-06,-9.512299422454335965e-06
3.034920634920634797e+00,2.953066075194821405e-06,-1.425255386531862792e-05
3.035714285714285587e+00,1.649680780878513148e-06,-1.696370352931791210e-05
3.036507936507936378e+00,1.437350162403154061e-06,-1.736674990529323028e-05
3.037301587301587169e+00,2.312429745936177966e-06,-1.558456083610906869e-05
3.038095238095237960e+00,3.997770067953218713e-06,-1.213155067725748080e-05
3.038888888888888751e+00,5.966649472586732595e-06,-7.816985136382189893e-06
3.039682539682539542e+00,7.525287171248053516e-06,-3.580120710802420768e-06
3.040476190476190332e+00,7.952958410644102099e-06,-2.941582881875299365e-07
3.041269841269841123e+00,6.680236720839667375e-06,1.413454942333814336e-06
3.042063492063491914e+00,3.465727394057799168e-06,1.280151787459531423e-06
3.042857142857142705e+00,-1.481153248126082470e-06,-5.599404768914860861e-07
3.043650793650793496e+00,-7.480536368248986600e-06,-3.632927127081331066e-06
3.044444444444444287e+00,-1.349181515424704379e-05,-7.248418079299232988e-06
3.045238095238095077e+00,-1.834101698053763850e-05,-1.065211332652947299e-05
3.046031746031745868e+00,-2.101301780682613985e-05,-1.316918909002822914e-05
3.046825396825396659e+00,-2.092610600684201961e-05,-1.431051424484263858e-05
3.047619047619047450e+00,-1.810131372008683318e-05,-1.382942376530131992e-05
3.048412698412698241e+00,-1.316506368773013017e-05,-1.172964510286328648e-05
3.049206349206349032e+00,-7.176437010308947450e-06,-8.233247534735858243e-06
3.049999999999999822e+00,-1.332346042184628491e-06,-3.724220604355843253e-06
3.050793650793650613e+00,3.351047492287366186e-06,1.312722567225064237e-06
3.051587301587301404e+00,6.276910976166065040e-06,6.343146738453366144e-06
3.052380952380952195e+00,7.359924346825038519e-06,1.082212054972335175e-05
3.053174603174602986e+00,6.964648020766298329e-06,1.423303716076114132e-05
3.053968253968253777e+00,5.733216603960928169e-06,1.614000370963109403e-05
3.054761904761904567e+00,4.369500080563566301e-06,1.625717590158200703e-05
3.055555555555555358e+00,3.444187557692427475e-06,1.451948627291869176e-05
3.056349206349206149e+00,3.266368682689685012e-06,1.112358099093562028e-05
3.057142857142856940e+00,3.843583963562794405e-06,6.509886924434486954e-06
3.057936507936507731e+00,4.929902039311848201e-06,1.281422579595738158e-06
3.058730158730158522e+00,6.140779649050291639e-06,-3.912713563443402269e-06
3.059523809523809312e+00,7.095945446234021658e-06,-8.485538213798984080e-06
3.060317460317460103e+00,7.543990180747285985e-06,-1.197943051785645670e-05
3.061111111111110894e+00,7.430652506731079372e-06,-1.408613634579238040e-05
3.061904761904761685e+00,6.894821897807597377e-06,-1.463658992150835438e-05
3.062698412698412920e+00,6.202251327412687201e-06,-1.358685982401997329e-05
3.063492063492063711e+00,5.645841143356678024e-06,-1.101950741159383532e-05
3.064285714285714501e+00,5.446770557738965854e-06,-7.161081627427518159e-06
3.065079365079365292e+00,5.683587940989781689e-06,-2.397088709114050771e-06
3.065873015873016083e+00,6.263452174086403063e-06,2.741960778127444140e-06
3.066666666666666874e+00,6.938567597797085139e-06,7.639790256738251381e-06
3.067460317460317665e+00,7.363698497288359935e-06,1.169260614654594125e-05
3.068253968253968456e+00,7.184398636546267548e-06,1.441839959365223951e-05
3.069047619047619246e+00,6.138040588146034190e-06,1.554186603128561393e-05
3.069841269841270037e+00,4.143327262838638638e-06,1.503028729599893653e-05
3.070634920634920828e+00,1.353022605260866615e-06,1.307690518208535006e-05
3.071428571428571619e+00,-1.848889588638480434e-06,1.004661092849996323e-05
3.072222222222222410e+00,-4.911966217207021098e-06,6.405453799992098064e-06
3.073015873015873201e+00,-7.237156403890509735e-06,2.650708485242985860e-06
3.073809523809523991e+00,-8.324154870214593938e-06,-7.516444733457707066e-07
3.074603174603174782e+00,-7.913242321178932739e-06,-3.422348141699557599e-06
3.075396825396825573e+00,-6.082129735489875304e-06,-5.117152963358602039e-06
3.076190476190476364e+00,-3.264430413674294691e-06,-5.761786633515373539e-06
3.076984126984127155e+00,-1.741555425958227951e-07,-5.462748491280001195e-06
3.077777777777777946e+00,2.353267975242652455e-06,-4.485784663969008502e-06
3.078571428571428736e+00,3.566226241636498304e-06,-3.203882055331166757e-06
3.079365079365079527e+00,2.993682429114586114e-06,-2.027773015331034383e-06
3.080158730158730318e+00,5.780854584006825813e-07,-1.336418580695326047e-06
3.080952380952381109e+00,-3.294273976286644414e-06,-1.419501205659637022e-06
3.081746031746031900e+00,-7.876749500021589916e-06,-2.433658806963672301e-06
3.082539682539682691e+00,-1.224161027391456702e-05,-4.368332549969462642e-06
3.083333333333333481e+00,-1.551134955877345165e-05,-7.020733923292941996e-06
3.084126984126984272e+00,-1.707957521975606068e-05,-9.988698221964524015e-06
3.084920634920635063e+00,-1.675436479689481221e-05,-1.269598085543775063e-05
3.085714285714285854e+00,-1.477642722421630952e-05,-1.446141276241084196e-05
3.086507936507936645e+00,-1.170795932838079914e-05,-1.461375250338138159e-05
3.087301587301587436e+00,-8.236891850193943170e-06,-1.264284236681330499e-05
3.088095238095238226e+00,-4.969723878732993137e-06,-8.364803343434617578e-06
3.088888888888889017e+00,-2.281996705843490375e-06,-2.062182548782114369e-06
3.089682539682539808e+00,-2.654774890609345072e-07,5.456126464159170638e-06
3.090476190476190599e+00,1.227466746521176164e-06,1.293075209550733410e-05
3.091269841269841390e+00,2.472653786189169058e-06,1.888851575695128625e-05
3.092063492063492181e+00,3.740701759770488016e-06,2.200448046287829571e-05
3.092857142857142971e+00,5.184035907234988711e-06,2.148843813995648350e-05
3.093650793650793762e+00,6.773980824227384900e-06,1.736189956505098097e-05
3.094444444444444553e+00,8.300677089141253120e-06,1.051651694859041086e-05
3.095238095238095344e+00,9.432119995200484737e-06,2.519775314626693867e-06
3.096031746031746135e+00,9.814818758866074351e-06,-4.778545446508038472e-06
3.096825396825396925e+00,9.188596480589300661e-06,-9.724111118743723395e-06
3.097619047619047716e+00,7.483771455680599160e-06,-1.128582308858010609e-05
3.098412698412698507e+00,4.872587139498372781e-06,-9.317762111750119096e-06
3.099206349206349298e+00,1.758462396096393349e-06,-4.584593732547455855e-06
3.100000000000000089e+00,-1.296919605742892038e-06,1.457307767337669596e-06
3.100793650793650880e+00,-3.692750318549427939e-06,7.062987410668812807e-06
3.101587301587301670e+00,-4.927258623700542588e-06,1.067249302685826524e-05
3.102380952380952461e+00,-4.722502167538985720e-06,1.131975040529208322e-05
3.103174603174603252e+00,-3.104195955016719697e-06,8.861868376964265981e-06
3.103968253968254043e+00,-4.122117761416009796e-07,3.970644587299195543e-06
3.104761904761904834e+00,2.767844785344760337e-06,-2.098358898763120229e-06
3.105555555555555625e+00,5.740046615127283113e-06,-7.878600710155822379e-06
3.106349206349206415e+00,7.866210087592724034e-06,-1.209032133629839488e-05
3.107142857142857206e+00,8.719056411705826249e-06,-1.394806129612444409e-05
3.107936507936507997e+00,8.176634349619656028e-06,-1.329894225124217340e-05
3.108730158730158788e+00,6.433858513326432198e-06,-1.056958152369310968e-05
3.109523809523809579e+00,3.933427072666994669e-06,-6.558239487076612369e-06
3.110317460317460370e+00,1.240592521344697841e-06,-2.152834074448966104e-06
3.111111111111111160e+00,-1.101973442594813223e-06,1.926951437239151128e-06
3.111904761904761951e+00,-2.701737774105023109e-06,5.280950037047537023e-06
3.112698412698412742e+00,-3.395326257044231827e-06,7.836475769132630049e-06
3.113492063492063533e+00,-3.260615134346456607e-06,9.733728941632928779e-06
3.114285714285714324e+00,-2.561345945156621107e-06,1.115273855740283104e-05
3.115079365079365115e+00,-1.643741505280105041e-06,1.215898476956014383e-05
3.115873015873015905e+00,-8.201428521025753787e-07,1.262847442659904337e-05
3.116666666666666696e+00,-2.786745908534758180e-07,1.227852587268194971e-05
3.117460317460317487e+00,-4.769913178461628835e-08,1.079103439505868757e-05
3.118253968253968278e+00,-2.315228709622636068e-08,7.982383611009756082e-06
3.119047619047619069e+00,-4.396847472853332175e-08,3.957321988656968846e-06
3.119841269841269860e+00,1.580605964176068491e-08,-8.129944847308046639e-07
3.120634920634920650e+00,1.744213640596990087e-07,-5.527292588984100886e-06
3.121428571428571441e+00,3.176424576101569508e-07,-9.209405899002093637e-06
3.122222222222222232e+00,2.329864358909775284e-07,-1.094999496666124891e-05
3.123015873015873023e+00,-3.062024340772152230e-07,-1.017317010219007041e-05
3.123809523809523814e+00,-1.434107393143506428e-06,-6.854226452483171502e-06
3.124603174603174605e+00,-3.101398938753322546e-06,-1.622963624843150505e-06
3.125396825396825395e+00,-5.037301103095969163e-06,4.287872825729380128e-06
3.126190476190476186e+00,-6.787947392237235949e-06,9.255387612217805095e-06
3.126984126984126977e+00,-7.829341964387907121e-06,1.161015450496140734e-05
3.127777777777777768e+00,-7.726151554897246808e-06,1.004469816863486969e-05
3.128571428571428559e+00,-6.288361075239146357e-06,3.992444807902415034e-06
3.129365079365079350e+00,-3.673790416224731232e-06,-6.127769583185647071e-06
3.130158730158730140e+00,-3.967668095513440062e-07,-1.888716714157039739e-05
3.130952380952380931e+00,2.772375375331313607e-06,-3.207506625009486084e-05
3.131746031746031722e+00,5.001571709566746646e-06,-4.313903262661087360e-05
3.132539682539682513e+00,5.638204977461905937e-06,-4.973178953832299440e-05
3.133333333333333304e+00,4.426583467546334934e-06,-5.022919933168030842e-05
3.134126984126984095e+00,1.627264762956354768e-06,-4.409547676156740342e-05
3.134920634920634885e+00,-2.012039804820881162e-06,-3.201420132591977072e-05
3.135714285714285676e+00,-5.436879164941951250e-06,-1.575908868123762190e-05
3.136507936507936467e+00,-7.568297373786749322e-06,2.165740453974142064e-06
3.137301587301587258e+00,-7.601764764736366697e-06,1.903706708841329984e-05
3.138095238095238049e+00,-5.232626609024133615e-06,3.246082603959319691e-05
3.138888888888888840e+00,-7.431464364993966723e-07,4.083091894162530920e-05
3.139682539682539630e+00,5.070142633449952292e-06,4.359327376512216532e-05
3.140476190476190421e+00,1.110359394903090045e-05,4.126081791842518316e-05
3.141269841269841212e+00,1.622616178499526883e-05,3.518988503796282978e-05
3.142063492063492003e+00,1.955134354686569192e-05,2.718803133520187023e-05
3.142857142857142794e+00,2.062659848175855178e-05,1.906260259774644633e-05
3.143650793650793585e+00,1.949441308442587090e-05,1.222894253079973615e-05
3.144444444444444375e+00,1.662118773148772651e-05,7.473119094603553843e-06
3.145238095238095166e+00,1.272892021246881691e-05,4.912779999941470105e-06
3.146031746031745957e+00,8.587122830428068783e-06,4.137919460125027659e-06
3.146825396825396748e+00,4.824649102377245570e-06,4.461868075621852549e-06
3.147619047619047539e+00,1.807458137715779400e-06,5.188699398927685427e-06
3.148412698412698330e+00,-3.937698544135401308e-07,5.813024440777025471e-06
3.149206349206349120e+00,-1.946856247114578725e-06,6.104769077952153903e-06
3.149999999999999911e+00,-3.136406652211885864e-06,6.077467605942584993e-06
3.150793650793650702e+00,-4.220158902662345088e-06,5.875343774984680108e-06
3.151587301587301493e+00,-5.314216244588208408e-06,5.631946133440362878e-06
3.152380952380952284e+00,-6.348440885069416086e-06,5.352141635816631574e-06
3.153174603174603075e+00,-7.106634144313762227e-06,4.856461075578606877e-06
3.153968253968253865e+00,-7.332865838018396371e-06,3.807881231096715275e-06
3.154761904761904656e+00,-6.860473810242141598e-06,1.818176538967297048e-06
3.155555555555555447e+00,-5.713631023359984988e-06,-1.394968691865819946e-06
3.156349206349206238e+00,-4.143332042181837407e-06,-5.852109002172758818e-06
3.157142857142857029e+00,-2.583722353290279054e-06,-1.121781202943706550e-05
3.157936507936507819e+00,-1.541650598698766754e-06,-1.681180712517321742e-05
3.158730158730158610e+00,-1.453317257445607883e-06,-2.173208457557187207e-05
3.159523809523809401e+00,-2.551289429126638325e-06,-2.505754920766543385e-05
3.160317460317460192e+00,-4.781857778715648666e-06,-2.607460799007302245e-05
3.161111111111110983e+00,-7.798909599171029267e-06,-2.446834329099729333e-05
3.161904761904761774e+00,-1.103969858148996302e-05,-2.042851231628171844e-05
3.162698412698412564e+00,-1.386457308433414135e-05,-1.463849832368338159e-05
3.163492063492063355e+00,-1.572271681801399305e-05,-8.140807262205941163e-06
3.164285714285714146e+00,-1.629573216763141648e-05,-2.104057464186356746e-06
3.165079365079364937e+00,-1.557523933163593966e-05,2.453496439503539693e-06
3.165873015873015728e+00,-1.384973464781375105e-05,4.911459029913478274e-06
3.166666666666666519e+00,-1.160394653779692218e-05,5.198048107297526415e-06
3.167460317460317309e+00,-9.361490862562816292e-06,3.802541804731763662e-06
3.168253968253968100e+00,-7.520223775421745293e-06,1.643989993744651513e-06
3.169047619047618891e+00,-6.233640742865232831e-06,-1.758085369581357117e-07
3.169841269841269682e+00,-5.378208321865939179e-06,-6.807912038468590605e-07
3.170634920634920473e+00,-4.617678406561014990e-06,6.832832221650262671e-07
3.171428571428571264e+00,-3.540482261489151097e-06,3.848139530526166367e-06
3.172222222222222054e+00,-1.819366527088895175e-06,8.089875315209897903e-06
3.173015873015872845e+00,6.646005913698784119e-07,1.219730301313651790e-05
3.173809523809523636e+00,3.775417279334923594e-06,1.481301128462546284e-05
3.174603174603174427e+00,7.162895736829513184e-06,1.485142201734052455e-05
3.175396825396825218e+00,1.036825909504272420e-05,1.185941146839781072e-05
3.176190476190476009e+00,1.295314946947300385e-05,6.199431669792224720e-06
3.176984126984126799e+00,1.460992134803872594e-05,-1.003866326510027193e-06
3.177777777777777590e+00,1.522332649931053000e-05,-8.137736177652330009e-06
3.178571428571428381e+00,1.487138639222104194e-05,-1.352088037529674113e-05
3.179365079365079172e+00,1.377221923706988556e-05,-1.585669348653077925e-05
3.180158730158729963e+00,1.220035094310760085e-05,-1.459469613228211973e-05
3.180952380952380754e+00,1.040474415669634597e-05,-1.009005439981110057e-05
3.181746031746031544e+00,8.556658980378270115e-06,-3.502865624295021344e-06
3.182539682539682335e+00,6.740003649852225104e-06,3.540882375580856198e-06
3.183333333333333126e+00,4.977642345837063554e-06,9.423161493356025541e-06
3.184126984126983917e+00,3.273456597698396111e-06,1.298971342848844612e-05
3.184920634920634708e+00,1.648000690960018356e-06,1.384051964040084476e-05
3.185714285714285499e+00,1.548541070549896263e-07,1.236795363812647955e-05
3.186507936507936289e+00,-1.122280428298551776e-06,9.546519151832461128e-06
3.187301587301587080e+00,-2.084207810759738205e-06,6.561882919451870260e-06
3.188095238095238315e+00,-2.636160577963270317e-06,4.412470901046298719e-06
3.188888888888889106e+00,-2.711197518904350053e-06,3.614591149598638903e-06
3.189682539682539897e+00,-2.296273412256582423e-06,4.101141529681773203e-06
3.190476190476190688e+00,-1.455585642040465616e-06,5.339002523283404503e-06
3.191269841269841478e+00,-3.402882990071570137e-07,6.614672006808234446e-06
3.192063492063492269e+00,8.261911085763339866e-07,7.370297047842566076e-06
3.192857142857143060e+00,1.789815340094843926e-06,7.442528905909281854e-06
3.193650793650793851e+00,2.325407875684052039e-06,7.092120471845227572e-06
3.194444444444444642e+00,2.296927646105894046e-06,6.809617845083926808e-06
3.195238095238095433e+00,1.701180162353686809e-06,6.994166936695002614e-06
3.196031746031746223e+00,6.821845925180308643e-07,7.664069838095848646e-06
3.196825396825397014e+00,-4.906574863240390849e-07,8.336585679533631792e-06
3.197619047619047805e+00,-1.480443828373500452e-06,8.130662184425938111e-06
3.198412698412698596e+00,-1.967051288515572109e-06,6.051045220968790005e-06
3.199206349206349387e+00,-1.737344132830401533e-06,1.349547927878753334e-06
3.200000000000000178e+00,-7.537918746343187780e-07,-6.156843678275130186e-06
3.200793650793650968e+00,8.233820830834405182e-07,-1.591180898008309798e-05
3.201587301587301759e+00,2.671286135293703958e-06,-2.664957441077540944e-05
3.202380952380952550e+00,4.387046182063816005e-06,-3.663257621792229878e-05
3.203174603174603341e+00,5.591559871095404476e-06,-4.403493028160112069e-05
3.203968253968254132e+00,6.022320230190991356e-06,-4.735810976686865924e-05
3.204761904761904923e+00,5.589948001480220670e-06,-4.575953784174991037e-05
3.205555555555555713e+00,4.386153226331366046e-06,-3.922162044008220739e-05
3.206349206349206504e+00,2.644474207230143910e-06,-2.855417985332158517e-05
3.207142857142857295e+00,6.669617172420409016e-07,-1.526302201567031577e-05
3.207936507936508086e+00,-1.260954866219938081e-06,-1.317976562566817107e-06
3.208730158730158877e+00,-2.941405700925105925e-06,1.116153483156504766e-05
3.209523809523809668e+00,-4.299390599099575674e-06,2.028415145776875874e-05
3.210317460317460458e+00,-5.373862872650782522e-06,2.477775434425654060e-05
3.211111111111111249e+00,-6.272019303369439008e-06,2.430152581764681227e-05
3.211904761904762040e+00,-7.106004890899815780e-06,1.956745275839163098e-05
3.212698412698412831e+00,-7.934025923388810875e-06,1.219629249540531035e-05
3.213492063492063622e+00,-8.722911763302838370e-06,4.320822709270996645e-06
3.214285714285714413e+00,-9.341786499422966234e-06,-1.955261686908787871e-06
3.215079365079365203e+00,-9.590303181612207356e-06,-5.081788352664211350e-06
3.215873015873015994e+00,-9.258466518961203085e-06,-4.418986929957921289e-06
3.216666666666666785e+00,-8.205513951296064206e-06,-3.336982556364360984e-07
3.217460317460317576e+00,-6.434096434220477942e-06,5.979998775453397072e-06
3.218253968253968367e+00,-4.129897948073191922e-06,1.289349958339600925e-05
3.219047619047619158e+00,-1.643024923618599671e-06,1.882657429724986087e-05
3.219841269841269948e+00,5.927222436482511096e-07,2.266883423554474670e-05
3.220634920634920739e+00,2.180646900260547136e-06,2.400912305053011958e-05
3.221428571428571530e+00,2.880889159063994164e-06,2.311519644819917050e-05
3.222222222222222321e+00,2.686099114659562070e-06,2.070307742631976181e-05
3.223015873015873112e+00,1.826092918491313321e-06,1.760832474927665571e-05
3.223809523809523903e+00,6.999488427430431349e-07,1.448736720355943829e-05
3.224603174603174693e+00,-2.421313058996607792e-07,1.164126850022214150e-05
3.225396825396825484e+00,-6.299902684003783505e-07,8.996613576315518594e-06
3.226190476190476275e+00,-2.774950191094554772e-07,6.225562068584526631e-06
3.226984126984127066e+00,7.721575088094249095e-07,2.951340721768429379e-06
3.227777777777777857e+00,2.272949440810420016e-06,-1.032451316806571103e-06
3.228571428571428648e+00,3.864261216807260858e-06,-5.602425779500460472e-06
3.229365079365079438e+00,5.190359482911429981e-06,-1.026494704152016339e-05
3.230158730158730229e+00,6.011670803307258282e-06,-1.425849106368868122e-05
3.230952380952381020e+00,6.274101825857064301e-06,-1.677086917434568686e-05
3.231746031746031811e+00,6.118715185706661685e-06,-1.719656808668075729e-05
3.232539682539682602e+00,5.831746899798284063e-06,-1.534510433384516544e-05
3.233333333333333393e+00,5.748513356450240211e-06,-1.153673151986305510e-05
3.234126984126984183e+00,6.134164092146466653e-06,-6.566652202419795665e-06
3.234920634920634974e+00,7.071321719171963010e-06,-1.555445233368982839e-06
