Timestamp,Flexor carpi radialis,Extensor digitorum
2.000000000000000000e+00,-8.962343792591097045e-06,1.832521508727519814e-05
2.000793650793650791e+00,-5.287158519526153942e-06,2.131367348883518733e-05
2.001587301587301582e+00,-1.426358062258161964e-07,1.855573850043145271e-05
2.002380952380952372e+00,5.611755271220486332e-06,1.205781413245193952e-05
2.003174603174603163e+00,1.103471861337296307e-05,4.495018470383403145e-06
2.003968253968253954e+00,1.529837926566395736e-05,-1.545046883559485329e-06
2.004761904761904745e+00,1.785029833366645632e-05,-4.183176378223548615e-06
2.005555555555555536e+00,1.850523362708227611e-05,-2.607089894825015140e-06
2.006349206349206327e+00,1.744546925190533469e-05,2.861860210607245066e-06
2.007142857142857117e+00,1.513217174726637560e-05,1.095067185807279593e-05
2.007936507936507908e+00,1.215455896310624330e-05,1.978633572523864526e-05
2.008730158730158699e+00,9.059755982033557592e-06,2.733000994057588343e-05
2.009523809523809490e+00,6.208569627373656075e-06,3.181234746062204841e-05
2.010317460317460281e+00,3.692636685599815372e-06,3.209782339463126011e-05
2.011111111111111072e+00,1.332717297731014766e-06,2.791548667688432543e-05
2.011904761904761862e+00,-1.239363838552998854e-06,1.990879764486071783e-05
2.012698412698412653e+00,-4.431463880157148432e-06,9.485713792767129504e-06
2.013492063492063444e+00,-8.511034462400491774e-06,-1.507916407770622219e-06
2.014285714285714235e+00,-1.344672063323870165e-05,-1.122204746871640195e-05
2.015079365079365026e+00,-1.882662438293899364e-05,-1.823489129117963320e-05
2.015873015873015817e+00,-2.388967838718995031e-05,-2.186012635642260637e-05
2.016666666666666607e+00,-2.766885165071098935e-05,-2.222957747180276432e-05
2.017460317460317398e+00,-2.920297392116122967e-05,-2.012418686884844470e-05
2.018253968253968189e+00,-2.775129642798948061e-05,-1.662392058455977137e-05
2.019047619047618980e+00,-2.295772490631525290e-05,-1.272191904510153433e-05
2.019841269841269771e+00,-1.495075014279048572e-05,-9.055305990430881702e-06
2.020634920634920562e+00,-4.394886058700055879e-06,-5.839698616694317383e-06
2.021428571428571352e+00,7.502034910788265934e-06,-2.995398613913830488e-06
2.022222222222222143e+00,1.906364161313283591e-05,-3.746647473771978622e-07
2.023015873015872934e+00,2.836135557857424308e-05,2.025006577152511376e-06
2.023809523809523725e+00,3.358999094292194350e-05,3.951317960354565139e-06
2.024603174603174516e+00,3.352834672891589140e-05,4.933816450196908318e-06
2.025396825396825307e+00,2.793209716139584471e-05,4.460773250980784403e-06
2.026190476190476097e+00,1.770344865760839961e-05,2.242370269703769134e-06
2.026984126984126888e+00,4.760349496585512324e-06,-1.538975687908313457e-06
2.027777777777777679e+00,-8.365209192108214668e-06,-6.111530905922135587e-06
2.028571428571428470e+00,-1.909174092034663202e-05,-1.021968053401441700e-05
2.029365079365079261e+00,-2.537415600091257777e-05,-1.245470272896691193e-05
2.030158730158730052e+00,-2.616994834009592856e-05,-1.170999330267896908e-05
2.030952380952380842e+00,-2.167065558058764701e-05,-7.596112903162410844e-06
2.031746031746031633e+00,-1.323509929126412245e-05,-6.613557329183668495e-07
2.032539682539682424e+00,-3.033545268475019190e-06,7.663803295181935044e-06
2.033333333333333215e+00,6.509836290882416954e-06,1.538722242973377085e-05
2.034126984126984006e+00,1.332786272912851493e-05,2.045477711689079386e-05
2.034920634920634797e+00,1.620515608756836496e-05,2.130035825170084658e-05
2.035714285714285587e+00,1.502055474552840231e-05,1.730143455265507245e-05
2.036507936507936378e+00,1.068262586045346439e-05,9.006499795314363863e-06
2.037301587301587169e+00,4.801905109951108239e-06,-1.950416215217896313e-06
2.038095238095237960e+00,-7.852779326402152590e-07,-1.324478752688590803e-05
2.038888888888888751e+00,-4.504209322619601788e-06,-2.246186079922015300e-05
2.039682539682539542e+00,-5.420957790192408452e-06,-2.772608608164960585e-05
2.040476190476190332e+00,-3.432271817342552713e-06,-2.817017542260048715e-05
2.041269841269841123e+00,7.662369483254402798e-07,-2.410452054871010900e-05
2.042063492063491914e+00,5.911368142479635486e-06,-1.684648849833031911e-05
2.042857142857142705e+00,1.052929774981400323e-05,-8.281755888916025605e-06
2.043650793650793496e+00,1.331410508695889821e-05,-3.114523743979083204e-07
2.044444444444444287e+00,1.342923074177460117e-05,5.641360904544930550e-06
2.045238095238095077e+00,1.067025492564671474e-05,8.933434959213765029e-06
2.046031746031745868e+00,5.473559393778817116e-06,9.754554261173582202e-06
2.046825396825396659e+00,-1.209879856812684317e-06,8.953909930217710512e-06
2.047619047619047450e+00,-8.137342969126423389e-06,7.718363488452393715e-06
2.048412698412698241e+00,-1.404596494534894800e-05,7.204897472763263484e-06
2.049206349206349032e+00,-1.792075282730949535e-05,8.220353853344995984e-06
2.049999999999999822e+00,-1.920851997129268345e-05,1.101219348945630659e-05
2.050793650793650613e+00,-1.793620809026406064e-05,1.520089346274143061e-05
2.051587301587301404e+00,-1.470633153076266078e-05,1.985676751470135840e-05
2.052380952380952195e+00,-1.056002771359646679e-05,2.370125531860481572e-05
2.053174603174602986e+00,-6.720915793088043468e-06,2.539339046219612727e-05
2.053968253968253777e+00,-4.263937590079809287e-06,2.384730850974296372e-05
2.054761904761904567e+00,-3.789670503825588771e-06,1.851839760580483558e-05
2.055555555555555358e+00,-5.208977228429169146e-06,9.596335897476390825e-06
2.056349206349206149e+00,-7.729917212822432212e-06,-1.945187832312556362e-06
2.057142857142856940e+00,-1.007881019864453522e-05,-1.446984217122240599e-05
2.057936507936507731e+00,-1.090193644361527110e-05,-2.596621943553233816e-05
2.058730158730158522e+00,-9.222274242787117373e-06,-3.445418124176587068e-05
2.059523809523809312e+00,-4.795876245396359134e-06,-3.841799937290313902e-05
2.060317460317460103e+00,1.763790601536212781e-06,-3.714920910350003118e-05
2.061111111111110894e+00,9.149482519419522747e-06,-3.089855745072212661e-05
2.061904761904761685e+00,1.575925650111953128e-05,-2.079472611818498630e-05
2.062698412698412920e+00,2.018214111424025171e-05,-8.562426003996779852e-06
2.063492063492063711e+00,2.159073643971284976e-05,3.868588825924656867e-06
2.064285714285714501e+00,1.991552603628406282e-05,1.475070884846537428e-05
2.065079365079365292e+00,1.577874212162559992e-05,2.280848860515524959e-05
2.065873015873016083e+00,1.025422845030085730e-05,2.738400336397990565e-05
2.066666666666666874e+00,4.556447346782608172e-06,2.843877721202303619e-05
2.067460317460317665e+00,-2.481293978656742585e-07,2.644625256982521651e-05
2.068253968253968456e+00,-3.445679465146480630e-06,2.222031311359148916e-05
2.069047619047619246e+00,-4.768331191030266931e-06,1.672257582029993664e-05
2.069841269841270037e+00,-4.377435032980702190e-06,1.088378736775523438e-05
2.070634920634920828e+00,-2.759467476840874782e-06,5.466855015306527771e-06
2.071428571428571619e+00,-5.702745832958305836e-07,9.889410386371889718e-07
2.072222222222222410e+00,1.532335572534335912e-06,-2.294269362511948227e-06
2.073015873015873201e+00,3.031171772529939784e-06,-4.354847708853500103e-06
2.073809523809523991e+00,3.640438982949922958e-06,-5.332511802362641501e-06
2.074603174603174782e+00,3.331433536974669890e-06,-5.470116344165462316e-06
2.075396825396825573e+00,2.295679961899211385e-06,-5.056224007113573061e-06
2.076190476190476364e+00,8.627227311412333131e-07,-4.375665540306112016e-06
2.076984126984127155e+00,-6.008623695097351227e-07,-3.665958824055856590e-06
2.077777777777777946e+00,-1.783835603796656777e-06,-3.081364650412305713e-06
2.078571428571428736e+00,-2.493961757881119506e-06,-2.671627076761602405e-06
2.079365079365079527e+00,-2.684080803616414448e-06,-2.384303162261880159e-06
2.080158730158730318e+00,-2.441425990990978233e-06,-2.095942871218683471e-06
2.080952380952381109e+00,-1.947094583212107958e-06,-1.668638119644452416e-06
2.081746031746031900e+00,-1.416492667981221270e-06,-1.017639920819445058e-06
2.082539682539682691e+00,-1.035157353381172072e-06,-1.676838206910317561e-07
2.083333333333333481e+00,-9.065071565204799770e-07,7.251586569057875049e-07
2.084126984126984272e+00,-1.026038238372798267e-06,1.400702573966300168e-06
2.084920634920635063e+00,-1.289304694400995527e-06,1.568848084175613284e-06
2.085714285714285854e+00,-1.530832779520689390e-06,1.009449345727708222e-06
2.086507936507936645e+00,-1.581878756517798720e-06,-3.362683266584717088e-07
2.087301587301587436e+00,-1.330143756320921399e-06,-2.316133643245950741e-06
2.088095238095238226e+00,-7.653066225580518718e-07,-4.578713017983434039e-06
2.088888888888889017e+00,9.983586685288974588e-10,-6.645684727666943509e-06
2.089682539682539808e+00,7.458066173559739502e-07,-8.025986956280926538e-06
2.090476190476190599e+00,1.174899454366952140e-06,-8.340234732320006921e-06
2.091269841269841390e+00,9.858639606157005002e-07,-7.419919621659429357e-06
2.092063492063492181e+00,-5.637207923707362185e-08,-5.353609556936490020e-06
2.092857142857142971e+00,-2.044744558331560189e-06,-2.470672765658799468e-06
2.093650793650793762e+00,-4.870868801841395981e-06,7.268039612851756036e-07
2.094444444444444553e+00,-8.197010322372725414e-06,3.661814475912939230e-06
2.095238095238095344e+00,-1.147354096387663502e-05,5.787877164658167317e-06
2.096031746031746135e+00,-1.401109061197727223e-05,6.685710660792453872e-06
2.096825396825396925e+00,-1.510544353601912579e-05,6.139655986762406797e-06
2.097619047619047716e+00,-1.419617753499384467e-05,4.184498588883872827e-06
2.098412698412698507e+00,-1.102181209301255706e-05,1.113722036135697348e-06
2.099206349206349298e+00,-5.723731065471431718e-06,-2.558755765297317366e-06
2.100000000000000089e+00,1.142336397536668485e-06,-6.186551253359595422e-06
2.100793650793650880e+00,8.701697449676022510e-06,-9.121042490420503763e-06
2.101587301587301670e+00,1.593910071313137813e-05,-1.086076570301019579e-05
2.102380952380952461e+00,2.190587249024385542e-05,-1.118135035045733670e-05
2.103174603174603252e+00,2.589537017814023170e-05,-1.020113936675404431e-05
2.103968253968254043e+00,2.754507065913692574e-05,-8.349814206621541924e-06
2.104761904761904834e+00,2.685329897940906592e-05,-6.238497768916651453e-06
2.105555555555555625e+00,2.412389163931276715e-05,-4.467633092718884892e-06
2.106349206349206415e+00,1.986594628930364386e-05,-3.435066509413436255e-06
2.107142857142857206e+00,1.467934406219344386e-05,-3.209113665287642464e-06
2.107936507936507997e+00,9.152814021901164911e-06,-3.509891761218589267e-06
2.108730158730158788e+00,3.791349645006606018e-06,-3.805892763855288513e-06
2.109523809523809579e+00,-1.023005694981586987e-06,-3.494806205088790589e-06
2.110317460317460370e+00,-5.042709714957957308e-06,-2.110986488967337775e-06
2.111111111111111160e+00,-8.147611285914829353e-06,5.049730447183151527e-07
2.111904761904761951e+00,-1.032652900489165709e-05,4.125510828234777661e-06
2.112698412698412742e+00,-1.165109472261852151e-05,8.166761629471505900e-06
2.113492063492063533e+00,-1.224193205386711924e-05,1.181948215660168577e-05
2.114285714285714324e+00,-1.222696493610882072e-05,1.424103929822500979e-05
2.115079365079365115e+00,-1.169682864576445402e-05,1.475585146713330844e-05
2.115873015873015905e+00,-1.067100142150154764e-05,1.301609090667311806e-05
2.116666666666666696e+00,-9.093553503026594352e-06,9.092210152972984564e-06
2.117460317460317487e+00,-6.872150824619981903e-06,3.484247129192822600e-06
2.118253968253968278e+00,-3.957070209593629085e-06,-2.939639389795230356e-06
2.119047619047619069e+00,-4.356058493249116192e-07,-9.065084307285086482e-06
2.119841269841269860e+00,3.397361522843276189e-06,-1.370095777297629982e-05
2.120634920634920650e+00,7.030202496083258887e-06,-1.577985672050624959e-05
2.121428571428571441e+00,9.803710748948750876e-06,-1.456294756116840539e-05
2.122222222222222232e+00,1.104388390169799855e-05,-9.810855234829957169e-06
2.123015873015873023e+00,1.021740223340209898e-05,-1.879507435642281300e-06
2.123809523809523814e+00,7.062251315515087324e-06,8.288101146731611184e-06
2.124603174603174605e+00,1.661058795237288652e-06,1.928016492781129155e-05
2.125396825396825395e+00,-5.547966660797769348e-06,2.942635376865577717e-05
2.126190476190476186e+00,-1.380481456460746011e-05,3.706521531240884428e-05
2.126984126984126977e+00,-2.208631148359334830e-05,4.082476415918578579e-05
2.127777777777777768e+00,-2.919008248927178127e-05,3.986865416957868026e-05
2.128571428571428559e+00,-3.386745765480561946e-05,3.406177580671325536e-05
2.129365079365079350e+00,-3.502744385713901294e-05,2.401862438193879046e-05
2.130158730158730140e+00,-3.199765951807607560e-05,1.101703367349609640e-05
2.130952380952380931e+00,-2.477593136728532664e-05,-3.213724545529744388e-06
2.131746031746031722e+00,-1.417284009345991996e-05,-1.679294624099875497e-05
2.132539682539682513e+00,-1.757726458467796146e-06,-2.801437250382309889e-05
2.133333333333333304e+00,1.042006672658917259e-05,-3.562356681717238896e-05
2.134126984126984095e+00,2.028144568236384536e-05,-3.898251870832999852e-05
2.134920634920634885e+00,2.621690735528612538e-05,-3.809084781945608865e-05
2.135714285714285676e+00,2.748274053209413031e-05,-3.347786182249148907e-05
2.136507936507936467e+00,2.436608780187746309e-05,-2.601740274470664563e-05
2.137301587301587258e+00,1.806706752587691376e-05,-1.673407101002208732e-05
2.138095238095238049e+00,1.034454763983424225e-05,-6.659423917961969785e-06
2.138888888888888840e+00,3.045858517967164777e-06,3.236352068493964021e-06
2.139682539682539630e+00,-2.338809664673861153e-06,1.205338625913945963e-05
2.140476190476190421e+00,-4.982671838908382139e-06,1.895667739527843621e-05
2.141269841269841212e+00,-4.824898333924834565e-06,2.320265485357378798e-05
2.142063492063492003e+00,-2.463488424343436013e-06,2.421975100718530669e-05
2.142857142857142794e+00,1.110571274023017896e-06,2.173037307424769687e-05
2.143650793650793585e+00,4.843606340552897590e-06,1.587425980889145950e-05
2.144444444444444375e+00,7.905296231870620195e-06,7.282451927165142567e-06
2.145238095238095166e+00,9.845595832043353197e-06,-2.941941148515394905e-06
2.146031746031745957e+00,1.059352390191535004e-05,-1.335779804234184781e-05
2.146825396825396748e+00,1.033267711888378357e-05,-2.242326187458635906e-05
2.147619047619047539e+00,9.330235070688207915e-06,-2.878848726333364100e-05
2.148412698412698330e+00,7.798855972678710502e-06,-3.156986535950181126e-05
2.149206349206349120e+00,5.839699520766335403e-06,-3.052868271383425366e-05
2.149999999999999911e+00,3.470961716546951969e-06,-2.610245338563254658e-05
2.150793650793650702e+00,7.104938885695093519e-07,-1.928156205113172787e-05
2.151587301587301493e+00,-2.335963363486167620e-06,-1.136818691030178768e-05
2.152380952380952284e+00,-5.425851626593323365e-06,-3.682276485320325437e-06
2.153174603174603075e+00,-8.194505322897304027e-06,2.714513846261894171e-06
2.153968253968253865e+00,-1.022875989431846216e-05,7.217046651671312181e-06
2.154761904761904656e+00,-1.117006682112822705e-05,9.757894912077691939e-06
2.155555555555555447e+00,-1.080927868249650907e-05,1.075748214198507924e-05
2.156349206349206238e+00,-9.144699902226911388e-06,1.095687906279714158e-05
2.157142857142857029e+00,-6.391612843169127949e-06,1.117491654019644537e-05
2.157936507936507819e+00,-2.944116613520631260e-06,1.205308650515032582e-05
2.158730158730158610e+00,7.009210710730484651e-07,1.385848896471390282e-05
2.159523809523809401e+00,4.037606067827051634e-06,1.640113127393731207e-05
2.160317460317460192e+00,6.634410379555737489e-06,1.908927471278734517e-05
2.161111111111110983e+00,8.184119129616551427e-06,2.110504019842016294e-05
2.161904761904761774e+00,8.516750111053753881e-06,2.164581373445631653e-05
2.162698412698412564e+00,7.593705814420907556e-06,2.015796556327902078e-05
2.163492063492063355e+00,5.508609087952853311e-06,1.649510728612357216e-05
2.164285714285714146e+00,2.505329225671177468e-06,1.096116594421684244e-05
2.165079365079364937e+00,-1.003281008695966869e-06,4.237495268643945648e-06
2.165873015873015728e+00,-4.449273133640381220e-06,-2.772643769935064014e-06
2.166666666666666519e+00,-7.180152461013675046e-06,-9.132338697115657141e-06
2.167460317460317309e+00,-8.580465239095862165e-06,-1.404552647032273747e-05
2.168253968253968100e+00,-8.211117599172685488e-06,-1.698574740431762917e-05
2.169047619047618891e+00,-5.924646366070317125e-06,-1.776183520317071085e-05
2.169841269841269682e+00,-1.924698134661404172e-06,-1.651499111218460004e-05
2.170634920634920473e+00,3.244704916741848478e-06,-1.365382958631088904e-05
2.171428571428571264e+00,8.778310275253528382e-06,-9.747350189619498397e-06
2.172222222222222054e+00,1.374196329875831763e-05,-5.405473278045800774e-06
2.173015873015872845e+00,1.723225559231356314e-05,-1.177101945577620870e-06
2.173809523809523636e+00,1.853209550098370274e-05,2.514072635033436349e-06
2.174603174603174427e+00,1.723288117350995957e-05,5.391099151112728152e-06
2.175396825396825218e+00,1.330255929534498779e-05,7.312532696031013152e-06
2.176190476190476009e+00,7.090431349396779052e-06,8.247653364058891295e-06
2.176984126984126799e+00,-7.280162522658280952e-07,8.257141049288916414e-06
2.177777777777777590e+00,-9.251289705531199852e-06,7.487318942014971916e-06
2.178571428571428381e+00,-1.747526044007907377e-05,6.169779230584988940e-06
2.179365079365079172e+00,-2.441947263624859738e-05,4.607392403883256947e-06
2.180158730158729963e+00,-2.924315417231899600e-05,3.131044970971536242e-06
2.180952380952380754e+00,-3.134338704878953134e-05,2.027704492018107733e-06
2.181746031746031544e+00,-3.042972051529310240e-05,1.459326115630796151e-06
2.182539682539682335e+00,-2.656981519534022294e-05,1.402753614748792390e-06
2.183333333333333126e+00,-2.020000425435446731e-05,1.638269041531493567e-06
2.184126984126983917e+00,-1.209117708826875705e-05,1.800040582535892504e-06
2.184920634920634708e+00,-3.257346426483180826e-06,1.480183008146841224e-06
2.185714285714285499e+00,5.198729069203158500e-06,3.574318730141804002e-07
2.186507936507936289e+00,1.228540278867983255e-05,-1.689231143968433372e-06
2.187301587301587080e+00,1.731935996498399963e-05,-4.518006996030241780e-06
2.188095238095238315e+00,2.005549146495376930e-05,-7.734063542452043996e-06
2.188888888888889106e+00,2.069979964102275583e-05,-1.077262872870023623e-05
2.189682539682539897e+00,1.979818235888133798e-05,-1.303433960505623565e-05
2.190476190476190688e+00,1.804044938109890505e-05,-1.403421478178801039e-05
2.191269841269841478e+00,1.604731502910923492e-05,-1.352096837919810616e-05
2.192063492063492269e+00,1.420992977886346996e-05,-1.153499956713686730e-05
2.192857142857143060e+00,1.262905856490656323e-05,-8.394831718554492903e-06
2.193650793650793851e+00,1.116267493740311220e-05,-4.622007858535370866e-06
2.194444444444444642e+00,9.550606503371986445e-06,-8.261169883070317826e-07
2.195238095238095433e+00,7.559775435542306874e-06,2.425285380759624445e-06
2.196031746031746223e+00,5.094301285455921392e-06,4.727688728717199150e-06
2.196825396825397014e+00,2.238064960433429893e-06,5.927774831933763287e-06
2.197619047619047805e+00,-7.716240728801581008e-07,6.156164603683387934e-06
2.198412698412698596e+00,-3.617017979230923151e-06,5.788913158716645190e-06
2.199206349206349387e+00,-5.987821659338623849e-06,5.337351115291456143e-06
2.200000000000000178e+00,-7.655407694309278587e-06,5.288464786215294824e-06
2.200793650793650968e+00,-8.515862321284745450e-06,5.940048253572029624e-06
2.201587301587301759e+00,-8.597789017092412510e-06,7.285083596675978169e-06
2.202380952380952550e+00,-8.041365432572738017e-06,8.989662606011032361e-06
2.203174603174603341e+00,-7.059944201032433407e-06,1.047907371749003950e-05
2.203968253968254132e+00,-5.895136144102880126e-06,1.110874245903183066e-05
2.204761904761904923e+00,-4.773599847123928858e-06,1.036593578659437757e-05
2.205555555555555713e+00,-3.870945391536603505e-06,8.036171987624661761e-06
2.206349206349206504e+00,-3.286058667467088127e-06,4.279837318629962265e-06
2.207142857142857295e+00,-3.028026213880822538e-06,-4.033990368353946843e-07
2.207936507936508086e+00,-3.017772380869521150e-06,-5.304246672685761975e-06
2.208730158730158877e+00,-3.106757136965225802e-06,-9.678313220290861202e-06
2.209523809523809668e+00,-3.113799017777063662e-06,-1.290770602872851477e-05
2.210317460317460458e+00,-2.876345717664200064e-06,-1.460616482431278672e-05
2.211111111111111249e+00,-2.304286355728230497e-06,-1.465116406883519069e-05
2.211904761904762040e+00,-1.416767845102375861e-06,-1.315365035689527133e-05
2.212698412698412831e+00,-3.428419386129315766e-07,-1.039344582541874597e-05
2.213492063492063622e+00,7.202115821625948396e-07,-6.750612860499577347e-06
2.214285714285714413e+00,1.575997709896503144e-06,-2.651825477732032290e-06
2.215079365079365203e+00,2.094601633097860387e-06,1.465910081451091689e-06
2.215873015873015994e+00,2.244553953818861278e-06,5.183856118543988162e-06
2.216666666666666785e+00,2.079372084040905239e-06,8.133462013735859327e-06
2.217460317460317576e+00,1.690685777077947295e-06,1.003488502860128386e-05
2.218253968253968367e+00,1.154744801317598737e-06,1.073575518847969620e-05
2.219047619047619158e+00,4.987946968644904250e-07,1.023880312817376842e-05
2.219841269841269948e+00,-2.982090162027248410e-07,8.708253334707292454e-06
2.220634920634920739e+00,-1.272659714903658883e-06,6.450048719883304898e-06
2.221428571428571530e+00,-2.427616357898839808e-06,3.867069266101576934e-06
2.222222222222222321e+00,-3.691814557053209057e-06,1.396214941502733281e-06
2.223015873015873112e+00,-4.906869714296912596e-06,-5.609188511837453588e-07
2.223809523809523903e+00,-5.851877363720093179e-06,-1.699308902029643481e-06
2.224603174603174693e+00,-6.299849575537392604e-06,-1.850661840398731000e-06
2.225396825396825484e+00,-6.087700710690671935e-06,-9.957805364258430341e-07
2.226190476190476275e+00,-5.174876701225667654e-06,7.479845531165148384e-07
2.226984126984127066e+00,-3.667640318595619778e-06,3.152328261612362684e-06
2.227777777777777857e+00,-1.796910802547571343e-06,5.900915437813558735e-06
2.228571428571428648e+00,1.455629170165976978e-07,8.599392990027850838e-06
2.229365079365079438e+00,1.891474675070093406e-06,1.077720476725580136e-05
2.230158730158730229e+00,3.270658534856079698e-06,1.190249009271404033e-05
2.230952380952381020e+00,4.249281739913418366e-06,1.143624894930756813e-05
2.231746031746031811e+00,4.918593780026511814e-06,8.937588247504764743e-06
2.232539682539682602e+00,5.440332139300399429e-06,4.204274916841268662e-06
2.233333333333333393e+00,5.971091671501750403e-06,-2.593184606232735712e-06
2.234126984126984183e+00,6.595002795762269978e-06,-1.083745689719264814e-05
2.234920634920634974e+00,7.289504755197823522e-06,-1.949541918054773412e-05
2.235714285714285765e+00,7.934888888583631502e-06,-2.727124696972636750e-05
2.236507936507936556e+00,8.360518324111031427e-06,-3.285771905858207340e-05
2.237301587301587347e+00,8.406958258188929986e-06,-3.522345472944326628e-05
2.238095238095238138e+00,7.979431010793761180e-06,-3.385470651897040813e-05
2.238888888888888928e+00,7.074409866411136644e-06,-2.888042319586977752e-05
2.239682539682539719e+00,5.773453229089385196e-06,-2.104538412547622144e-05
2.240476190476190510e+00,4.211113283686295969e-06,-1.154376443928814005e-05
2.241269841269841301e+00,2.532502884978025089e-06,-1.765625082184723290e-06
2.242063492063492092e+00,8.578850831957127514e-07,6.972977270852344596e-06
2.242857142857142883e+00,-7.339311680480847468e-07,1.365256587366472661e-05
2.243650793650793673e+00,-2.201390981820056224e-06,1.768573995099292527e-05
2.244444444444444464e+00,-3.522076826158967038e-06,1.895402045035755504e-05
2.245238095238095255e+00,-4.671804850213803307e-06,1.775787249082636513e-05
2.246031746031746046e+00,-5.611115812293003648e-06,1.470676671471580098e-05
2.246825396825396837e+00,-6.284830449537194407e-06,1.058187486288126064e-05
2.247619047619047628e+00,-6.634302156546536933e-06,6.200602557840622854e-06
2.248412698412698418e+00,-6.616576904880755412e-06,2.302295904943020343e-06
2.249206349206349209e+00,-6.222079682634595276e-06,-5.365766008072173225e-07
2.250000000000000000e+00,-5.483772346372397369e-06,-1.956766359445719423e-06
2.250793650793650791e+00,-4.474922493242364385e-06,-1.841335758854232476e-06
2.251587301587301582e+00,-3.297245770731765921e-06,-3.121980204723990830e-07
2.252380952380952372e+00,-2.064019164928748453e-06,2.301081778709375323e-06
2.253174603174603163e+00,-8.829059863650582371e-07,5.517247802190161288e-06
2.253968253968253954e+00,1.586131757095558125e-07,8.778074506255221536e-06
2.254761904761904745e+00,1.004258639055315547e-06,1.153330511099669888e-05
2.255555555555555536e+00,1.635891593515428205e-06,1.332496894364656481e-05
2.256349206349206327e+00,2.074986982159381569e-06,1.385808993434823266e-05
2.257142857142857117e+00,2.376900722852150648e-06,1.304461615734464973e-05
2.257936507936507908e+00,2.617388154898045653e-06,1.101119985319856392e-05
2.258730158730158699e+00,2.872877602644507281e-06,8.068747245887447110e-06
2.259523809523809490e+00,3.197954997641750106e-06,4.649750566602931999e-06
2.260317460317460281e+00,3.605126440208524893e-06,1.225940949060185059e-06
2.261111111111111072e+00,4.052818221533819965e-06,-1.777210726330679813e-06
2.261904761904761862e+00,4.446803221884083935e-06,-4.051595236776087552e-06
2.262698412698412653e+00,4.657133845010048892e-06,-5.448175195495142115e-06
2.263492063492063444e+00,4.547757329522047164e-06,-5.981365399233498585e-06
2.264285714285714235e+00,4.011201992657282584e-06,-5.799497410139705213e-06
2.265079365079365026e+00,2.998233248919736595e-06,-5.135765076559893829e-06
2.265873015873015817e+00,1.533200751617941944e-06,-4.256767483250218133e-06
2.266666666666666607e+00,-2.902523898525958152e-07,-3.418190000253673541e-06
2.267460317460317398e+00,-2.332108837623040861e-06,-2.827657550562603528e-06
2.268253968253968189e+00,-4.439434236773039011e-06,-2.612883384646096273e-06
2.269047619047618980e+00,-6.477371126442501546e-06,-2.798824686053527158e-06
2.269841269841269771e+00,-8.344845800063401515e-06,-3.302539221118017535e-06
2.270634920634920562e+00,-9.968317502122481903e-06,-3.952278544743763892e-06
2.271428571428571352e+00,-1.127698043532382753e-05,-4.528837322241207263e-06
2.272222222222222143e+00,-1.217265881409667890e-05,-4.818292817690222356e-06
2.273015873015872934e+00,-1.251266314247664576e-05,-4.661250118211149489e-06
2.273809523809523725e+00,-1.212111679945497140e-05,-3.985612928108157531e-06
2.274603174603174516e+00,-1.083381805221145350e-05,-2.815843390688092994e-06
2.275396825396825307e+00,-8.567001881514219128e-06,-1.259187390058590483e-06
2.276190476190476097e+00,-5.386890816273968333e-06,5.240126773789667905e-07
2.276984126984126888e+00,-1.550529063868122682e-06,2.355242544995283277e-06
2.277777777777777679e+00,2.506334190531900456e-06,4.067818697952147827e-06
2.278571428571428470e+00,6.240951710336071756e-06,5.525421945959401135e-06
2.279365079365079261e+00,9.117782990372711116e-06,6.627270521493102092e-06
2.280158730158730052e+00,1.073009346801042825e-05,7.302190656770604456e-06
2.280952380952380842e+00,1.089141062605389737e-05,7.497022546354548310e-06
2.281746031746031633e+00,9.672255501876478315e-06,7.166889677600856031e-06
2.282539682539682424e+00,7.376728324262486056e-06,6.275152449780280248e-06
2.283333333333333215e+00,4.469685938236967822e-06,4.808114846220727927e-06
2.284126984126984006e+00,1.475055964354741632e-06,2.803241121832071901e-06
2.284920634920634797e+00,-1.130010201565644400e-06,3.813552887738344528e-07
2.285714285714285587e+00,-3.001023306033302573e-06,-2.233318905380358598e-06
2.286507936507936378e+00,-3.973404552989885411e-06,-4.722181563245586624e-06
2.287301587301587169e+00,-4.062780975680626129e-06,-6.719604450823016864e-06
2.288095238095237960e+00,-3.423346748194379312e-06,-7.893106252440423349e-06
2.288888888888888751e+00,-2.281166514630168523e-06,-8.034805905994080682e-06
2.289682539682539542e+00,-8.649096713159327061e-07,-7.133117715663394021e-06
2.290476190476190332e+00,6.460910308191445078e-07,-5.396145672766246722e-06
2.291269841269841123e+00,2.145388086275848576e-06,-3.212579888634888730e-06
2.292063492063491914e+00,3.594253825901896693e-06,-1.056722299234332383e-06
2.292857142857142705e+00,4.996143351021563482e-06,6.361952430438596256e-07
2.293650793650793496e+00,6.363483829993995528e-06,1.586786923302480434e-06
2.294444444444444287e+00,7.689035997817211902e-06,1.743135745309618336e-06
2.295238095238095077e+00,8.929671357710801667e-06,1.282743775141929786e-06
2.296031746031745868e+00,1.000435623237388197e-05,5.427896768548706965e-07
2.296825396825396659e+00,1.080368322761577923e-05,-9.808527244020818613e-08
2.297619047619047450e+00,1.120740619558129348e-05,-3.459640842758939309e-07
2.298412698412698241e+00,1.110771059970805727e-05,-8.430154890912961845e-08
2.299206349206349032e+00,1.043591021586149836e-05,5.938992940990146816e-07
2.299999999999999822e+00,9.187058868230440364e-06,1.419974459137538197e-06
2.300793650793650613e+00,7.432675068092926063e-06,2.036055879339183348e-06
2.301587301587301404e+00,5.311561366660377309e-06,2.107019228034870000e-06
2.302380952380952195e+00,2.996723314085313702e-06,1.423311301517667798e-06
2.303174603174602986e+00,6.502005280831190735e-07,-3.773793886425911943e-08
2.303968253968253777e+00,-1.612781290382644527e-06,-2.108446810613895367e-06
2.304761904761904567e+00,-3.732887490472217074e-06,-4.476609993759214037e-06
2.305555555555555358e+00,-5.687505415096750667e-06,-6.754255314450669988e-06
2.306349206349206149e+00,-7.457889525109467366e-06,-8.545317790954843831e-06
2.307142857142856940e+00,-9.002489599782612553e-06,-9.505657163158557829e-06
2.307936507936507731e+00,-1.024994221405714331e-05,-9.401569857566928617e-06
2.308730158730158522e+00,-1.111342131603683408e-05,-8.167875568275757999e-06
2.309523809523809312e+00,-1.151783046113990394e-05,-5.950487118980770234e-06
2.310317460317460103e+00,-1.142706679113068846e-05,-3.107997593954614802e-06
2.311111111111110894e+00,-1.086089240873789958e-05,-1.531568666510694032e-07
2.311904761904761685e+00,-9.896596507054405316e-06,2.362809111175666346e-06
2.312698412698412920e+00,-8.655695187305510803e-06,3.992924086346116133e-06
2.313492063492063711e+00,-7.279172125416280388e-06,4.517001665459676859e-06
2.314285714285714501e+00,-5.897109596113401108e-06,4.000626436925271732e-06
2.315079365079365292e+00,-4.600367563234510601e-06,2.771077281556925532e-06
2.315873015873016083e+00,-3.422430041093637445e-06,1.322055430044806892e-06
2.316666666666666874e+00,-2.337752515761859228e-06,1.821066900245498648e-07
2.317460317460317665e+00,-1.278751380875425031e-06,-2.129298769202438198e-07
2.318253968253968456e+00,-1.678950139317667382e-07,3.867368600763839215e-07
2.319047619047619246e+00,1.043889145039369014e-06,1.999707415137623370e-06
2.319841269841270037e+00,2.344064787996481311e-06,4.417055358406328988e-06
2.320634920634920828e+00,3.641508488723198076e-06,7.247961718215461615e-06
2.321428571428571619e+00,4.772810718801850924e-06,9.997174914878504486e-06
2.322222222222222410e+00,5.533111212269027857e-06,1.216141774810502673e-05
2.323015873015873201e+00,5.726161588457798770e-06,1.332738830071811029e-05
2.323809523809523991e+00,5.222280970228383971e-06,1.324946875467530368e-05
2.324603174603174782e+00,4.008817117656396957e-06,1.188648481593999747e-05
2.325396825396825573e+00,2.217651984926113484e-06,9.388275032351714789e-06
2.326190476190476364e+00,1.196143537543547959e-07,6.040696764301890319e-06
2.326984126984127155e+00,-1.915031278004527861e-06,2.191691745585116950e-06
2.327777777777777946e+00,-3.481889363738553991e-06,-1.816115494455291378e-06
2.328571428571428736e+00,-4.220630820068984347e-06,-5.687964763579399950e-06
2.329365079365079527e+00,-3.892549118084703382e-06,-9.188375917153334747e-06
2.330158730158730318e+00,-2.444189314615408212e-06,-1.212813017319070444e-05
2.330952380952381109e+00,-4.271311571898805557e-08,-1.434333193564410828e-05
2.331746031746031900e+00,2.931582845465879073e-06,-1.568416788266929142e-05
2.332539682539682691e+00,5.944563712614161871e-06,-1.602126635445532167e-05
2.333333333333333481e+00,8.413950731373440241e-06,-1.526333773582628088e-05
2.334126984126984272e+00,9.836964728185992302e-06,-1.337201214938631305e-05
2.334920634920635063e+00,9.902748778833476805e-06,-1.036462721428560816e-05
2.335714285714285854e+00,8.556104066476436813e-06,-6.309052632410278609e-06
2.336507936507936645e+00,5.998673846369571535e-06,-1.325490300156892335e-06
2.337301587301587436e+00,2.636934271128799006e-06,4.390531300236772151e-06
2.338095238095238226e+00,-1.000422802614823425e-06,1.052292936453032720e-05
2.338888888888889017e+00,-4.353966170914045158e-06,1.658559861417830162e-05
2.339682539682539808e+00,-6.920748371248783631e-06,2.190178365441430530e-05
2.340476190476190599e+00,-8.331433842751461498e-06,2.564710042846684974e-05
2.341269841269841390e+00,-8.412586054260708435e-06,2.697418163946246645e-05
2.342063492063492181e+00,-7.225922554156423270e-06,2.520526150942056025e-05
2.342857142857142971e+00,-5.073392906082550021e-06,2.004640466865958162e-05
2.343650793650793762e+00,-2.458260427643042801e-06,1.176047137242844474e-05
2.344444444444444553e+00,1.423279991633617839e-09,1.242647700050886558e-06
2.345238095238095344e+00,1.700612273855637551e-06,-1.003556097256271828e-05
2.346031746031746135e+00,2.197492845739848461e-06,-2.022363727345240518e-05
2.346825396825396925e+00,1.353910020326020862e-06,-2.741658579024074680e-05
2.347619047619047716e+00,-5.766658694585172364e-07,-3.006190527838576167e-05
2.348412698412698507e+00,-2.956869617726827769e-06,-2.736577945666360099e-05
2.349206349206349298e+00,-4.895443529341139552e-06,-1.958636986002230718e-05
2.350000000000000089e+00,-5.489919006477967419e-06,-8.107799910072323484e-06
2.350793650793650880e+00,-4.124729076482714435e-06,4.761576941699436999e-06
2.351587301587301670e+00,-7.273374182362978443e-07,1.624571471526296335e-05
2.352380952380952461e+00,4.123651080734727817e-06,2.371714800389587209e-05
2.353174603174603252e+00,9.304851626823759994e-06,2.532866629131498367e-05
2.353968253968254043e+00,1.345354390562943478e-05,2.049876363445434185e-05
2.354761904761904834e+00,1.536868841227036426e-05,1.010810029135733878e-05
2.355555555555555625e+00,1.436094773480742458e-05,-3.673535020805456804e-06
2.356349206349206415e+00,1.043593105394416665e-05,-1.790754077375569702e-05
2.357142857142857206e+00,4.276414119826142906e-06,-2.961803233245240282e-05
2.357936507936507997e+00,-2.935032480842038352e-06,-3.652296854859024116e-05
2.358730158730158788e+00,-9.780639033619744821e-06,-3.755334001231752043e-05
2.359523809523809579e+00,-1.489612294126306862e-05,-3.302286011437005701e-05
2.360317460317460370e+00,-1.724146098429413975e-05,-2.442400069862190774e-05
2.361111111111111160e+00,-1.632329387663931111e-05,-1.393720483442813503e-05
2.361904761904761951e+00,-1.233749329946331048e-05,-3.814276904027953912e-06
2.362698412698412742e+00,-6.196533252599769430e-06,4.186215807405475622e-06
2.363492063492063533e+00,5.890062860931697385e-07,9.171666068404059222e-06
2.364285714285714324e+00,6.185187979520700164e-06,1.122492409827297823e-05
2.365079365079365115e+00,8.838451069375870462e-06,1.125071265441561034e-05
2.365873015873015905e+00,7.333221686662407337e-06,1.061823804812521709e-05
2.366666666666666696e+00,1.390302480485351307e-06,1.070173215972151181e-05
2.367460317460317487e+00,-8.112908262477851494e-06,1.244373218189005600e-05
2.368253968253968278e+00,-1.918764615859602812e-05,1.606301522197025870e-05
2.369047619047619069e+00,-2.907507898546473647e-05,2.099329190202465362e-05
2.369841269841269860e+00,-3.484600024056409070e-05,2.607222647230049458e-05
2.370634920634920650e+00,-3.414797993328451815e-05,2.992007564694148475e-05
2.371428571428571441e+00,-2.592105676126531280e-05,3.138067131463258031e-05
2.372222222222222232e+00,-1.086452170910381637e-05,2.987195740853540202e-05
2.373015873015873023e+00,8.537899044005595024e-06,2.552402546962053451e-05
2.373809523809523814e+00,2.851649278597793007e-05,1.906303232518234301e-05
2.374603174603174605e+00,4.494069606285304029e-05,1.150046539805645591e-05
2.375396825396825395e+00,5.439816961086587607e-05,3.767270188402787650e-06
2.376190476190476186e+00,5.507818297009546533e-05,-3.546691114858184581e-06
2.376984126984126977e+00,4.718270444349581484e-05,-1.024088338368630679e-05
2.377777777777777768e+00,3.277049254057415572e-05,-1.633914532642527859e-05
2.378571428571428559e+00,1.513091606648317543e-05,-2.181555920417965633e-05
2.379365079365079350e+00,-2.092346005748950111e-06,-2.636411033305691365e-05
2.380158730158730140e+00,-1.577065300109310896e-05,-2.933670687536318349e-05
2.380952380952380931e+00,-2.392917284802061946e-05,-2.988978134478527724e-05
2.381746031746031722e+00,-2.601556654195186520e-05,-2.728449215807876132e-05
2.382539682539682513e+00,-2.277472186496407039e-05,-2.122174422797545930e-05
2.383333333333333304e+00,-1.582398254807856764e-05,-1.208242347211674671e-05
2.384126984126984095e+00,-7.103846953315899276e-06,-9.812951941673056986e-07
2.384920634920634885e+00,1.611789410226312261e-06,1.039222344144698353e-05
2.385714285714285676e+00,9.023551859430936753e-06,2.010788751089161738e-05
2.386507936507936467e+00,1.440338430460330838e-05,2.641730972368417743e-05
2.387301587301587258e+00,1.752619512068656689e-05,2.815789334769758321e-05
2.388095238095238049e+00,1.851543726569321915e-05,2.503354748090464514e-05
2.388888888888888840e+00,1.767792517705354258e-05,1.769507796731333656e-05
2.389682539682539630e+00,1.537938750803085453e-05,7.593570623768665748e-06
2.390476190476190421e+00,1.198257505052846573e-05,-3.355945450262942575e-06
2.391269841269841212e+00,7.843315981579520663e-06,-1.320723349173005260e-05
2.392063492063492003e+00,3.342005104188713674e-06,-2.039407033743859999e-05
2.392857142857142794e+00,-1.080347365767585948e-06,-2.401854082384345174e-05
2.393650793650793585e+00,-4.913122079389390961e-06,-2.396152222577962489e-05
2.394444444444444375e+00,-7.619466521535795410e-06,-2.081384843946591613e-05
2.395238095238095166e+00,-8.741350761637796613e-06,-1.566738178879354337e-05
2.396031746031745957e+00,-8.048882195011684848e-06,-9.826649169227503759e-06
2.396825396825396748e+00,-5.686694312267551265e-06,-4.507537533751773219e-06
2.397619047619047539e+00,-2.253561398407384155e-06,-5.858075601673611826e-07
2.398412698412698330e+00,1.238136434832378724e-06,1.553465282202294005e-06
2.399206349206349120e+00,3.539414755412191429e-06,2.036904695037215365e-06
2.399999999999999911e+00,3.447760484940745773e-06,1.398920829013793639e-06
2.400793650793650702e+00,1.300425370308510673e-07,3.910669791264065056e-07
2.401587301587301493e+00,-6.596340586062255551e-06,-2.382873586739499137e-07
2.402380952380952284e+00,-1.610183902694519776e-05,6.196449782021845283e-08
2.403174603174603075e+00,-2.695985667443869717e-05,1.520117064207837453e-06
2.403968253968253865e+00,-3.715964824355065668e-05,4.008324171386505294e-06
2.404761904761904656e+00,-4.449165416456719250e-05,7.102691193441013119e-06
2.405555555555555447e+00,-4.703365567583332480e-05,1.021345360946976308e-05
2.406349206349206238e+00,-4.363051940631774110e-05,1.274279247578727913e-05
2.407142857142857029e+00,-3.424415321928889297e-05,1.422199157880602988e-05
2.407936507936507819e+00,-2.006414928178494822e-05,1.439048020300980863e-05
2.408730158730158610e+00,-3.322230670527606883e-06,1.320415795250911050e-05
2.409523809523809401e+00,1.316279799343002954e-05,1.078925133766475755e-05
2.410317460317460192e+00,2.659865357526900730e-05,7.377986712951658030e-06
2.411111111111110983e+00,3.482970844882271269e-05,3.265714449975484783e-06
2.411904761904761774e+00,3.678024601465397134e-05,-1.186961119906674991e-06
2.412698412698412564e+00,3.261610248217866175e-05,-5.517204044897631456e-06
2.413492063492063355e+00,2.359757546888579865e-05,-9.135640938853914554e-06
2.414285714285714146e+00,1.169344689563840121e-05,-1.137735003120599694e-05
2.415079365079364937e+00,-9.085402129741340885e-07,-1.166402820816021913e-05
2.415873015873015728e+00,-1.224840037272626171e-05,-9.748149154584842478e-06
2.416666666666666519e+00,-2.088783133849226348e-05,-5.934969658123570013e-06
2.417460317460317309e+00,-2.600589433500737998e-05,-1.139752490877187007e-06
2.418253968253968100e+00,-2.732473768349540574e-05,3.320381124490590192e-06
2.419047619047618891e+00,-2.494993176003441472e-05,6.175333152558576685e-06
2.419841269841269682e+00,-1.921960828592303558e-05,6.721544104767432012e-06
2.420634920634920473e+00,-1.061788809168152410e-05,5.169381974073486935e-06
2.421428571428571264e+00,2.438226161022031896e-07,2.627235598228522057e-06
2.422222222222222054e+00,1.260428694886720107e-05,6.831518714887129009e-07
2.423015873015872845e+00,2.552210688770901832e-05,7.250326456181636794e-07
2.423809523809523636e+00,3.787048722358086567e-05,3.270372458012222154e-06
2.424603174603174427e+00,4.838588530865263888e-05,7.597463363966185789e-06
2.425396825396825218e+00,5.578520401541486808e-05,1.186245454910213662e-05
2.426190476190476009e+00,5.894220468375998477e-05,1.368941576859520855e-05
2.426984126984126799e+00,5.708935192832608250e-05,1.102304070992877113e-05
2.427777777777777590e+00,4.999647187102212190e-05,2.927770577307873652e-06
2.428571428571428381e+00,3.807809758840217278e-05,-9.956591485388126611e-06
2.429365079365079172e+00,2.239670908306325920e-05,-2.545954879748747659e-05
2.430158730158729963e+00,4.552819391861599785e-06,-4.040607049695620599e-05
2.430952380952380754e+00,-1.352347861940251581e-05,-5.145381135080267479e-05
2.431746031746031544e+00,-2.984668096787270920e-05,-5.598531049900686354e-05
2.432539682539682335e+00,-4.267063621804274983e-05,-5.279141738131551404e-05
2.433333333333333126e+00,-5.075136597603443974e-05,-4.234726618552463092e-05
2.434126984126983917e+00,-5.352558755355835786e-05,-2.660712386341361002e-05
2.434920634920634708e+00,-5.116648805971858678e-05,-8.399317848483756334e-06
2.435714285714285499e+00,-4.450728548100722103e-05,9.366364516625351130e-06
2.436507936507936289e+00,-3.485746433617451992e-05,2.441310797267651992e-05
2.437301587301587080e+00,-2.376090569294466589e-05,3.551419500692013642e-05
2.438095238095238315e+00,-1.275019672347556113e-05,4.251875619073958504e-05
2.438888888888889106e+00,-3.139186418193853671e-06,4.604176237752874380e-05
2.439682539682539897e+00,4.124272632808408546e-06,4.698525257327727323e-05
2.440476190476190688e+00,8.540688839855970930e-06,4.609073371666525182e-05
2.441269841269841478e+00,1.007912798789649689e-05,4.367893431583797859e-05
2.442063492063492269e+00,9.136849208272910746e-06,3.964376916145587404e-05
2.442857142857143060e+00,6.438963726248974764e-06,3.366821566704108701e-05
2.443650793650793851e+00,2.886355262988553661e-06,2.555129129986878173e-05
2.444444444444444642e+00,-6.233387520550478187e-07,1.550160165112888719e-05
2.445238095238095433e+00,-3.361228996411813278e-06,4.274365013646327783e-06
2.446031746031746223e+00,-4.876911218429199731e-06,-6.905122356295927435e-06
2.446825396825397014e+00,-5.027664704942801907e-06,-1.660527564291665865e-05
2.447619047619047805e+00,-3.931273855913160470e-06,-2.354438746066416963e-05
2.448412698412698596e+00,-1.871568312650000207e-06,-2.691501888998202547e-05
2.449206349206349387e+00,8.046875048136089076e-07,-2.657133633528071203e-05
2.450000000000000178e+00,3.767700819177427199e-06,-2.303114886952579036e-05
2.450793650793650968e+00,6.745842670225406324e-06,-1.731329131588502814e-05
2.451587301587301759e+00,9.530333444725281941e-06,-1.068056665612856438e-05
2.452380952380952550e+00,1.195858822591529460e-05,-4.370876556190125890e-06
2.453174603174603341e+00,1.389590681829406969e-05,6.201067563109929610e-07
2.453968253968254132e+00,1.523025358739089637e-05,3.672761844460610467e-06
2.454761904761904923e+00,1.588326827767092553e-05,4.588801720897167453e-06
2.455555555555555713e+00,1.582869280167910464e-05,3.559341905010532249e-06
2.456349206349206504e+00,1.510350017231015603e-05,1.074060047732811860e-06
2.457142857142857295e+00,1.379973412611084666e-05,-2.208136451037467935e-06
2.457936507936508086e+00,1.203453613071392100e-05,-5.604270265246082438e-06
2.458730158730158877e+00,9.907929621633187008e-06,-8.541647662929319638e-06
2.459523809523809668e+00,7.467610171690067606e-06,-1.065307818750705286e-05
2.460317460317460458e+00,4.701789404357907551e-06,-1.181089178158889755e-05
2.461111111111111249e+00,1.571482394739427142e-06,-1.209311227310073958e-05
2.461904761904762040e+00,-1.925774780532495567e-06,-1.169521426035228091e-05
2.462698412698412831e+00,-5.689004829560975225e-06,-1.081853122168774450e-05
2.463492063492063622e+00,-9.479162500328387623e-06,-9.574804377488214859e-06
2.464285714285714413e+00,-1.293812493799197975e-05,-7.941273872130341193e-06
2.465079365079365203e+00,-1.565484617755786916e-05,-5.782875955346708647e-06
2.465873015873015994e+00,-1.725054653779469562e-05,-2.933192338857125854e-06
2.466666666666666785e+00,-1.745179905764123761e-05,6.979661132185146257e-07
2.467460317460317576e+00,-1.613188508848002436e-05,5.034877892792604854e-06
2.468253968253968367e+00,-1.331586446312068378e-05,9.800731622284334317e-06
2.469047619047619158e+00,-9.157378563549764235e-06,1.454732515330416838e-05
2.469841269841269948e+00,-3.903780631822899648e-06,1.873226179758467170e-05
2.470634920634920739e+00,2.131333394950834761e-06,2.181432596113660707e-05
2.471428571428571530e+00,8.575306447220298095e-06,2.334354771808869438e-05
2.472222222222222321e+00,1.498416271422020791e-05,2.303451345273839203e-05
2.473015873015873112e+00,2.082686817230155620e-05,2.081830254568039237e-05
2.473809523809523903e+00,2.549063960759039694e-05,1.686741810841898030e-05
2.474603174603174693e+00,2.832862808978836729e-05,1.158508967329648309e-05
2.475396825396825484e+00,2.875622450172581735e-05,5.553209327425657873e-06
2.476190476190476275e+00,2.638055747246025165e-05,-5.560756659717807684e-07
2.476984126984127066e+00,2.112826933168618354e-05,-6.087217411697278033e-06
2.477777777777777857e+00,1.332822097849423124e-05,-1.050150601904363583e-05
2.478571428571428648e+00,3.713556285819498486e-06,-1.344820637418139114e-05
2.479365079365079438e+00,-6.669606598584596795e-06,-1.479546477007330133e-05
2.480158730158730229e+00,-1.662950718733862906e-05,-1.462393134136315346e-05
2.480952380952381020e+00,-2.502942183785788506e-05,-1.319355631984741139e-05
2.481746031746031811e+00,-3.096965691556151319e-05,-1.089152073515813530e-05
2.482539682539682602e+00,-3.390966453251415707e-05,-8.165370686956972278e-06
2.483333333333333393e+00,-3.371369714778912338e-05,-5.449929862648128668e-06
2.484126984126984183e+00,-3.062800801489014876e-05,-3.105580794625803997e-06
2.484920634920634974e+00,-2.521045365665591933e-05,-1.385314547269535875e-06
2.485714285714285765e+00,-1.823260355179539909e-05,-4.327396800271396235e-07
2.486507936507936556e+00,-1.056758757777980266e-05,-2.949166386014523971e-07
2.487301587301587347e+00,-3.073034022095144684e-06,-9.307713042075966925e-07
2.488095238095238138e+00,3.519245580240808791e-06,-2.210316710320672789e-06
2.488888888888888928e+00,8.690659827325733860e-06,-3.914920240983779782e-06
2.489682539682539719e+00,1.218372456591970412e-05,-5.750137979255447381e-06
2.490476190476190510e+00,1.400057898681971026e-05,-7.374030865844775270e-06
2.491269841269841301e+00,1.435439388579279054e-05,-8.437378190851474547e-06
2.492063492063492092e+00,1.358848734228243767e-05,-8.632580817547994237e-06
2.492857142857142883e+00,1.208598191808796844e-05,-7.750126035024336340e-06
2.493650793650793673e+00,1.019337029890254424e-05,-5.737588466454506241e-06
2.494444444444444464e+00,8.174243708142201761e-06,-2.745222786293694125e-06
2.495238095238095255e+00,6.197747975334381542e-06,8.666723189419032400e-07
2.496031746031746046e+00,4.355259222599363194e-06,4.578075351892449478e-06
2.496825396825396837e+00,2.692130193086174768e-06,7.814494423733813535e-06
2.497619047619047628e+00,1.239465106964941842e-06,1.007779928583872455e-05
2.498412698412698418e+00,3.279387776697421165e-08,1.106040810860026620e-05
2.499206349206349209e+00,-8.895052108265779129e-07,1.070908965543653108e-05
2.500000000000000000e+00,-1.505508615635708859e-06,9.225746033883341907e-06
2.500793650793650791e+00,-1.834734639287471930e-06,7.011522366995788603e-06
2.501587301587301582e+00,-1.953241368466371177e-06,4.570450348228676448e-06
2.502380952380952372e+00,-1.988560380322421148e-06,2.392905250375814734e-06
2.503174603174603163e+00,-2.095172639788651444e-06,8.431460169829259139e-07
2.503968253968253954e+00,-2.420597932738550340e-06,7.877724007298194857e-08
2.504761904761904745e+00,-3.073797234444990063e-06,2.633738236433676202e-08
2.505555555555555536e+00,-4.101586747895876396e-06,4.218258314668264102e-07
2.506349206349206327e+00,-5.471707367921296346e-06,9.031486909152382603e-07
2.507142857142857117e+00,-7.060096905624575479e-06,1.124459961676240098e-06
2.507936507936507908e+00,-8.645492395712917250e-06,8.572999486990797473e-07
2.508730158730158699e+00,-9.921060477470444074e-06,4.981377422490679476e-08
2.509523809523809490e+00,-1.053394877141775755e-05,-1.170619590084600570e-06
2.510317460317460281e+00,-1.015688895379662872e-05,-2.548176606438055862e-06
2.511111111111111072e+00,-8.582758114409348691e-06,-3.782869598552795158e-06
2.511904761904761862e+00,-5.817761711512047652e-06,-4.618972323620951201e-06
2.512698412698412653e+00,-2.138223735476569047e-06,-4.910400615856940518e-06
2.513492063492063444e+00,1.922869000192548838e-06,-4.648029694331475908e-06
2.514285714285714235e+00,5.675411202239712537e-06,-3.949357873303229122e-06
2.515079365079365026e+00,8.440505527376860364e-06,-3.022059402098967910e-06
2.515873015873015817e+00,9.734680090223208994e-06,-2.115507861899648879e-06
2.516666666666666607e+00,9.400749291398660104e-06,-1.469179898929219474e-06
2.517460317460317398e+00,7.634987179324560932e-06,-1.259969177067217892e-06
2.518253968253968189e+00,4.906814910716098865e-06,-1.549311220061489695e-06
2.519047619047618980e+00,1.811964351593802218e-06,-2.238088733609883530e-06
2.519841269841269771e+00,-1.082311823487192391e-06,-3.047187096642538877e-06
2.520634920634920562e+00,-3.352713503049363450e-06,-3.545235401110445837e-06
2.521428571428571352e+00,-4.773970897817665617e-06,-3.235884634332347952e-06
2.522222222222222143e+00,-5.313747419042844416e-06,-1.695126662168589018e-06
2.523015873015872934e+00,-5.086384752872912214e-06,1.276279928746183717e-06
2.523809523809523725e+00,-4.288887479981173882e-06,5.535063542603440510e-06
2.524603174603174516e+00,-3.139472067361805221e-06,1.055719352826495925e-05
2.525396825396825307e+00,-1.831746238907149191e-06,1.550137481545575810e-05
2.526190476190476097e+00,-5.102048751298579906e-07,1.936638620652286150e-05
2.526984126984126888e+00,7.329319068506806065e-07,2.120730938543654285e-05
2.527777777777777679e+00,1.843855632984743596e-06,2.035911542619024897e-05
2.528571428571428470e+00,2.784385957062840274e-06,1.661320397131829183e-05
2.529365079365079261e+00,3.510843095627679857e-06,1.030258375811751057e-05
2.530158730158730052e+00,3.964404423397765144e-06,2.271071976405531147e-06
2.530952380952380842e+00,4.078059543876640415e-06,-6.273040786084784028e-06
2.531746031746031633e+00,3.798470990926354344e-06,-1.399206175644285595e-05
2.532539682539682424e+00,3.115485289883198677e-06,-1.969259570874036633e-05
2.533333333333333215e+00,2.089770199904767016e-06,-2.257328860250662765e-05
2.534126984126984006e+00,8.695485120937218693e-07,-2.238364826205615937e-05
2.534920634920634797e+00,-3.107221316828762350e-07,-1.945324521252588088e-05
2.535714285714285587e+00,-1.153954707476379808e-06,-1.458859633201731357e-05
2.536507936507936378e+00,-1.346471331887748785e-06,-8.873398148754584475e-06
2.537301587301587169e+00,-6.217188150370926058e-07,-3.430285928029690827e-06
2.538095238095237960e+00,1.168344948266549722e-06,7.970645964636193157e-07
2.538888888888888751e+00,3.989206982489695987e-06,3.198749208843733077e-06
2.539682539682539542e+00,7.585616541185300765e-06,3.570871536921864138e-06
2.540476190476190332e+00,1.148777775177517556e-05,2.107359842987781608e-06
2.541269841269841123e+00,1.507432698832830901e-05,-6.726439368113769404e-07
2.542063492063491914e+00,1.769019776075570667e-05,-4.041400560920883511e-06
2.542857142857142705e+00,1.879635172550746109e-05,-7.203571528025170432e-06
2.543650793650793496e+00,1.810833986565106425e-05,-9.441691198934698529e-06
2.544444444444444287e+00,1.567482248080542294e-05,-1.024328373216900393e-05
2.545238095238095077e+00,1.186458990959196973e-05,-9.386312355817769923e-06
2.546031746031745868e+00,7.265446664928208993e-06,-6.966663665428722710e-06
2.546825396825396659e+00,2.531396622729285466e-06,-3.364470175374363631e-06
2.547619047619047450e+00,-1.770899802812317069e-06,8.405764606179545775e-07
2.548412698412698241e+00,-5.272160877972686434e-06,4.985507693729472201e-06
2.549206349206349032e+00,-7.842674380434562758e-06,8.448512097657574364e-06
2.549999999999999822e+00,-9.565331098917289747e-06,1.075898662313583200e-05
2.550793650793650613e+00,-1.065698832605111335e-05,1.167555414393818032e-05
2.551587301587301404e+00,-1.136646518267654602e-05,1.122149714169475564e-05
2.552380952380952195e+00,-1.187967476734826480e-05,9.674540790146886763e-06
2.553174603174602986e+00,-1.225718764394670787e-05,7.514688341615782977e-06
2.553968253968253777e+00,-1.241892764768507922e-05,5.339387620327932675e-06
2.554761904761904567e+00,-1.217750748035962722e-05,3.759324897951038586e-06
2.555555555555555358e+00,-1.130904507378271517e-05,3.290215014428753999e-06
2.556349206349206149e+00,-9.640538746282265270e-06,4.255933001234640780e-06
2.557142857142856940e+00,-7.127670220772784933e-06,6.716705339224617457e-06
2.557936507936507731e+00,-3.898420669921848120e-06,1.043387787101355003e-05
2.558730158730158522e+00,-2.479123797000259341e-07,1.488025002008571468e-05
2.559523809523809312e+00,3.413719923587507118e-06,1.930049746530197881e-05
2.560317460317460103e+00,6.642762085186839116e-06,2.281818745497589285e-05
2.561111111111110894e+00,9.046948578520300549e-06,2.457586509738547914e-05
2.561904761904761685e+00,1.035135050139559871e-05,2.388650440352406003e-05
2.562698412698412920e+00,1.043434717591458712e-05,2.037037439202317831e-05
2.563492063492063711e+00,9.337071414803770525e-06,1.405094703639991598e-05
2.564285714285714501e+00,7.257182267578724140e-06,5.387667907380549715e-06
2.565079365079365292e+00,4.533729876616581388e-06,-4.766410437192665552e-06
2.565873015873016083e+00,1.618261807893091082e-06,-1.527962163275317737e-05
2.566666666666666874e+00,-9.811756303709198886e-07,-2.491202563332908904e-05
2.567460317460317665e+00,-2.791890364721149126e-06,-3.251142615570600051e-05
2.568253968253968456e+00,-3.493166938805581267e-06,-3.719719342314496945e-05
2.569047619047619246e+00,-3.020974884069274497e-06,-3.849401206197341688e-05
2.569841269841270037e+00,-1.610651086151437323e-06,-3.638912972482931483e-05
2.570634920634920828e+00,2.583213679715757306e-07,-3.130607496612936144e-05
2.571428571428571619e+00,2.008494271348944106e-06,-2.400602156226314124e-05
2.572222222222222410e+00,3.142867856955450077e-06,-1.543869320206315117e-05
2.573015873015873201e+00,3.370477604868353435e-06,-6.569483775764862774e-06
2.573809523809523991e+00,2.619106894111082721e-06,1.786421398023996940e-06
2.574603174603174782e+00,9.407272332232649165e-07,9.087814507680170683e-06
2.575396825396825573e+00,-1.623211814453678738e-06,1.511582623787774251e-05
2.576190476190476364e+00,-5.131507987823777850e-06,1.992913630730045021e-05
2.576984126984127155e+00,-9.731123315533337547e-06,2.373717962622617550e-05
2.577777777777777946e+00,-1.553655504054904591e-05,2.673347283242569553e-05
2.578571428571428736e+00,-2.244099412058334715e-05,2.894935529472094447e-05
2.579365079365079527e+00,-2.993132389802713821e-05,3.018478382591938345e-05
2.580158730158730318e+00,-3.699101531289001314e-05,3.004734092939717968e-05
2.580952380952381109e+00,-4.216314640250658241e-05,2.809061661381694215e-05
2.581746031746031900e+00,-4.380584080674325865e-05,2.400244743437622647e-05
2.582539682539682691e+00,-4.050752407785482024e-05,1.777020781328836474e-05
2.583333333333333481e+00,-3.155710812301661935e-05,9.757639161348249593e-06
2.584126984126984272e+00,-1.731449151508625826e-05,6.636592649246633368e-07
2.584920634920635063e+00,6.703434242764248998e-07,-8.619012828264043389e-06
2.585714285714285854e+00,1.987306494079822333e-05,-1.719065592366554756e-05
2.586507936507936645e+00,3.731288353401869106e-05,-2.431013121365672668e-05
2.587301587301587436e+00,5.022344725978028816e-05,-2.948768163771692694e-05
2.588095238095238226e+00,5.666838186730635806e-05,-3.248670930793224801e-05
2.588888888888889017e+00,5.592329922879797589e-05,-3.325404082453310928e-05
2.589682539682539808e+00,4.854463378994848955e-05,-3.182608043637528289e-05
2.590476190476190599e+00,3.615311545762611657e-05,-2.826549262838057422e-05
2.591269841269841390e+00,2.102757344793247738e-05,-2.266635217508482971e-05
2.592063492063492181e+00,5.625005191015770292e-06,-1.523146177986698495e-05
2.592857142857142971e+00,-7.868254931338104004e-06,-6.387297462788339631e-06
2.593650793650793762e+00,-1.787718327576081443e-05,3.125334420236220006e-06
2.594444444444444553e+00,-2.362847157803966405e-05,1.225123441007064403e-05
2.595238095238095344e+00,-2.518041873437207269e-05,1.975232467766680828e-05
2.596031746031746135e+00,-2.330295907639495676e-05,2.446077672069840229e-05
2.596825396825396925e+00,-1.923231734541313968e-05,2.558634877181950197e-05
2.597619047619047716e+00,-1.434268077349519954e-05,2.297386333868047171e-05
2.598412698412698507e+00,-9.801962112435185322e-06,1.721006424525141842e-05
2.599206349206349298e+00,-6.296739294657876748e-06,9.523225661172321607e-06
2.600000000000000089e+00,-3.904555097606801612e-06,1.488798646666725470e-06
2.600793650793650880e+00,-2.154191510245390494e-06,-5.374557120853628430e-06
2.601587301587301670e+00,-2.574800954945905588e-07,-9.990864926156327089e-06
2.602380952380952461e+00,2.560289384698380254e-06,-1.197280345245707018e-05
2.603174603174603252e+00,6.739668260052388657e-06,-1.165907204474400380e-05
2.603968253968254043e+00,1.218333031863413796e-05,-9.948019764197743649e-06
2.604761904761904834e+00,1.823652303217731483e-05,-7.994029111981754669e-06
2.605555555555555625e+00,2.385396790241297308e-05,-6.865112967281091965e-06
2.606349206349206415e+00,2.789139743587371238e-05,-7.260682919005942972e-06
2.607142857142857206e+00,2.942189880601306083e-05,-9.361928919266962416e-06
2.607936507936507997e+00,2.797900874962049186e-05,-1.284113164827862238e-05
2.608730158730158788e+00,2.366522878778669068e-05,-1.700430813866575568e-05
2.609523809523809579e+00,1.711510994864434720e-05,-2.100280182010871852e-05
2.610317460317460370e+00,9.342620344396761482e-06,-2.403859258983327186e-05
2.611111111111111160e+00,1.522106800832545827e-06,-2.550683559590473785e-05
2.611904761904761951e+00,-5.245307579661214309e-06,-2.505505841839101474e-05
2.612698412698412742e+00,-1.013380366300074255e-05,-2.257313989387803234e-05
2.613492063492063533e+00,-1.272727587163484053e-05,-1.814783647952637253e-05
2.614285714285714324e+00,-1.306473065374613158e-05,-1.201655989982551807e-05
2.615079365079365115e+00,-1.159455063150899912e-05,-4.541644895560554306e-06
2.615873015873015905e+00,-9.054388844441192203e-06,3.794107046843016485e-06
2.616666666666666696e+00,-6.305957347535134054e-06,1.238850599853131582e-05
2.617460317460317487e+00,-4.157538549176699095e-06,2.054329599944086613e-05
2.618253968253968278e+00,-3.204283374370347375e-06,2.752724098209292233e-05
2.619047619047619069e+00,-3.712055762694045920e-06,3.267688342635358573e-05
2.619841269841269860e+00,-5.566444484687693960e-06,3.551276302703956376e-05
2.620634920634920650e+00,-8.301101823098999908e-06,3.583803669210131390e-05
2.621428571428571441e+00,-1.120474684368154160e-05,3.378856595248993963e-05
2.622222222222222232e+00,-1.348601311720054031e-05,2.981658320344666700e-05
2.623015873015873023e+00,-1.445805489544446876e-05,2.460851437550377465e-05
2.623809523809523814e+00,-1.369839539234092845e-05,1.895508412024871089e-05
2.624603174603174605e+00,-1.114614059492330188e-05,1.360367704692777704e-05
2.625396825396825395e+00,-7.115114983145949389e-06,9.126734455027063074e-06
2.626190476190476186e+00,-2.222392146505164295e-06,5.835353633766309762e-06
2.626984126984126977e+00,2.747913759269752066e-06,3.755515760461617154e-06
2.627777777777777768e+00,7.010906770878483989e-06,2.668523314838609654e-06
2.628571428571428559e+00,9.938033658167409591e-06,2.201387525048364909e-06
2.629365079365079350e+00,1.117256820783861000e-05,1.941044988508351334e-06
2.630158730158730140e+00,1.068398446603845687e-05,1.541609911664660447e-06
2.630952380952380931e+00,8.755415455925748470e-06,7.983411115781425440e-07
2.631746031746031722e+00,5.910711556886889234e-06,-3.253205858335360152e-07
2.632539682539682513e+00,2.798376984999693814e-06,-1.715611829793060814e-06
2.633333333333333304e+00,5.722244513503565414e-08,-3.157706165095594109e-06
2.634126984126984095e+00,-1.809042109740595137e-06,-4.399474818093417465e-06
2.634920634920634885e+00,-2.524039465487523583e-06,-5.215293427745291419e-06
2.635714285714285676e+00,-2.080830340541687729e-06,-5.459032208609657578e-06
2.636507936507936467e+00,-7.273259785614294354e-07,-5.098139948962913843e-06
2.637301587301587258e+00,1.099662848541637702e-06,-4.223731974708551581e-06
2.638095238095238049e+00,2.875638818067414122e-06,-3.035495714285119662e-06
2.638888888888888840e+00,4.101975226147296901e-06,-1.804141616639335379e-06
2.639682539682539630e+00,4.407567050212806506e-06,-8.174193516689815378e-07
2.640476190476190421e+00,3.618441439690081580e-06,-3.187644706758566867e-07
2.641269841269841212e+00,1.783645884717230189e-06,-4.503319877679304374e-07
2.642063492063492003e+00,-8.437872288291189585e-07,-1.213324494613638536e-06
2.642857142857142794e+00,-3.862692240487916495e-06,-2.457026153571986785e-06
2.643650793650793585e+00,-6.802550897842995103e-06,-3.903209930978295506e-06
2.644444444444444375e+00,-9.209377823113748895e-06,-5.204297872138182617e-06
2.645238095238095166e+00,-1.072383266330784665e-05,-6.023175151034771079e-06
2.646031746031745957e+00,-1.113930601051944275e-05,-6.114034720828189837e-06
2.646825396825396748e+00,-1.043106278763423007e-05,-5.381784885811266973e-06
2.647619047619047539e+00,-8.751754697650481591e-06,-3.904055831532314466e-06
2.648412698412698330e+00,-6.394866222147423584e-06,-1.912219175686213874e-06
2.649206349206349120e+00,-3.735383974998797902e-06,2.591155665103937475e-07
2.649999999999999911e+00,-1.162530338368121184e-06,2.236634548075658960e-06
2.650793650793650702e+00,9.809225732774507650e-07,3.669565110481549506e-06
2.651587301587301493e+00,2.444063480007039804e-06,4.277041931690673675e-06
2.652380952380952284e+00,3.096044661163503400e-06,3.879259478447876329e-06
2.653174603174603075e+00,2.938207421976372985e-06,2.415735583138774089e-06
2.653968253968253865e+00,2.099986427978947114e-06,-4.429171848495417536e-08
2.654761904761904656e+00,8.163866165157913694e-07,-3.296798787064999060e-06
2.655555555555555447e+00,-6.141041199617799573e-07,-7.006808868839176680e-06
2.656349206349206238e+00,-1.887435578082774407e-06,-1.073060855110413043e-05
2.657142857142857029e+00,-2.757788014716698316e-06,-1.396497138057057671e-05
2.657936507936507819e+00,-3.092753010442007908e-06,-1.622136286614308758e-05
2.658730158730158610e+00,-2.904703022154252390e-06,-1.710855498976587456e-05
2.659523809523809401e+00,-2.347080450321251183e-06,-1.639957884957418956e-05
2.660317460317460192e+00,-1.672464522393971674e-06,-1.406493038558631812e-05
2.661111111111110983e+00,-1.159791975390346560e-06,-1.026985300521667380e-05
2.661904761904761774e+00,-1.028105017680046161e-06,-5.348481031596986307e-06
2.662698412698412564e+00,-1.360481787616954064e-06,2.283186511257790979e-07
2.663492063492063355e+00,-2.061869421204981170e-06,5.882989173304524277e-06
2.664285714285714146e+00,-2.867341741282156589e-06,1.096440065316486241e-05
2.665079365079364937e+00,-3.403870245050451070e-06,1.479788730386553344e-05
2.665873015873015728e+00,-3.292295712810753173e-06,1.676317732988659288e-05
2.666666666666666519e+00,-2.261614807841041573e-06,1.639738972363174598e-05
2.667460317460317309e+00,-2.402032727114955039e-07,1.350321000585637607e-05
2.668253968253968100e+00,2.607357922963577324e-06,8.231954979060573417e-06
2.669047619047618891e+00,5.912340569324280013e-06,1.113220549329266791e-06
2.669841269841269682e+00,9.192542659203601656e-06,-6.984271257201851775e-06
2.670634920634920473e+00,1.196963851223679365e-05,-1.495886971824982273e-05
2.671428571428571264e+00,1.387388450428742365e-05,-2.163317307710293345e-05
2.672222222222222054e+00,1.470677012355009506e-05,-2.593752368688823602e-05
2.673015873015872845e+00,1.445190582046024129e-05,-2.709065112843133061e-05
2.673809523809523636e+00,1.324291053809993526e-05,-2.474552220123374640e-05
2.674603174603174427e+00,1.130782220837318202e-05,-1.906853477558378198e-05
2.675396825396825218e+00,8.911674954743644254e-06,-1.072839647323175401e-05
2.676190476190476009e+00,6.313723686362934086e-06,-7.910984266758684909e-07
2.676984126984126799e+00,3.745749091053785612e-06,9.456137989150220904e-06
2.677777777777777590e+00,1.407095598035813360e-06,1.870950786053674985e-05
2.678571428571428381e+00,-5.345479847180319716e-07,2.583695812987751191e-05
2.679365079365079172e+00,-1.947460146684135008e-06,3.001903057582750939e-05
2.680158730158729963e+00,-2.750181651779756489e-06,3.083105205741413509e-05
2.680952380952380754e+00,-2.932407928070025947e-06,2.827072601432699107e-05
2.681746031746031544e+00,-2.572505086322487850e-06,2.274053526989087298e-05
2.682539682539682335e+00,-1.839892229977742022e-06,1.499236789824425300e-05
2.683333333333333126e+00,-9.743620093450027461e-07,6.037832355239065495e-06
2.684126984126983917e+00,-2.420193132033117718e-07,-2.974116318850741406e-06
2.684920634920634708e+00,1.239881711991931348e-07,-1.090757508427570945e-05
2.685714285714285499e+00,-1.719728797224310509e-08,-1.680388045874361722e-05
2.686507936507936289e+00,-6.730663023331501385e-07,-2.003207846878060381e-05
2.687301587301587080e+00,-1.710250304483698266e-06,-2.038999092606959046e-05
2.688095238095238315e+00,-2.886373886251596677e-06,-1.812567445875714437e-05
2.688888888888889106e+00,-3.914119293972898584e-06,-1.386843725200053034e-05
2.689682539682539897e+00,-4.539403779783970021e-06,-8.483721490080250026e-06
2.690476190476190688e+00,-4.610539822910247843e-06,-2.887306712975707915e-06
2.691269841269841478e+00,-4.117592917459965791e-06,2.135251702728658867e-06
2.692063492063492269e+00,-3.190172902829272073e-06,6.060943917962141154e-06
2.692857142857143060e+00,-2.055088654901984371e-06,8.685344024895391026e-06
2.693650793650793851e+00,-9.684676790344050893e-07,1.009649424575268195e-05
2.694444444444444642e+00,-1.451880658030842593e-07,1.058314778549369862e-05
2.695238095238095433e+00,2.918227218996583621e-07,1.050957508924596131e-05
2.696031746031746223e+00,3.287956737602893684e-07,1.019422236409638216e-05
2.696825396825397014e+00,4.445376654115610890e-08,9.824612672948317062e-06
2.697619047619047805e+00,-4.297036142312467414e-07,9.429194905407376170e-06
2.698412698412698596e+00,-9.561670054106965306e-07,8.910780325898228442e-06
2.699206349206349387e+00,-1.430049487045970717e-06,8.127372691762437687e-06
2.700000000000000178e+00,-1.799387089307937501e-06,6.988811094177054148e-06
2.700793650793650968e+00,-2.064310798301820997e-06,5.529527379170493820e-06
2.701587301587301759e+00,-2.259761891931083058e-06,3.925509779246727935e-06
2.702380952380952550e+00,-2.431101454160512622e-06,2.446380028303133572e-06
2.703174603174603341e+00,-2.612485287425908143e-06,1.361587573422135534e-06
2.703968253968254132e+00,-2.814971171248362209e-06,8.395874131830924732e-07
2.704761904761904923e+00,-3.026403559000115449e-06,8.809377175632145761e-07
2.705555555555555713e+00,-3.219763512572186275e-06,1.310310263068103394e-06
2.706349206349206504e+00,-3.363220533929902512e-06,1.827472675767125719e-06
2.707142857142857295e+00,-3.425771445901224796e-06,2.096015300515490218e-06
2.707936507936508086e+00,-3.376927335971651364e-06,1.839554946067169262e-06
2.708730158730158877e+00,-3.184245053730270934e-06,9.186943349231338562e-07
2.709523809523809668e+00,-2.814766196591724846e-06,-6.276484800769907725e-07
2.710317460317460458e+00,-2.244290277780384200e-06,-2.582172877307703142e-06
2.711111111111111249e+00,-1.473686451523226916e-06,-4.587926312362873459e-06
2.711904761904762040e+00,-5.469115969418735696e-07,-6.217614338466714844e-06
2.712698412698412831e+00,4.373215437080495445e-07,-7.060586861530994246e-06
2.713492063492063622e+00,1.328634795480881128e-06,-6.811187190375204696e-06
2.714285714285714413e+00,1.948634384179876837e-06,-5.341664340150747998e-06
2.715079365079365203e+00,2.134613617764005103e-06,-2.746031479311531940e-06
2.715873015873015994e+00,1.793246043583395941e-06,6.534760758552220637e-07
2.716666666666666785e+00,9.450871968269512723e-07,4.340813497210137178e-06
2.717460317460317576e+00,-2.612147063202957341e-07,7.681214891076948025e-06
2.718253968253968367e+00,-1.576325950742161964e-06,1.003221560650177334e-05
2.719047619047619158e+00,-2.712945487414187932e-06,1.087696676649479275e-05
2.719841269841269948e+00,-3.422144163282551163e-06,9.952464008624218274e-06
2.720634920634920739e+00,-3.556465405716876525e-06,7.333230039722861051e-06
2.721428571428571530e+00,-3.099126438742179673e-06,3.432227862505136141e-06
2.722222222222222321e+00,-2.152352350491745905e-06,-1.096758822390308279e-06
2.723015873015873112e+00,-8.931702088628511917e-07,-5.532580519929952745e-06
2.723809523809523903e+00,4.841742538701832539e-07,-9.277585123523273496e-06
2.724603174603174693e+00,1.817814954913254639e-06,-1.199573082602384990e-05
2.725396825396825484e+00,3.005040299789764831e-06,-1.364917489328991480e-05
2.726190476190476275e+00,4.002509060804896072e-06,-1.442908590686537710e-05
2.726984126984127066e+00,4.806288178031269215e-06,-1.462121774731372150e-05
2.727777777777777857e+00,5.423639157577278892e-06,-1.447014554117737175e-05
2.728571428571428648e+00,5.848963162668143209e-06,-1.409885622495151641e-05
2.729365079365079438e+00,6.052897077091860281e-06,-1.350863198334029063e-05
2.730158730158730229e+00,5.987371045804147190e-06,-1.264428873650339508e-05
2.730952380952381020e+00,5.602209928270782807e-06,-1.148086250094663849e-05
2.731746031746031811e+00,4.864212950148366839e-06,-1.008293082287109361e-05
2.732539682539682602e+00,3.770829878394377831e-06,-8.607232089867372096e-06
2.733333333333333393e+00,2.356333907762760437e-06,-7.250274831150358227e-06
2.734126984126984183e+00,6.936555643641932317e-07,-6.167957752638478316e-06
2.734920634920634974e+00,-1.104219838639240855e-06,-5.403290037613618375e-06
2.735714285714285765e+00,-2.882997955384189648e-06,-4.851567129920219069e-06
2.736507936507936556e+00,-4.450373619102403642e-06,-4.276941944213460117e-06
2.737301587301587347e+00,-5.590518429760329729e-06,-3.377093107713326164e-06
2.738095238095238138e+00,-6.094116676601057707e-06,-1.877625090165489051e-06
2.738888888888888928e+00,-5.801633513661840611e-06,3.719352866692470646e-07
2.739682539682539719e+00,-4.649038620077655764e-06,3.329910479739156612e-06
2.740476190476190510e+00,-2.699766034694589252e-06,6.743119395936825238e-06
2.741269841269841301e+00,-1.487964445245866158e-07,1.018295383858877112e-05
2.742063492063492092e+00,2.705127282401498928e-06,1.312809887919043460e-05
2.742857142857142883e+00,5.510405301775982410e-06,1.507362013184113786e-05
2.743650793650793673e+00,7.920704170274318309e-06,1.564080868896865036e-05
2.744444444444444464e+00,9.646796574496667269e-06,1.466327455122418292e-05
2.745238095238095255e+00,1.049623393194370898e-05,1.223107382692450704e-05
2.746031746031746046e+00,1.039966063687714123e-05,8.683988394677379268e-06
2.746825396825396837e+00,9.421101146934029183e-06,4.555343420380469192e-06
2.747619047619047628e+00,7.746387057495507519e-06,4.774948436354081328e-07
2.748412698412698418e+00,5.645678282105146219e-06,-2.931817697571818563e-06
2.749206349206349209e+00,3.414526158769414557e-06,-5.178136113296550946e-06
2.750000000000000000e+00,1.308263023849513322e-06,-5.969836158901830982e-06
2.750793650793650791e+00,-5.104940030701957141e-07,-5.250852289726883048e-06
2.751587301587301582e+00,-1.995100644752108054e-06,-3.181716357461167835e-06
2.752380952380952372e+00,-3.202431795100900963e-06,-8.005723518238443678e-08
2.753174603174603163e+00,-4.248765777509010614e-06,3.655639292186626355e-06
2.753968253968253954e+00,-5.246400040801026784e-06,7.612048723383832933e-06
2.754761904761904745e+00,-6.239179407996475673e-06,1.139780559989018678e-05
2.755555555555555536e+00,-7.158153943322284847e-06,1.464762685343888933e-05
2.756349206349206327e+00,-7.817029219750207001e-06,1.700700800653801712e-05
2.757142857142857117e+00,-7.958344593273440000e-06,1.812165858120704033e-05
2.757936507936507908e+00,-7.345014486064160428e-06,1.765547413458931319e-05
2.758730158730158699e+00,-5.872133124647708681e-06,1.534759417212432734e-05
2.759523809523809490e+00,-3.658869868419200620e-06,1.109738101221763155e-05
2.760317460317460281e+00,-1.078549983861690506e-06,5.046136472148572981e-06
2.761111111111111072e+00,1.298515171688776504e-06,-2.381867844286622656e-06
2.761904761904761862e+00,2.843414457633658985e-06,-1.050263495578192480e-05
2.762698412698412653e+00,3.048602995874725293e-06,-1.845645652821056740e-05
2.763492063492063444e+00,1.691092276256836836e-06,-2.532627632222188659e-05
2.764285714285714235e+00,-1.074134435181269383e-06,-3.025904825693107050e-05
2.765079365079365026e+00,-4.719942717328628627e-06,-3.257019176128008792e-05
2.765873015873015817e+00,-8.453523180064868593e-06,-3.182604750634217256e-05
2.766666666666666607e+00,-1.140040407329775833e-05,-2.790601107416885461e-05
2.767460317460317398e+00,-1.282200846952410368e-05,-2.104252214445112592e-05
2.768253968253968189e+00,-1.230713159048595710e-05,-1.182852697899036505e-05
2.769047619047618980e+00,-9.875529988352113798e-06,-1.176406761481130318e-06
2.769841269841269771e+00,-5.952519482793089993e-06,9.783486588229716669e-06
2.770634920634920562e+00,-1.217759498864854572e-06,1.986030639834159394e-05
2.771428571428571352e+00,3.616429649268552738e-06,2.798843960325546023e-05
2.772222222222222143e+00,8.010279409452736085e-06,3.339531025096561243e-05
2.773015873015872934e+00,1.170815675446805391e-05,3.570481048267919551e-05
2.773809523809523725e+00,1.472364738667550337e-05,3.495127946435597183e-05
2.774603174603174516e+00,1.721626469034888551e-05,3.151035536346898590e-05
2.775396825396825307e+00,1.931288470167263953e-05,2.597710680455285118e-05
2.776190476190476097e+00,2.094103365842764643e-05,1.903073372219136073e-05
2.776984126984126888e+00,2.173831600212735915e-05,1.132255111812947465e-05
2.777777777777777679e+00,2.108476512636396925e-05,3.414180129612295218e-06
2.778571428571428470e+00,1.827229763171136785e-05,-4.224744563025636669e-06
2.779365079365079261e+00,1.278021531115208922e-05,-1.117387780473087871e-05
2.780158730158730052e+00,4.578434788292990874e-06,-1.700956680286427284e-05
2.780952380952380842e+00,-5.650273958666291054e-06,-2.128272671373701203e-05
2.781746031746031633e+00,-1.647257300705067340e-05,-2.355290578253079516e-05
2.782539682539682424e+00,-2.590856877639501448e-05,-2.347686578836356565e-05
2.783333333333333215e+00,-3.186017338847440530e-05,-2.092456383741904028e-05
2.784126984126984006e+00,-3.266765538729587693e-05,-1.608360115379482596e-05
2.784920634920634797e+00,-2.764069400539300261e-05,-9.515777253732917262e-06
2.785714285714285587e+00,-1.739587501099019035e-05,-2.139192246012737921e-06
2.786507936507936378e+00,-3.873786100425520608e-06,4.878219364334853815e-06
2.787301587301587169e+00,1.000109981431420286e-05,1.031013642073688918e-05
2.788095238095237960e+00,2.094666032294042974e-05,1.311945456685266070e-05
2.788888888888888751e+00,2.608175347671802993e-05,1.270780552801174607e-05
2.789682539682539542e+00,2.363391668876570293e-05,9.101432087916002438e-06
2.790476190476190332e+00,1.343140627673299876e-05,3.018579924561098563e-06
2.791269841269841123e+00,-2.939800198080901682e-06,-4.210426788796402120e-06
2.792063492063491914e+00,-2.237154958049073519e-05,-1.087131522441691698e-05
2.792857142857142705e+00,-4.083803785372400495e-05,-1.521687971969485815e-05
2.793650793650793496e+00,-5.425127565863814756e-05,-1.588370746790381650e-05
2.794444444444444287e+00,-5.936814176873172794e-05,-1.228017850770973381e-05
2.795238095238095077e+00,-5.451783899373313701e-05,-4.828445119770803466e-06
2.796031746031745868e+00,-3.996015931223395438e-05,5.040154280302903851e-06
2.796825396825396659e+00,-1.779456430163127740e-05,1.517278196144776186e-05
2.797619047619047450e+00,8.521042895400835989e-06,2.321022149204139256e-05
2.798412698412698241e+00,3.487579813124224294e-05,2.719102617324046944e-05
2.799206349206349032e+00,5.724599949835976719e-05,2.606854601281743676e-05
2.799999999999999822e+00,7.233962064237687412e-05,1.998588968525975886e-05
2.800793650793650613e+00,7.809270891792946989e-05,1.022479388018614370e-05
2.801587301587301404e+00,7.399020787089266018e-05,-1.157359107041212095e-06
2.802380952380952195e+00,6.115447525346934124e-05,-1.189244204624764120e-05
2.803174603174602986e+00,4.213043860718867980e-05,-2.009748102554900732e-05
2.803968253968253777e+00,2.035574584732288193e-05,-2.472501745844761205e-05
2.804761904761904567e+00,-5.813160557917773385e-07,-2.574092133668911530e-05
2.805555555555555358e+00,-1.769837659933183379e-05,-2.399153400793775778e-05
2.806349206349206149e+00,-2.917529087888505980e-05,-2.082558712975848871e-05
2.807142857142856940e+00,-3.456290137194995834e-05,-1.761954964390314063e-05
2.807936507936507731e+00,-3.461698567672397267e-05,-1.537939647043231014e-05
2.808730158730158522e+00,-3.085481051849858986e-05,-1.454046409912423798e-05
2.809523809523809312e+00,-2.501146342021205387e-05,-1.498660514225444195e-05
2.810317460317460103e+00,-1.857807614892948518e-05,-1.621856406143225277e-05
2.811111111111110894e+00,-1.254291455118680016e-05,-1.756650337974324764e-05
2.811904761904761685e+00,-7.367913244350855850e-06,-1.836617507772911890e-05
2.812698412698412920e+00,-3.154715563640070896e-06,-1.807121751909094212e-05
2.813492063492063711e+00,9.993248123830850661e-08,-1.631980215861883338e-05
2.814285714285714501e+00,2.286370722747038726e-06,-1.298763456106904787e-05
2.815079365079365292e+00,3.114938482025361084e-06,-8.234467697987166634e-06
2.815873015873016083e+00,2.243789354362464605e-06,-2.510175242930717996e-06
2.816666666666666874e+00,-4.606846521426124033e-07,3.528044283345207170e-06
2.817460317460317665e+00,-4.678655098865718653e-06,9.199238747051614800e-06
2.818253968253968456e+00,-9.560368120149599102e-06,1.402896342391804802e-05
2.819047619047619246e+00,-1.388881228976799028e-05,1.792431205940493794e-05
2.819841269841270037e+00,-1.643052303175705165e-05,2.119611220189878149e-05
2.820634920634920828e+00,-1.633265769179270200e-05,2.438922141923575984e-05
2.821428571428571619e+00,-1.340520426634586051e-05,2.796891751666444526e-05
2.822222222222222410e+00,-8.178298526144136272e-06,3.198590693384138100e-05
2.823015873015873201e+00,-1.717330989343701539e-06,3.586755474430206340e-05
2.823809523809523991e+00,4.726277818409069234e-06,3.844569205427531830e-05
2.824603174603174782e+00,1.009130178978583977e-05,3.824766135648707333e-05
2.825396825396825573e+00,1.377347642667015909e-05,3.397910030281526932e-05
2.826190476190476364e+00,1.570408700560989453e-05,2.504752794331231347e-05
2.826984126984127155e+00,1.624410211124261710e-05,1.194296428301319505e-05
2.827777777777777946e+00,1.596448364263506036e-05,-3.676353933216220129e-06
2.828571428571428736e+00,1.540988037725590974e-05,-1.925175238313589184e-05
2.829365079365079527e+00,1.492715045541232076e-05,-3.188253163922383882e-05
2.830158730158730318e+00,1.459746254012822603e-05,-3.901415984445019924e-05
2.830952380952381109e+00,1.426502430538175963e-05,-3.905992483482449284e-05
2.831746031746031900e+00,1.362705855591997016e-05,-3.179123626370306758e-05
2.832539682539682691e+00,1.234426106601956702e-05,-1.840570650710660652e-05
2.833333333333333481e+00,1.014081539571761352e-05,-1.268373127298146951e-06
2.834126984126984272e+00,6.877288929313532808e-06,1.659985359087438330e-05
2.834920634920635063e+00,2.591566306618441471e-06,3.215412429683021787e-05
2.835714285714285854e+00,-2.490738334493714825e-06,4.292153399080398551e-05
2.836507936507936645e+00,-7.974340651172572171e-06,4.742413019957256425e-05
2.837301587301587436e+00,-1.334017683035232314e-05,4.534911460967044352e-05
2.838095238095238226e+00,-1.801681983249489929e-05,3.745955189437749698e-05
2.838888888888889017e+00,-2.146914690380687552e-05,2.530527306036926052e-05
2.839682539682539808e+00,-2.328962588518135267e-05,1.083625979021173870e-05
2.840476190476190599e+00,-2.327462055504516298e-05,-3.970587164460010217e-06
2.841269841269841390e+00,-2.146804998782551267e-05,-1.738816810563246557e-05
2.842063492063492181e+00,-1.815640080828518233e-05,-2.808845448398842375e-05
2.842857142857142971e+00,-1.380627873367681161e-05,-3.518377437241401609e-05
2.843650793650793762e+00,-8.954215821271477733e-06,-3.820542498485266587e-05
2.844444444444444553e+00,-4.084478684595957765e-06,-3.706471280449254423e-05
2.845238095238095344e+00,4.547149493155671332e-07,-3.202886974622086409e-05
2.846031746031746135e+00,4.461524225203698371e-06,-2.372753809720810653e-05
2.846825396825396925e+00,7.822954289787195141e-06,-1.318215173158059291e-05
2.847619047619047716e+00,1.043273147656855849e-05,-1.820501092906099645e-06
2.848412698412698507e+00,1.213691195109431674e-05,8.584658652682351622e-06
2.849206349206349298e+00,1.273866636648018115e-05,1.611031586246991428e-05
2.850000000000000089e+00,1.206241139021273395e-05,1.902707094700206684e-05
2.850793650793650880e+00,1.005501810471486521e-05,1.624040134338989167e-05
2.851587301587301670e+00,6.890097632785763867e-06,7.712569789150476314e-06
2.852380952380952461e+00,3.032512075352159504e-06,-5.284231090955468484e-06
2.853174603174603252e+00,-7.819818717192235925e-07,-2.021369467246229561e-05
2.853968253968254043e+00,-3.677512860352029862e-06,-3.367630466444319025e-05
2.854761904761904834e+00,-4.860075087191408488e-06,-4.211383741808921954e-05
2.855555555555555625e+00,-3.861045777099431823e-06,-4.266524416635188345e-05
2.856349206349206415e+00,-7.060837023664730025e-07,-3.396277615406267621e-05
2.857142857142857206e+00,4.068734102332462062e-06,-1.665316164416002004e-05
2.857936507936507997e+00,9.570451759817385226e-06,6.522241371241463087e-06
2.858730158730158788e+00,1.481260375360275438e-05,3.115947234990011731e-05
2.859523809523809579e+00,1.897951737684102798e-05,5.208191567809974205e-05
2.860317460317460370e+00,2.159152438713501316e-05,6.450511333004237873e-05
2.861111111111111160e+00,2.252947856698578753e-05,6.519723368289868058e-05
2.861904761904761951e+00,2.194446771345712484e-05,5.332724095767122805e-05
2.862698412698412742e+00,2.011751635590311777e-05,3.075211183743202867e-05
2.863492063492063533e+00,1.733489398794960709e-05,1.637712388284093420e-06
2.864285714285714324e+00,1.382022936131517454e-05,-2.850115537767562417e-05
2.865079365079365115e+00,9.731783540868032322e-06,-5.408179245396623668e-05
2.865873015873015905e+00,5.204427950027831437e-06,-7.070335002699616104e-05
2.866666666666666696e+00,4.003143017572694252e-07,-7.603334642139503738e-05
2.867460317460317487e+00,-4.464698622656300696e-06,-7.012018154863754594e-05
2.868253968253968278e+00,-9.132654733101871640e-06,-5.510014257603609866e-05
2.869047619047619069e+00,-1.334344210293202302e-05,-3.444656101987536703e-05
2.869841269841269860e+00,-1.687982725073257519e-05,-1.202741358750460175e-05
2.870634920634920650e+00,-1.959725335356686754e-05,8.743909075893302371e-06
2.871428571428571441e+00,-2.143143630001231192e-05,2.545874259181498704e-05
2.872222222222222232e+00,-2.238864854789158885e-05,3.689083401996204130e-05
2.873015873015873023e+00,-2.252686800995953051e-05,4.285676718961084172e-05
2.873809523809523814e+00,-2.193283015152294214e-05,4.389492404263931784e-05
2.874603174603174605e+00,-2.069728793784287210e-05,4.091461899733785156e-05
2.875396825396825395e+00,-1.889246742916011746e-05,3.492806362123901604e-05
2.876190476190476186e+00,-1.655931449195373469e-05,2.691175960132651074e-05
2.876984126984126977e+00,-1.371218281487206478e-05,1.778122251920814581e-05
2.877777777777777768e+00,-1.036309590183768360e-05,8.423581546876417252e-06
2.878571428571428559e+00,-6.559581732675039587e-06,-2.763978649939816170e-07
2.879365079365079350e+00,-2.423709915437130674e-06,-7.462456174605147196e-06
2.880158730158730140e+00,1.821738932101529865e-06,-1.239489814377905712e-05
2.880952380952380931e+00,5.850643579270754238e-06,-1.457454141488669490e-05
2.881746031746031722e+00,9.258945770999199237e-06,-1.385624934458688949e-05
2.882539682539682513e+00,1.161684801017091408e-05,-1.050732301700189918e-05
2.883333333333333304e+00,1.254220744201616865e-05,-5.185347473773331637e-06
2.884126984126984095e+00,1.178475214484522057e-05,1.163705260913578179e-06
2.884920634920634885e+00,9.304288959772965295e-06,7.464502354190899336e-06
2.885714285714285676e+00,5.320363566522283158e-06,1.269456636369823174e-05
2.886507936507936467e+00,3.115370948217394739e-07,1.605455805812570360e-05
2.887301587301587258e+00,-5.046216310198813184e-06,1.709669011033342864e-05
2.888095238095238049e+00,-9.992984468820579962e-06,1.578968871397834150e-05
2.888888888888888840e+00,-1.382272034732811010e-05,1.250953873049938260e-05
2.889682539682539630e+00,-1.600954576148184324e-05,7.958508596629876108e-06
2.890476190476190421e+00,-1.629153103529290127e-05,3.028297071363347853e-06
2.891269841269841212e+00,-1.469484845448119106e-05,-1.367188228215379388e-06
2.892063492063492003e+00,-1.149832507008959764e-05,-4.459479213072549342e-06
2.892857142857142794e+00,-7.154382551431387501e-06,-5.763480295834138725e-06
2.893650793650793585e+00,-2.193393188865607426e-06,-5.158949318593456936e-06
2.894444444444444375e+00,2.859885963701335592e-06,-2.897061200041973065e-06
2.895238095238095166e+00,7.539487121121436316e-06,4.715525636769571922e-07
2.896031746031745957e+00,1.146093992669376744e-05,4.230251122325055999e-06
2.896825396825396748e+00,1.432866571846921398e-05,7.654114007907896291e-06
2.897619047619047539e+00,1.594545735759791066e-05,1.014590579407573679e-05
2.898412698412698330e+00,1.623061095769463808e-05,1.131463166661858175e-05
2.899206349206349120e+00,1.523881698775077909e-05,1.098721781134962634e-05
2.899999999999999911e+00,1.316398063851280385e-05,9.171500388422814616e-06
2.900793650793650702e+00,1.031496795279638983e-05,6.002866514153043632e-06
2.901587301587301493e+00,7.062190315552126179e-06,1.702031225938688316e-06
2.902380952380952284e+00,3.769030964658651044e-06,-3.445787774968121408e-06
2.903174603174603075e+00,7.320450660526835859e-07,-9.096183410548610538e-06
2.903968253968253865e+00,-1.847867809449002566e-06,-1.484668907351540022e-05
2.904761904761904656e+00,-3.854681010602944371e-06,-2.024139718385773132e-05
2.905555555555555447e+00,-5.217111649653191788e-06,-2.478331559801747301e-05
2.906349206349206238e+00,-5.864442425027328854e-06,-2.796153394428966342e-05
2.907142857142857029e+00,-5.707407807232019084e-06,-2.930465496134979620e-05
2.907936507936507819e+00,-4.662617461864628964e-06,-2.846680519535262514e-05
2.908730158730158610e+00,-2.715911826978594559e-06,-2.533346153237692500e-05
2.909523809523809401e+00,5.974281910034111067e-09,-2.011145304957984392e-05
2.910317460317460192e+00,3.199127205262312451e-06,-1.335835973999561654e-05
2.911111111111110983e+00,6.413203972115320435e-06,-5.921205373726840730e-06
2.911904761904761774e+00,9.147723234945645261e-06,1.212635569717692715e-06
2.912698412698412564e+00,1.097805796718708297e-05,7.114719205592448658e-06
2.913492063492063355e+00,1.166083062603244321e-05,1.110769675617296419e-05
2.914285714285714146e+00,1.118064432142489152e-05,1.289578291224802152e-05
2.915079365079364937e+00,9.728524860352671569e-06,1.260084186826841919e-05
2.915873015873015728e+00,7.629382123538523022e-06,1.070233616846026153e-05
2.916666666666666519e+00,5.249240676489647118e-06,7.906813696045955739e-06
2.917460317460317309e+00,2.911836410845040256e-06,4.986611066935816345e-06
2.918253968253968100e+00,8.442301250960063274e-07,2.626358674328695557e-06
2.919047619047618891e+00,-8.412389098390291151e-07,1.306001362802128487e-06
2.919841269841269682e+00,-2.132089791094908995e-06,1.236958676615864310e-06
2.920634920634920473e+00,-3.078867107718558459e-06,2.355724713464057930e-06
2.921428571428571264e+00,-3.751050739156642752e-06,4.367440591914311362e-06
2.922222222222222054e+00,-4.200191075791758073e-06,6.823430484181701072e-06
2.923015873015872845e+00,-4.440340902660725514e-06,9.213252971470031421e-06
2.923809523809523636e+00,-4.448560559226183878e-06,1.105265798790804074e-05
2.924603174603174427e+00,-4.181730955473483663e-06,1.195308495437752620e-05
2.925396825396825218e+00,-3.603258983390399024e-06,1.166608544588732930e-05
2.926190476190476009e+00,-2.713444793265210568e-06,1.010507421385030798e-05
2.926984126984126799e+00,-1.576614557926401252e-06,7.351815384462820041e-06
2.927777777777777590e+00,-3.357265243722514916e-07,3.652772358230841772e-06
2.928571428571428381e+00,7.954165994899546768e-07,-5.963405267775614826e-07
2.929365079365079172e+00,1.567346130775399218e-06,-4.884751166180464079e-06
2.930158730158729963e+00,1.752881619592303359e-06,-8.646288906640425421e-06
2.930952380952380754e+00,1.213207628806495030e-06,-1.134492429911101950e-05
2.931746031746031544e+00,-4.880727802375050358e-08,-1.257593664147380353e-05
2.932539682539682335e+00,-1.868701974980215496e-06,-1.216138719138585565e-05
2.933333333333333126e+00,-3.946247319306148020e-06,-1.021259758379683320e-05
2.934126984126983917e+00,-5.913772427065149603e-06,-7.135247819813320004e-06
2.934920634920634708e+00,-7.426966920881677087e-06,-3.564679379697148977e-06
2.935714285714285499e+00,-8.248801181933026759e-06,-2.378505277327593699e-07
2.936507936507936289e+00,-8.300142507705460373e-06,2.170365362044503041e-06
2.937301587301587080e+00,-7.663590129203573219e-06,3.203649166597706221e-06
2.938095238095238315e+00,-6.543304033585778565e-06,2.730095709736539108e-06
2.938888888888889106e+00,-5.196307237831567406e-06,9.694610106289564911e-07
2.939682539682539897e+00,-3.856149400785867709e-06,-1.562834502871359202e-06
2.940476190476190688e+00,-2.668509058122472476e-06,-4.178145873879543481e-06
2.941269841269841478e+00,-1.653546020534201017e-06,-6.172631100705859386e-06
2.942063492063492269e+00,-7.044387384008721081e-07,-6.984181985110233883e-06
2.942857142857143060e+00,3.741836573169727096e-07,-6.313489512819948916e-06
2.943650793650793851e+00,1.792431021429190497e-06,-4.183538378766303016e-06
2.944444444444444642e+00,3.682607247691324401e-06,-9.262785931315485427e-07
2.945238095238095433e+00,6.017021689096324119e-06,2.898224471034996847e-06
2.946031746031746223e+00,8.569472455654668797e-06,6.630114218530654247e-06
2.946825396825397014e+00,1.094278113590390987e-05,9.655898504737463127e-06
2.947619047619047805e+00,1.266057547827414533e-05,1.154006720524597942e-05
2.948412698412698596e+00,1.329537577812715894e-05,1.211375450388342549e-05
2.949206349206349387e+00,1.259096494653856295e-05,1.150131423755674732e-05
2.950000000000000178e+00,1.054228115743615589e-05,1.007851053634633339e-05
2.950793650793650968e+00,7.415112077305984757e-06,8.370431234237739226e-06
2.951587301587301759e+00,3.706836659769895267e-06,6.911038901699018983e-06
2.952380952380952550e+00,5.906921046364307645e-08,6.096767862689875624e-06
2.953174603174603341e+00,-2.864281415423406221e-06,6.070682599119453079e-06
2.953968253968254132e+00,-4.516300712747909238e-06,6.669425171679499973e-06
2.954761904761904923e+00,-4.598624832244734691e-06,7.452445653994406846e-06
2.955555555555555713e+00,-3.153454353634302607e-06,7.813358736740398110e-06
2.956349206349206504e+00,-5.861679717051147597e-07,7.150182823634487615e-06
2.957142857142857295e+00,2.398231719338003988e-06,5.051130762976879080e-06
2.957936507936508086e+00,4.940629655359745345e-06,1.443559481345080072e-06
2.958730158730158877e+00,6.227051925439843086e-06,-3.339050091918301285e-06
2.959523809523809668e+00,5.692727226111983702e-06,-8.595013953363019667e-06
2.960317460317460458e+00,3.174277624493627485e-06,-1.339109795711956092e-05
2.961111111111111249e+00,-1.034129307198439369e-06,-1.676592419580404651e-05
2.961904761904762040e+00,-6.236393411640610217e-06,-1.795274898999582510e-05
2.962698412698412831e+00,-1.148685330593899997e-05,-1.657121140490967878e-05
2.963492063492063622e+00,-1.580238398812740269e-05,-1.274500938869732296e-05
2.964285714285714413e+00,-1.838627160617861824e-05,-7.116455680315367015e-06
2.965079365079365203e+00,-1.881376048883449094e-05,-7.466700729539776843e-07
2.965873015873015994e+00,-1.713431823584223512e-05,5.088374559267059320e-06
2.966666666666666785e+00,-1.385982820637021681e-05,9.170362336735551624e-06
2.967460317460317576e+00,-9.833280966061481179e-06,1.061951444482306278e-05
2.968253968253968367e+00,-6.005773970996019663e-06,9.110851625116986736e-06
2.969047619047619158e+00,-3.179844574611643067e-06,4.962527006853065780e-06
2.969841269841269948e+00,-1.791782621911353982e-06,-9.336567947469610084e-07
2.970634920634920739e+00,-1.798017253519970859e-06,-7.323052834496387600e-06
2.971428571428571530e+00,-2.702598951515900107e-06,-1.288178169100399358e-05
2.972222222222222321e+00,-3.721816835196680486e-06,-1.651224674227802798e-05
2.973015873015873112e+00,-4.039372458885186343e-06,-1.756380218508767814e-05
2.973809523809523903e+00,-3.074334536596349170e-06,-1.592909108051491506e-05
2.974603174603174693e+00,-6.758713135275717991e-07,-1.200573878001972544e-05
2.975396825396825484e+00,2.820796063356714763e-06,-6.550544138484427487e-06
2.976190476190476275e+00,6.697553976320717974e-06,-4.782952743503597703e-07
2.976984126984127066e+00,1.008070419085097764e-05,5.335503279460750058e-06
2.977777777777777857e+00,1.221326052403386943e-05,1.019942033052270062e-05
2.978571428571428648e+00,1.267850400092792961e-05,1.367375269831565910e-05
2.979365079365079438e+00,1.150270285428646101e-05,1.556451590987916072e-05
2.980158730158730229e+00,9.112910911724556121e-06,1.586887421963635000e-05
2.980952380952381020e+00,6.178460341424351050e-06,1.470547580399293486e-05
2.981746031746031811e+00,3.400912351421636838e-06,1.225898621767607390e-05
2.982539682539682602e+00,1.325879674203040197e-06,8.756549731975124678e-06
2.983333333333333393e+00,2.321611142040361816e-07,4.478852552593048689e-06
2.984126984126984183e+00,1.186562834871185842e-07,-2.078426949117853524e-07
2.984920634920634974e+00,7.719411389183197839e-07,-4.825521191065905205e-06
2.985714285714285765e+00,1.871591113772119931e-06,-8.794454135553241684e-06
2.986507936507936556e+00,3.085657044188439825e-06,-1.149967714771412457e-05
2.987301587301587347e+00,4.125070618416607693e-06,-1.241216118275359033e-05
2.988095238095238138e+00,4.753186528476537261e-06,-1.123600002227872546e-05
2.988888888888888928e+00,4.770805576745867595e-06,-8.032172518168625188e-06
2.989682539682539719e+00,4.007297277812556078e-06,-3.267589646369820288e-06
2.990476190476190510e+00,2.342016425709395975e-06,2.239506419205441489e-06
2.991269841269841301e+00,-2.391540826158376915e-07,7.470116321791201697e-06
2.992063492063492092e+00,-3.571132238073532037e-06,1.141127316198072933e-05
2.992857142857142883e+00,-7.257006914767346231e-06,1.326472275455951310e-05
2.993650793650793673e+00,-1.067326930543407546e-05,1.260759281813929393e-05
2.994444444444444464e+00,-1.305537237650521379e-05,9.473100848597831291e-06
2.995238095238095255e+00,-1.365934147191857251e-05,4.342642869735433933e-06
2.996031746031746046e+00,-1.196557471262937598e-05,-1.940038358947451323e-06
2.996825396825396837e+00,-7.867662644236053351e-06,-8.312779530027695777e-06
2.997619047619047628e+00,-1.781265397792400957e-06,-1.367642756357082077e-05
2.998412698412698418e+00,5.377270360022052725e-06,-1.709202733901092605e-05
2.999206349206349209e+00,1.235603951757787980e-05,-1.796419361290567897e-05
3.000000000000000000e+00,1.784180326419058325e-05,-1.617083402804367600e-05
3.000793650793650791e+00,2.076850156833308898e-05,-1.209840748896883557e-05
3.001587301587301582e+00,2.057095712066276638e-05,-6.558585181663163810e-06
3.002380952380952372e+00,1.731168212530091613e-05,-5.944399331707536792e-07
3.003174603174603163e+00,1.164830702174569804e-05,4.779130113555429130e-06
3.003968253968253954e+00,4.656421547638708928e-06,8.829726711496629335e-06
3.004761904761904745e+00,-2.436838036292119665e-06,1.128119735364917591e-05
3.005555555555555536e+00,-8.530793414798695909e-06,1.235279950040589481e-05
3.006349206349206327e+00,-1.286548052123485414e-05,1.265002116080696035e-05
3.007142857142857117e+00,-1.512301994959809095e-05,1.293848762928135702e-05
3.007936507936507908e+00,-1.540806743567296391e-05,1.386808517390718133e-05
3.008730158730158699e+00,-1.413887786569087895e-05,1.573062502179558398e-05
3.009523809523809490e+00,-1.190123978910022083e-05,1.832634467236099912e-05
3.010317460317460281e+00,-9.312796604389282764e-06,2.098316898158095124e-05
3.011111111111111072e+00,-6.923643940060861669e-06,2.272610511254769309e-05
3.011904761904761862e+00,-5.155500122387889673e-06,2.254749804550383818e-05
3.012698412698412653e+00,-4.266654323924438800e-06,1.969840136073639774e-05
3.013492063492063444e+00,-4.327496483455627194e-06,1.391685510857960760e-05
3.014285714285714235e+00,-5.201580836561494577e-06,5.530333403982156255e-06
3.015079365079365026e+00,-6.544122727204941862e-06,-4.590927306567133567e-06
3.015873015873015817e+00,-7.841852680059509695e-06,-1.520803406646242200e-05
3.016666666666666607e+00,-8.513168160002552732e-06,-2.495773720724584952e-05
3.017460317460317398e+00,-8.061711010592697072e-06,-3.259720789516903618e-05
3.018253968253968189e+00,-6.239666292818154064e-06,-3.719445942350019593e-05
3.019047619047618980e+00,-3.150863865060865117e-06,-3.824096708690161460e-05
3.019841269841269771e+00,7.684677667968715446e-07,-3.569104415684139914e-05
3.020634920634920562e+00,4.903182457049925937e-06,-2.994356160332544664e-05
3.021428571428571352e+00,8.686747466889630453e-06,-2.177805314766747413e-05
3.022222222222222143e+00,1.179411319583436640e-05,-1.225154991786073291e-05
3.023015873015872934e+00,1.420488041553786586e-05,-2.563152148048825873e-06
3.023809523809523725e+00,1.611402696766985260e-05,6.101105576858187335e-06
3.024603174603174516e+00,1.775102849287369286e-05,1.272556242682378829e-05
3.025396825396825307e+00,1.920981506985421897e-05,1.660451393375449338e-05
3.026190476190476097e+00,2.037220843927348171e-05,1.744334848723796348e-05
3.026984126984126888e+00,2.094787116683911448e-05,1.540170764247914689e-05
3.027777777777777679e+00,2.059503147517559342e-05,1.106531133805980308e-05
3.028571428571428470e+00,1.905917250190138925e-05,5.346019977572863714e-06
3.029365079365079261e+00,1.627542000615906940e-05,-6.732532283840116313e-07
3.030158730158730052e+00,1.240700516247196491e-05,-5.917586121970811403e-06
3.030952380952380842e+00,7.818282967452172349e-06,-9.486524044527973543e-06
3.031746031746031633e+00,2.998873691142338548e-06,-1.077791307565072614e-05
3.032539682539682424e+00,-1.534667777238673132e-06,-9.553805935004498534e-06
3.033333333333333215e+00,-5.331410286828632577e-06,-5.949461603321941245e-06
3.034126984126984006e+00,-8.070593514057769602e-06,-4.379271248423771258e-07
3.034920634920634797e+00,-9.588067710090943934e-06,6.234227410722109638e-06
3.035714285714285587e+00,-9.869030994430918975e-06,1.312939210838190406e-05
3.036507936507936378e+00,-9.022500500566604188e-06,1.921758870375262924e-05
3.037301587301587169e+00,-7.254760590809150203e-06,2.349496584570751225e-05
3.038095238095237960e+00,-4.850606894580635585e-06,2.512313310613391643e-05
3.038888888888888751e+00,-2.158280541034878889e-06,2.357875228741013136e-05
3.039682539682539542e+00,4.347346434687435697e-07,1.878716637231146066e-05
3.040476190476190332e+00,2.546030125429531432e-06,1.120214454765995618e-05
3.041269841269841123e+00,3.860940313255448804e-06,1.793401369634819266e-06
3.042063492063491914e+00,4.195826945118767083e-06,-8.081064788683045859e-06
3.042857142857142705e+00,3.536823834670259308e-06,-1.690994372225960678e-05
3.043650793650793496e+00,2.035621028300294021e-06,-2.332509937327134853e-05
3.044444444444444287e+00,-4.053095059841051114e-08,-2.638469356400958242e-05
3.045238095238095077e+00,-2.391415051727422316e-06,-2.576367162882839602e-05
3.046031746031745868e+00,-4.773118437160147622e-06,-2.179793698336260393e-05
3.046825396825396659e+00,-7.060677058372586508e-06,-1.537453962649935757e-05
3.047619047619047450e+00,-9.254965595600938679e-06,-7.706943634091129261e-06
3.048412698412698241e+00,-1.142579938751018779e-05,-6.310764532088118141e-08
3.049206349206349032e+00,-1.361528040525166860e-05,6.483345248591531452e-06
3.049999999999999822e+00,-1.575021999996191244e-05,1.122702138280211574e-05
3.050793650793650613e+00,-1.761177927775201595e-05,1.390469930455319812e-05
3.051587301587301404e+00,-1.888132044986909130e-05,1.466851991125150796e-05
3.052380952380952195e+00,-1.924104671412374382e-05,1.397551988625251131e-05
3.053174603174602986e+00,-1.848179501713462556e-05,1.242441426956573583e-05
3.053968253968253777e+00,-1.657207544634988156e-05,1.058159400899248535e-05
3.054761904761904567e+00,-1.366531381904272656e-05,8.842396874649320764e-06
3.055555555555555358e+00,-1.004934509811362902e-05,7.364243181815774451e-06
3.056349206349206149e+00,-6.061809916729193831e-06,6.084269883337246636e-06
3.057142857142856940e+00,-2.004243358635136390e-06,4.804598738362916346e-06
3.057936507936507731e+00,1.913607641563261094e-06,3.307198292164370151e-06
3.058730158730158522e+00,5.579290726515312524e-06,1.456200638995834945e-06
3.059523809523809312e+00,8.932895264227545479e-06,-7.429911698259781070e-07
3.060317460317460103e+00,1.189385420515311175e-05,-3.139393514871341884e-06
3.061111111111110894e+00,1.429565390078286876e-05,-5.479725838120148391e-06
3.061904761904761685e+00,1.586415852426457961e-05,-7.478881356508590988e-06
3.062698412698412920e+00,1.625861080957819168e-05,-8.892604527970448405e-06
3.063492063492063711e+00,1.516878715458161446e-05,-9.571338550737307059e-06
3.064285714285714501e+00,1.243773622294708431e-05,-9.483134784686498040e-06
3.065079365079365292e+00,8.166215256107696977e-06,-8.703490697173050741e-06
3.065873015873016083e+00,2.757718646447503559e-06,-7.379251306095918843e-06
3.066666666666666874e+00,-3.118827929539197127e-06,-5.681135231815148212e-06
3.067460317460317665e+00,-8.645262677772380625e-06,-3.762419759049850393e-06
3.068253968253968456e+00,-1.302098100893815682e-05,-1.737550244158875458e-06
3.069047619047619246e+00,-1.563601904533559132e-05,3.147534206971999138e-07
3.069841269841270037e+00,-1.620274983893509266e-05,2.329168663381089875e-06
3.070634920634920828e+00,-1.480909616166377415e-05,4.223644095950578562e-06
3.071428571428571619e+00,-1.187877429066765107e-05,5.874456327576154258e-06
3.072222222222222410e+00,-8.052211356429325286e-06,7.107799315488845693e-06
3.073015873015873201e+00,-4.025527709512203652e-06,7.715174081952667855e-06
3.073809523809523991e+00,-3.953858248151725319e-07,7.493280902241888335e-06
3.074603174603174782e+00,2.448881170039941473e-06,6.301208177603575594e-06
3.075396825396825573e+00,4.364107921653537273e-06,4.120609767241299727e-06
3.076190476190476364e+00,5.425753047819608811e-06,1.099928460877369170e-06
3.076984126984127155e+00,5.855991361233858838e-06,-2.436651130879512711e-06
3.077777777777777946e+00,5.937043820281772502e-06,-6.028234829340540460e-06
3.078571428571428736e+00,5.934703195464868576e-06,-9.162293414851712346e-06
3.079365079365079527e+00,6.045577706207463355e-06,-1.138519505960785693e-05
3.080158730158730318e+00,6.370392921092806936e-06,-1.240391273023488749e-05
3.080952380952381109e+00,6.909216497020507385e-06,-1.214467043993799664e-05
3.081746031746031900e+00,7.573274562197014599e-06,-1.075009830940722581e-05
3.082539682539682691e+00,8.209660399407172509e-06,-8.520600447803726514e-06
3.083333333333333481e+00,8.636333262172852707e-06,-5.826239630453643939e-06
3.084126984126984272e+00,8.683686971893448482e-06,-3.023877061358432661e-06
3.084920634920635063e+00,8.236318440497383890e-06,-4.078604992304266950e-07
3.085714285714285854e+00,7.266097240659164350e-06,1.796472711553554751e-06
3.086507936507936645e+00,5.847068384944585706e-06,3.410955906029410642e-06
3.087301587301587436e+00,4.145843061115353610e-06,4.284811328236818181e-06
3.088095238095238226e+00,2.387929583763562395e-06,4.305059917359479778e-06
3.088888888888889017e+00,8.081642877541233775e-07,3.444567071788973606e-06
3.089682539682539808e+00,-4.015205735735367277e-07,1.826997968052797551e-06
3.090476190476190599e+00,-1.132990852553776221e-06,-2.314781652089231046e-07
3.091269841269841390e+00,-1.380576860252025637e-06,-2.241909607828701771e-06
3.092063492063492181e+00,-1.232455464196616540e-06,-3.637162966168159127e-06
3.092857142857142971e+00,-8.370744404297503481e-07,-3.919588735360564169e-06
3.093650793650793762e+00,-3.541983965816843522e-07,-2.813166498219881957e-06
3.094444444444444553e+00,9.499162958141557659e-08,-3.670776904020689776e-07
3.095238095238095344e+00,4.636258901577363249e-07,3.024588664781342768e-06
3.096031746031746135e+00,7.894200895792550642e-07,6.694366423319279412e-06
3.096825396825396925e+00,1.175640597258786994e-06,9.847121652365575507e-06
3.097619047619047716e+00,1.747950505730902994e-06,1.174787379825392336e-05
3.098412698412698507e+00,2.600222953778370595e-06,1.191157882757211398e-05
3.099206349206349298e+00,3.746462396797446799e-06,1.025020894423931811e-05
3.100000000000000089e+00,5.094713905181154561e-06,7.134056881508941215e-06
3.100793650793650880e+00,6.452543000416813661e-06,3.337907486689290950e-06
3.101587301587301670e+00,7.564260743273983124e-06,-1.299014698855673086e-07
3.102380952380952461e+00,8.170487899557059050e-06,-2.282518018627716308e-06
3.103174603174603252e+00,8.073680831878755933e-06,-2.428806565065624230e-06
3.103968253968254043e+00,7.190768078575058580e-06,-3.853476449798333366e-07
3.104761904761904834e+00,5.577157846765375922e-06,3.445560901191737379e-06
3.105555555555555625e+00,3.414970277274414943e-06,8.165204175779326834e-06
3.106349206349206415e+00,9.700235282873275911e-07,1.261279304161819792e-05
3.107142857142857206e+00,-1.467756692915732375e-06,1.567308233362298267e-05
3.107936507936507997e+00,-3.641853590846157343e-06,1.656364371091852640e-05
3.108730158730158788e+00,-5.369815026833529449e-06,1.502090255907792969e-05
3.109523809523809579e+00,-6.561189310588009785e-06,1.134136099564472889e-05
3.110317460317460370e+00,-7.215239290846488285e-06,6.278511101544798503e-06
3.111111111111111160e+00,-7.404615794960552855e-06,8.322853155078579221e-07
3.111904761904761951e+00,-7.250684616401035354e-06,-4.009756350775396381e-06
3.112698412698412742e+00,-6.894741576570785297e-06,-7.512245305593478890e-06
3.113492063492063533e+00,-6.468841445461693203e-06,-9.351735831771066618e-06
3.114285714285714324e+00,-6.070242112250250170e-06,-9.657140055140154701e-06
3.115079365079365115e+00,-5.743665264417671045e-06,-8.927025859896216053e-06
3.115873015873015905e+00,-5.474832196274890972e-06,-7.857322957396073755e-06
3.116666666666666696e+00,-5.196859501899772295e-06,-7.136296182947526304e-06
3.117460317460317487e+00,-4.809004258939359561e-06,-7.263967832435254258e-06
3.118253968253968278e+00,-4.205470967001728838e-06,-8.434886561915966367e-06
3.119047619047619069e+00,-3.309631398736353070e-06,-1.049926266234073751e-05
3.119841269841269860e+00,-2.105627171124198956e-06,-1.299978684596103772e-05
3.120634920634920650e+00,-6.570379927479426732e-07,-1.527294304247850415e-05
3.121428571428571441e+00,8.956881166989845487e-07,-1.659861551534232100e-05
3.122222222222222232e+00,2.360388972422415018e-06,-1.637328541244056939e-05
3.123015873015873023e+00,3.533652339786936967e-06,-1.427003458652684650e-05
3.123809523809523814e+00,4.243623497911514513e-06,-1.034145901250156122e-05
3.124603174603174605e+00,4.381913590771217451e-06,-5.030012074073785550e-06
3.125396825396825395e+00,3.916161048312927037e-06,9.232429097582099141e-07
3.126190476190476186e+00,2.882641453117156158e-06,6.646419648694618395e-06
3.126984126984126977e+00,1.366141367848632316e-06,1.133142031795422958e-05
3.127777777777777768e+00,-5.214370966462746939e-07,1.440126534940127515e-05
3.128571428571428559e+00,-2.653812962968117699e-06,1.561007003203261710e-05
3.129365079365079350e+00,-4.891021571422738745e-06,1.505845987449194894e-05
3.130158730158730140e+00,-7.072756834358259548e-06,1.313013798181773186e-05
3.130952380952380931e+00,-9.014367907695704777e-06,1.037365071028530401e-05
3.131746031746031722e+00,-1.051523533790231995e-05,7.364638758053388444e-06
3.132539682539682513e+00,-1.138366135144299489e-05,4.585512088196408506e-06
3.133333333333333304e+00,-1.147476421806287973e-05,2.350176876351074340e-06
3.134126984126984095e+00,-1.073177844941118491e-05,7.838038926670779924e-07
3.134920634920634885e+00,-9.218236755464649795e-06,-1.512292777632662685e-07
3.135714285714285676e+00,-7.128828855533335565e-06,-6.038860389860378474e-07
3.136507936507936467e+00,-4.770293134344277986e-06,-7.784034969851965260e-07
3.137301587301587258e+00,-2.510096713861091734e-06,-8.857319863625608415e-07
3.138095238095238049e+00,-6.986123587522304894e-07,-1.104702481767054176e-06
3.138888888888888840e+00,4.210288556049657352e-07,-1.551013757291274818e-06
3.139682539682539630e+00,7.929137049655697162e-07,-2.254852400007278046e-06
3.140476190476190421e+00,5.903959578704940040e-07,-3.153126675016416585e-06
3.141269841269841212e+00,1.961882947269734822e-07,-4.103593631574811232e-06
3.142063492063492003e+00,1.128874306765899816e-07,-4.922102629346167083e-06
3.142857142857142794e+00,8.207066062375942952e-07,-5.433767217168829284e-06
3.143650793650793585e+00,2.620418492939758164e-06,-5.521844209124712022e-06
3.144444444444444375e+00,5.508975214762559394e-06,-5.159866212818494049e-06
3.145238095238095166e+00,9.131037897427566190e-06,-4.420874104828767077e-06
3.146031746031745957e+00,1.283237229932419397e-05,-3.464769465059025001e-06
3.146825396825396748e+00,1.581156101115480339e-05,-2.506098907406047670e-06
3.147619047619047539e+00,1.733109334821850907e-05,-1.763577513437755519e-06
3.148412698412698330e+00,1.692323074841769838e-05,-1.396700623566373388e-06
3.149206349206349120e+00,1.452562003329371421e-05,-1.445135749751916567e-06
3.149999999999999911e+00,1.050703085838221628e-05,-1.795315174732055188e-06
3.150793650793650702e+00,5.579897364585321687e-06,-2.196048264707138656e-06
3.151587301587301493e+00,6.278115965385270050e-07,-2.328744347021251923e-06
3.152380952380952284e+00,-3.503911884477108611e-06,-1.915061142843168741e-06
3.153174603174603075e+00,-6.199227587122464969e-06,-8.266470021874994096e-07
3.153968253968253865e+00,-7.194919588568381808e-06,8.430127612453794490e-07
3.154761904761904656e+00,-6.607156353534211388e-06,2.773151873002251194e-06
3.155555555555555447e+00,-4.859348177897165397e-06,4.482428055235438183e-06
3.156349206349206238e+00,-2.538197203643331075e-06,5.449692885759841090e-06
3.157142857142857029e+00,-2.253075885583455463e-07,5.255301726645552624e-06
3.157936507936507819e+00,1.643573961712250644e-06,3.705586828809462601e-06
3.158730158730158610e+00,2.853785402874508456e-06,9.082087316064604034e-07
3.159523809523809401e+00,3.411027629423574277e-06,-2.723338711675555113e-06
3.160317460317460192e+00,3.481680483847902093e-06,-6.542731745269037477e-06
3.161111111111110983e+00,3.305833113176157355e-06,-9.808562912000298712e-06
3.161904761904761774e+00,3.113731403888436371e-06,-1.185378205256709239e-05
3.162698412698412564e+00,3.065818552822511239e-06,-1.224082262405281471e-05
3.163492063492063355e+00,3.223870528480437496e-06,-1.085891878304119330e-05
3.164285714285714146e+00,3.550293636835429354e-06,-7.938934831593529704e-06
3.165079365079364937e+00,3.926915712689478755e-06,-3.987330588518647935e-06
3.165873015873015728e+00,4.184408684813857913e-06,3.373606611994654729e-07
3.166666666666666519e+00,4.136885331578177475e-06,4.371186562709157084e-06
3.167460317460317309e+00,3.619459745631383667e-06,7.578762405151770588e-06
3.168253968253968100e+00,2.526761483600563970e-06,9.644237922302454342e-06
3.169047619047618891e+00,8.474535727215371500e-07,1.050108160280758334e-05
3.169841269841269682e+00,-1.313540620777719150e-06,1.030047443915240497e-05
3.170634920634920473e+00,-3.733754709243693571e-06,9.336098518214285981e-06
3.171428571428571264e+00,-6.097636048295005664e-06,7.953244567123875103e-06
3.172222222222222054e+00,-8.045163935625567505e-06,6.468902410811649069e-06
3.173015873015872845e+00,-9.237030895908835627e-06,5.120056512292098587e-06
3.173809523809523636e+00,-9.424810899526398576e-06,4.045653779476318194e-06
3.174603174603174427e+00,-8.512403885682069498e-06,3.297478401354290675e-06
3.175396825396825218e+00,-6.594243927863849202e-06,2.868037808369703029e-06
3.176190476190476009e+00,-3.957114587881166110e-06,2.720770507995949508e-06
3.176984126984126799e+00,-1.037620127995027266e-06,2.810419634386572375e-06
3.177777777777777590e+00,1.662499880243845068e-06,3.088535611931553979e-06
3.178571428571428381e+00,3.686898645538950410e-06,3.497526183954812149e-06
3.179365079365079172e+00,4.731420230693177074e-06,3.962119678169318665e-06
3.180158730158729963e+00,4.713511464096216096e-06,4.387215273009047932e-06
3.180952380952380754e+00,3.781259944529045848e-06,4.667088879558199544e-06
3.181746031746031544e+00,2.260587236923012094e-06,4.705665857837649333e-06
3.182539682539682335e+00,5.601331358163412018e-07,4.442983759179690967e-06
3.183333333333333126e+00,-9.355595898719272844e-07,3.879715454548680668e-06
3.184126984126983917e+00,-1.954596983659991192e-06,3.090173042838224982e-06
3.184920634920634708e+00,-2.386925596246138522e-06,2.215501101703292174e-06
3.185714285714285499e+00,-2.285895044544563646e-06,1.433720393845827724e-06
3.186507936507936289e+00,-1.827342647784689069e-06,9.112874675880257562e-07
3.187301587301587080e+00,-1.242340119037851680e-06,7.489386407711786304e-07
3.188095238095238315e+00,-7.454948137206517432e-07,9.390581582353713791e-07
3.188888888888889106e+00,-4.797657774693713379e-07,1.350611618411463660e-06
3.189682539682539897e+00,-4.919570778830601741e-07,1.751294105239987696e-06
3.190476190476190688e+00,-7.428625103184039949e-07,1.866971878224955994e-06
3.191269841269841478e+00,-1.145279027128238578e-06,1.468039755058850651e-06
3.192063492063492269e+00,-1.614329463859934094e-06,4.628389909445868134e-07
3.192857142857143060e+00,-2.110117203337194251e-06,-1.028804428373858078e-06
3.193650793650793851e+00,-2.654732614779416963e-06,-2.651627101532273069e-06
3.194444444444444642e+00,-3.314704897541710688e-06,-3.865087761924442891e-06
3.195238095238095433e+00,-4.154044635236245725e-06,-4.075221308101963463e-06
3.196031746031746223e+00,-5.176911185209662422e-06,-2.828102665003224977e-06
3.196825396825397014e+00,-6.286163813845963962e-06,-1.535889717617630078e-08
3.197619047619047805e+00,-7.280265042748474334e-06,3.976770713065958184e-06
3.198412698412698596e+00,-7.897242864238901427e-06,8.242921734668120696e-06
3.199206349206349387e+00,-7.896622384705107294e-06,1.150273490069687261e-05
3.200000000000000178e+00,-7.154817078525383192e-06,1.240875085077278278e-05
3.200793650793650968e+00,-5.740004770867923572e-06,9.946647387214505837e-06
3.201587301587301759e+00,-3.931492684621042549e-06,3.798217804751547037e-06
3.202380952380952550e+00,-2.160438583198212469e-06,-5.474217449052880389e-06
3.203174603174603341e+00,-8.762631341211182727e-07,-1.650772727522104033e-05
3.203968253968254132e+00,-3.777264723036758123e-07,-2.746798014026350667e-05
3.204761904761904923e+00,-6.697651691649100025e-07,-3.651939613434968175e-05
3.205555555555555713e+00,-1.402711153016832496e-06,-4.228458848036083999e-05
3.206349206349206504e+00,-1.924568069578070622e-06,-4.415475262534133299e-05
3.207142857142857295e+00,-1.444420633016022137e-06,-4.236437624809784574e-05
3.207936507936508086e+00,7.259623653786734639e-07,-3.781484080013582832e-05
3.208730158730158877e+00,4.911686037121264606e-06,-3.170821617208494781e-05
3.209523809523809668e+00,1.087005011168100040e-05,-2.511533017925275316e-05
3.210317460317460458e+00,1.771353836694431166e-05,-1.862585128721510979e-05
3.211111111111111249e+00,2.401090070118934813e-05,-1.219940237495628407e-05
3.211904761904762040e+00,2.807708001676653052e-05,-5.266773340222328762e-06
3.212698412698412831e+00,2.840523878364839200e-05,2.953263472873246299e-06
3.213492063492063622e+00,2.413162382481952252e-05,1.302539938757781056e-05
3.214285714285714413e+00,1.538766439306800063e-05,2.489801524082602114e-05
3.215079365079365203e+00,3.411485859785487451e-06,3.766922708591295498e-05
3.215873015873015994e+00,-9.639851770953962367e-06,4.961450357049892860e-05
3.216666666666666785e+00,-2.114652478052157620e-05,5.850200940277860788e-05
3.217460317460317576e+00,-2.864169608440005654e-05,6.213779864179125453e-05
3.218253968253968367e+00,-3.042895675763313860e-05,5.900216273064145715e-05
3.219047619047619158e+00,-2.603187658279442089e-05,4.878532692270873397e-05
3.219841269841269948e+00,-1.633954361285792179e-05,3.263520297465528723e-05
3.220634920634920739e+00,-3.393593151358999917e-06,1.300872157854510614e-05
3.221428571428571530e+00,1.012392000890676604e-05,-6.850362019405639907e-06
3.222222222222222321e+00,2.153992636436304143e-05,-2.365760603689850180e-05
3.223015873015873112e+00,2.877708023803812309e-05,-3.484052431187952871e-05
3.223809523809523903e+00,3.072510797123467660e-05,-3.908862416116408076e-05
3.224603174603174693e+00,2.734290095660268856e-05,-3.656031042344003428e-05
3.225396825396825484e+00,1.952905165316122911e-05,-2.870864506518376060e-05
3.226190476190476275e+00,8.846153515169793833e-06,-1.779807358367400645e-05
3.226984126984127066e+00,-2.812219582574936779e-06,-6.272156676101568385e-06
3.227777777777777857e+00,-1.354530729384560212e-05,3.832254061689266114e-06
3.228571428571428648e+00,-2.172263629331036856e-05,1.126081568348129012e-05
3.229365079365079438e+00,-2.620029712015811419e-05,1.562897331076268853e-05
3.230158730158730229e+00,-2.646900498052233560e-05,1.724449915835238046e-05
3.230952380952381020e+00,-2.272242505315758842e-05,1.677167931057707125e-05
3.231746031746031811e+00,-1.582682110092576097e-05,1.488324153944581810e-05
3.232539682539682602e+00,-7.175340534500917086e-06,1.203261116350072580e-05
3.233333333333333393e+00,1.568529055711520954e-06,8.413990967765766263e-06
3.234126984126984183e+00,8.796563370225600963e-06,4.084510737144747672e-06
3.234920634920634974e+00,1.327482158826258054e-05,-8.516947497436556931e-07
