Timestamp,Flexor carpi radialis,Extensor digitorum
2.000000000000000000e+00,-3.361234600097984352e-05,-7.380156510535519046e-05
2.000793650793650791e+00,-2.128702336609915698e-05,-6.723514077299066550e-05
2.001587301587301582e+00,-5.930883963234089198e-06,-5.443068125818403998e-05
2.002380952380952372e+00,9.202552277154905585e-06,-3.991437023063542635e-05
2.003174603174603163e+00,2.060994716975032818e-05,-2.749017413851269785e-05
2.003968253968253954e+00,2.568875689838700653e-05,-1.929730790841191062e-05
2.004761904761904745e+00,2.359529113994104365e-05,-1.571243636933204773e-05
2.005555555555555536e+00,1.549240467079529649e-05,-1.602991774776316625e-05
2.006349206349206327e+00,4.107628020651843376e-06,-1.945515658240756847e-05
2.007142857142857117e+00,-7.210654146263827631e-06,-2.574163937323710035e-05
2.007936507936507908e+00,-1.556524077020157769e-05,-3.499170824283559202e-05
2.008730158730158699e+00,-1.930737129302211174e-05,-4.670001677857057472e-05
2.009523809523809490e+00,-1.829353049390048224e-05,-5.869259039870456155e-05
2.010317460317460281e+00,-1.357542908214800282e-05,-6.676923522352351775e-05
2.011111111111111072e+00,-6.728418196155093606e-06,-6.548447430244721027e-05
2.011904761904761862e+00,8.526005410562556420e-07,-4.989080574593580464e-05
2.012698412698412653e+00,8.387458750486690974e-06,-1.758863123801860049e-05
2.013492063492063444e+00,1.572231955484605103e-05,2.973417064146338586e-05
2.014285714285714235e+00,2.296416583275347309e-05,8.592694904564361679e-05
2.015079365079365026e+00,2.995062202656848031e-05,1.414127812984268008e-04
2.015873015873015817e+00,3.584205554020766657e-05,1.853824711138171418e-04
2.016666666666666607e+00,3.907671596748333540e-05,2.084926056887973303e-04
2.017460317460317398e+00,3.777645191753891188e-05,2.052725032107029473e-04
2.018253968253968189e+00,3.048856309924234106e-05,1.755745111633824379e-04
2.019047619047618980e+00,1.698253894682334828e-05,1.246980438750839768e-04
2.019841269841269771e+00,-1.238913812524762777e-06,6.216833894049516879e-05
2.020634920634920562e+00,-2.097833094225653427e-05,-5.067736551932074755e-07
2.021428571428571352e+00,-3.800639128922916231e-05,-5.250271116389851518e-05
2.022222222222222143e+00,-4.818963161883208824e-05,-8.604513737198738192e-05
2.023015873015872934e+00,-4.872949182731363090e-05,-9.785715694613656963e-05
2.023809523809523725e+00,-3.908455547957282139e-05,-8.936731880877988557e-05
2.024603174603174516e+00,-2.123209749858614892e-05,-6.574973454609916784e-05
2.025396825396825307e+00,8.529521301381065203e-07,-3.420675751231239597e-05
2.026190476190476097e+00,2.234344654267322251e-05,-2.080074958940944128e-06
2.026984126984126888e+00,3.894181787273601322e-05,2.466397864220000048e-05
2.027777777777777679e+00,4.802380737222732596e-05,4.225431960765925943e-05
2.028571428571428470e+00,4.916468882035604531e-05,4.921979705162961028e-05
2.029365079365079261e+00,4.390653287651474692e-05,4.599258949497153675e-05
2.030158730158730052e+00,3.490713218414275785e-05,3.430199748967931796e-05
2.030952380952380842e+00,2.482640931615649900e-05,1.658282987665567743e-05
2.031746031746031633e+00,1.537963199329591224e-05,-4.499285427774183910e-06
2.032539682539682424e+00,6.900603603841413828e-06,-2.639016491393673402e-05
2.033333333333333215e+00,-1.451741162970244935e-06,-4.686981928523610379e-05
2.034126984126984006e+00,-1.096611382300447803e-05,-6.417226893507360056e-05
2.034920634920634797e+00,-2.245968492787137703e-05,-7.702984828252096533e-05
2.035714285714285587e+00,-3.556877896360520323e-05,-8.468260219534197268e-05
2.036507936507936378e+00,-4.856194619663412390e-05,-8.688657563783613890e-05
2.037301587301587169e+00,-5.877342069608392752e-05,-8.392188322827141562e-05
2.038095238095237960e+00,-6.349903396828576784e-05,-7.656019600028917196e-05
2.038888888888888751e+00,-6.099694029539215055e-05,-6.593120600026936289e-05
2.039682539682539542e+00,-5.117729851445133887e-05,-5.325459074476728087e-05
2.040476190476190332e+00,-3.568719423735039172e-05,-3.948164284095617005e-05
2.041269841269841123e+00,-1.735699961102000731e-05,-2.498459272600402734e-05
2.042063492063491914e+00,7.468524837445810315e-07,-9.475762182387870161e-06
2.042857142857142705e+00,1.625554859717317805e-05,7.724645500524296457e-06
2.043650793650793496e+00,2.804103504237314551e-05,2.711927068379633990e-05
2.044444444444444287e+00,3.618900192491874282e-05,4.839181215085994170e-05
2.045238095238095077e+00,4.148197159114375951e-05,7.000193788225464323e-05
2.046031746031745868e+00,4.467468878716663878e-05,8.924489064541336544e-05
2.046825396825396659e+00,4.590981591553845785e-05,1.028053148132689211e-04
2.047619047619047450e+00,4.453791121396430636e-05,1.076310808998432345e-04
2.048412698412698241e+00,3.941708650036780085e-05,1.018392424930758566e-04
2.049206349206349032e+00,2.955818020606192293e-05,8.536659460693966309e-05
2.049999999999999822e+00,1.483794786793837693e-05,6.016298403577321276e-05
2.050793650793650613e+00,-3.522428002743476898e-06,2.986258025694980570e-05
2.051587301587301404e+00,-2.292723270308837200e-05,-9.760770155817435126e-07
2.052380952380952195e+00,-3.988240779593340315e-05,-2.784481007139246212e-05
2.053174603174602986e+00,-5.086882566629018210e-05,-4.720982893565353876e-05
2.053968253968253777e+00,-5.336457744213071150e-05,-5.715553568333702779e-05
2.054761904761904567e+00,-4.668835188419118935e-05,-5.761067793555107265e-05
2.055555555555555358e+00,-3.235158578982458868e-05,-5.013374313913404026e-05
2.056349206349206149e+00,-1.374296768595939351e-05,-3.734844745885009215e-05
2.057142857142856940e+00,4.800776515377731262e-06,-2.221262110018468075e-05
2.057936507936507731e+00,1.924699353605982167e-05,-7.346152359849310349e-06
2.058730158730158522e+00,2.701705448474373190e-05,5.390068682569300975e-06
2.059523809523809312e+00,2.764290714443140123e-05,1.498086185430493770e-05
2.060317460317460103e+00,2.272329232898119439e-05,2.106461562350791771e-05
2.061111111111110894e+00,1.522382533057828382e-05,2.361874329086334408e-05
2.061904761904761685e+00,8.386201016793241847e-06,2.269829388361576495e-05
2.062698412698412920e+00,4.632351048321684679e-06,1.834722192521438328e-05
2.063492063492063711e+00,4.835028028434761582e-06,1.070860972819565189e-05
2.064285714285714501e+00,8.182174923248743053e-06,2.667444620235400030e-07
2.065079365079365292e+00,1.264073979973107075e-05,-1.191219635814406482e-05
2.065873015873016083e+00,1.581330424662517661e-05,-2.408953908131295085e-05
2.066666666666666874e+00,1.585910276293807372e-05,-3.401481823904492979e-05
2.067460317460317665e+00,1.215549583242985571e-05,-3.934333526665668740e-05
2.068253968253968456e+00,5.489643925963022163e-06,-3.821218423008601324e-05
2.069047619047619246e+00,-2.256645483538125590e-06,-2.980687600707984886e-05
2.069841269841270037e+00,-8.791928272156510207e-06,-1.473918193200417455e-05
2.070634920634920828e+00,-1.221255401600994060e-05,4.897327371165781261e-06
2.071428571428571619e+00,-1.162803563561302409e-05,2.584167881017271961e-05
2.072222222222222410e+00,-7.407091104090279852e-06,4.429656583998712693e-05
2.073015873015873201e+00,-9.884683988022529311e-07,5.673322361341298365e-05
2.073809523809523991e+00,5.637607429205113878e-06,6.067335532434514915e-05
2.074603174603174782e+00,1.056762147029999324e-05,5.525243834763667744e-05
2.075396825396825573e+00,1.252320394850085750e-05,4.142879259583477977e-05
2.076190476190476364e+00,1.114151033826686365e-05,2.180068742338926683e-05
2.076984126984127155e+00,6.973452180244601924e-06,9.082649236206932227e-08
2.077777777777777946e+00,1.237143309072089345e-06,-1.957894946640171844e-05
2.078571428571428736e+00,-4.569927489098566838e-06,-3.347890093763200017e-05
2.079365079365079527e+00,-9.078933451036483318e-06,-3.899360412120660965e-05
2.080158730158730318e+00,-1.137289531494544265e-05,-3.516116726763967134e-05
2.080952380952381109e+00,-1.115952678776929091e-05,-2.293909594644961928e-05
2.081746031746031900e+00,-8.776916143622568784e-06,-5.133390570257710774e-06
2.082539682539682691e+00,-5.058262927724857983e-06,1.403511704121125846e-05
2.083333333333333481e+00,-1.109025953680523114e-06,2.969718414432433835e-05
2.084126984126984272e+00,1.943375813035074080e-06,3.733095534248077305e-05
2.084920634920635063e+00,3.178077752780450108e-06,3.381112338535524918e-05
2.085714285714285854e+00,2.056750272877413873e-06,1.828877291614852864e-05
2.086507936507936645e+00,-1.469168569766086948e-06,-7.329167027910606997e-06
2.087301587301587436e+00,-6.929914832250709833e-06,-3.849791582712046019e-05
2.088095238095238226e+00,-1.339508986631654824e-05,-6.884542399958023303e-05
2.088888888888889017e+00,-1.961941794578881713e-05,-9.156935822808690050e-05
2.089682539682539808e+00,-2.426402785444194848e-05,-1.010597228483053103e-04
2.090476190476190599e+00,-2.615810252876789145e-05,-9.423852259802759795e-05
2.091269841269841390e+00,-2.454411176855312321e-05,-7.121762898815654135e-05
2.092063492063492181e+00,-1.924517388372159267e-05,-3.519823500745318550e-05
2.092857142857142971e+00,-1.071526316013088005e-05,8.179766287788301602e-06
2.093650793650793762e+00,2.747673440989739785e-08,5.179178617124001200e-05
2.094444444444444553e+00,1.155220494373651203e-05,8.818481907928564663e-05
2.095238095238095344e+00,2.221449908824207922e-05,1.109135509992443728e-04
2.096031746031746135e+00,3.038236685340006614e-05,1.159082786301795999e-04
2.096825396825396925e+00,3.468143537339688236e-05,1.025184292469987683e-04
2.097619047619047716e+00,3.424200112781867225e-05,7.381140588470532350e-05
2.098412698412698507e+00,2.890387118773578970e-05,3.588793473812178843e-05
2.099206349206349298e+00,1.931601273924932495e-05,-3.685148670263981451e-06
2.100000000000000089e+00,6.878493154746312921e-06,-3.789678072397621554e-05
2.100793650793650880e+00,-6.486069754634550297e-06,-6.215883210436673034e-05
2.101587301587301670e+00,-1.869396839390411713e-05,-7.542632116815277464e-05
2.102380952380952461e+00,-2.791486292844252257e-05,-8.018892059087197820e-05
2.103174603174603252e+00,-3.293365400708935436e-05,-8.130411615945737109e-05
2.103968253968254043e+00,-3.335359384551381007e-05,-8.402863090106910159e-05
2.104761904761904834e+00,-2.957382852650661465e-05,-9.188880228360113769e-05
2.105555555555555625e+00,-2.255510734717006973e-05,-1.051163091982768060e-04
2.106349206349206415e+00,-1.347375264112379822e-05,-1.202340637550696791e-04
2.107142857142857206e+00,-3.403932601162414888e-06,-1.310171963265343035e-04
2.107936507936507997e+00,6.858450012173642599e-06,-1.305411552407866114e-04
2.108730158730158788e+00,1.678465135689872286e-05,-1.135586071966712110e-04
2.109523809523809579e+00,2.594128928276329951e-05,-7.829912407499389445e-05
2.110317460317460370e+00,3.374284374174196365e-05,-2.709182551471596431e-05
2.111111111111111160e+00,3.925067620895697127e-05,3.422094423922936857e-05
2.111904761904761951e+00,4.114520123211008355e-05,9.765600386245576687e-05
2.112698412698412742e+00,3.796005630512421436e-05,1.547105107304841507e-04
2.113492063492063533e+00,2.858917810558137324e-05,1.978467526390502342e-04
2.114285714285714324e+00,1.296680479540835439e-05,2.216504938898735452e-04
2.115079365079365115e+00,-7.309547224408824957e-06,2.235742459511216222e-04
2.115873015873015905e+00,-2.874316140211173370e-05,2.042105800657447573e-04
2.116666666666666696e+00,-4.639636899475565009e-05,1.670933503247056537e-04
2.117460317460317487e+00,-5.513226014158011844e-05,1.181123890883825492e-04
2.118253968253968278e+00,-5.136109714709111043e-05,6.467666455395537856e-05
2.119047619047619069e+00,-3.467221797422696843e-05,1.471727601762781768e-05
2.119841269841269860e+00,-8.630741106723898966e-06,-2.445637069936765367e-05
2.120634920634920650e+00,1.974345779322912034e-05,-4.742602531087856558e-05
2.121428571428571441e+00,4.180921722765993119e-05,-5.190210075139711923e-05
2.122222222222222232e+00,4.993425440586910609e-05,-3.959425538357476198e-05
2.123015873015873023e+00,4.008761393694241929e-05,-1.630235624718437469e-05
2.123809523809523814e+00,1.352702334912766749e-05,9.067582523785799702e-06
2.124603174603174605e+00,-2.304693844824269534e-05,2.654113198570437753e-05
2.125396825396825395e+00,-5.905123255069547104e-05,2.772609365752829163e-05
2.126190476190476186e+00,-8.293257436629677731e-05,8.296496521038265219e-06
2.126984126984126977e+00,-8.559325693832997898e-05,-3.052802350820573406e-05
2.127777777777777768e+00,-6.326776930225620538e-05,-8.203551189026022435e-05
2.128571428571428559e+00,-1.892589263053015970e-05,-1.355822604990325052e-04
2.129365079365079350e+00,3.825589594165871839e-05,-1.791217044473155794e-04
2.130158730158730140e+00,9.520374526965840823e-05,-2.019290013555996035e-04
2.130952380952380931e+00,1.383641146378893831e-04,-1.968312452221164164e-04
2.131746031746031722e+00,1.572682968658236844e-04,-1.615185069428383825e-04
2.132539682539682513e+00,1.472516824820835867e-04,-9.881035918954834138e-05
2.133333333333333304e+00,1.105533599969012366e-04,-1.601010068451715827e-05
2.134126984126984095e+00,5.548354727107463293e-05,7.635325715244199198e-05
2.134920634920634885e+00,-6.033855575020990584e-06,1.660698953609134748e-04
2.135714285714285676e+00,-6.169857807758015315e-05,2.408565912893310956e-04
2.136507936507936467e+00,-1.018194587669224362e-04,2.899128285958573175e-04
2.137301587301587258e+00,-1.212530002788258712e-04,3.053414028732252751e-04
2.138095238095238049e+00,-1.199724134900518322e-04,2.833237253557872458e-04
2.138888888888888840e+00,-1.023801040521118896e-04,2.249126714298547124e-04
2.139682539682539630e+00,-7.572787261835505846e-05,1.362786225803839602e-04
2.140476190476190421e+00,-4.809682327820837770e-05,2.823214478519145190e-05
2.141269841269841212e+00,-2.639312711574197035e-05,-8.507954153860756627e-05
2.142063492063492003e+00,-1.477679468203746226e-05,-1.882090120378180622e-04
2.142857142857142794e+00,-1.385115467643314550e-05,-2.668503783906663019e-04
2.143650793650793585e+00,-2.078382274705275871e-05,-3.102288848759655361e-04
2.144444444444444375e+00,-3.031112547999362554e-05,-3.130084765679613454e-04
2.145238095238095166e+00,-3.634111567977655206e-05,-2.763835109278350334e-04
2.146031746031745957e+00,-3.369185675574086248e-05,-2.080737618730871860e-04
2.146825396825396748e+00,-1.946279522182803120e-05,-1.209838289619946460e-04
2.147619047619047539e+00,6.318353362588904264e-06,-3.050752560994573914e-05
2.148412698412698330e+00,4.084605580693837710e-05,4.902947146655884189e-05
2.149206349206349120e+00,7.927663763338537340e-05,1.077151132604305697e-04
2.149999999999999911e+00,1.157309375281142562e-04,1.419482403467515108e-04
2.150793650793650702e+00,1.443131205847486196e-04,1.541756768098728964e-04
2.151587301587301493e+00,1.600482289629722625e-04,1.506913074373290916e-04
2.152380952380952284e+00,1.596996602385001196e-04,1.384873322262562888e-04
2.153174603174603075e+00,1.423627628569553566e-04,1.223943093392409435e-04
2.153968253968253865e+00,1.096569481510169638e-04,1.035173223861385826e-04
2.154761904761904656e+00,6.538729951564252864e-05,7.948483437771317517e-05
2.155555555555555447e+00,1.472858056753053170e-05,4.641461654495769286e-05
2.156349206349206238e+00,-3.681629668881375645e-05,1.853446616048005615e-06
2.157142857142857029e+00,-8.434637267453636749e-05,-5.254148978469202867e-05
2.157936507936507819e+00,-1.241187051190590545e-04,-1.098369341934351032e-04
2.158730158730158610e+00,-1.536525380775290378e-04,-1.588500549597311143e-04
2.159523809523809401e+00,-1.715049816328374375e-04,-1.871155166446951379e-04
2.160317460317460192e+00,-1.769649458852881943e-04,-1.847715584139076944e-04
2.161111111111110983e+00,-1.698982178428553322e-04,-1.480625261153106255e-04
2.161904761904761774e+00,-1.508347436080369349e-04,-8.132789582758480384e-05
2.162698412698412564e+00,-1.212043115209118094e-04,3.226392405895228291e-06
2.163492063492063355e+00,-8.351496965720000686e-05,8.810424482937005675e-05
2.164285714285714146e+00,-4.129449376094633588e-05,1.548741689039376246e-04
2.165079365079364937e+00,1.258878991712905333e-06,1.890614079781657885e-04
2.165873015873015728e+00,3.984470042545426295e-05,1.840250041654004065e-04
2.166666666666666519e+00,7.071658781954369671e-05,1.425765334557689773e-04
2.167460317460317309e+00,9.128869049789551239e-05,7.593021977223029422e-05
2.168253968253968100e+00,1.005583107665152317e-04,5.052050371709336890e-07
2.169047619047618891e+00,9.922885302072629926e-05,-6.630913864570417535e-05
2.169841269841269682e+00,8.948861627452314726e-05,-1.102224637495311839e-04
2.170634920634920473e+00,7.451761062380019929e-05,-1.230014941476197110e-04
2.171428571428571264e+00,5.787484697758311599e-05,-1.037506773630706233e-04
2.172222222222222054e+00,4.289713420488864307e-05,-5.837474223435919364e-05
2.173015873015872845e+00,3.216175076387077562e-05,2.433639218924862194e-06
2.173809523809523636e+00,2.703543435049618750e-05,6.591653430625203083e-05
2.174603174603174427e+00,2.738333343865271131e-05,1.198099113524479255e-04
2.175396825396825218e+00,3.156510374351392210e-05,1.541627115579148903e-04
2.176190476190476009e+00,3.681101505280779285e-05,1.623268649967758302e-04
2.176984126984126799e+00,3.994328590785005504e-05,1.413708770504694780e-04
2.177777777777777590e+00,3.825908603226896293e-05,9.219868544229978941e-05
2.178571428571428381e+00,3.030580658079526246e-05,1.947357276346026137e-05
2.179365079365079172e+00,1.630275385936402302e-05,-6.871779277794649323e-05
2.180158730158729963e+00,-1.913354715667030314e-06,-1.615493269921986256e-04
2.180952380952380754e+00,-2.137833789688976002e-05,-2.465161468565897239e-04
2.181746031746031544e+00,-3.875498273661351020e-05,-3.108556587807996779e-04
2.182539682539682335e+00,-5.112732880474736590e-05,-3.432745241467697900e-04
2.183333333333333126e+00,-5.663261154977134289e-05,-3.358293292735074396e-04
2.184126984126983917e+00,-5.479969676679162445e-05,-2.856567455844563879e-04
2.184920634920634708e+00,-4.654965024927201393e-05,-1.961298881919721921e-04
2.185714285714285499e+00,-3.389326538756058958e-05,-7.701739663219781375e-05
2.186507936507936289e+00,-1.942155411922758315e-05,5.662231310861633301e-05
2.187301587301587080e+00,-5.723481566733391373e-06,1.867716696041119223e-04
2.188095238095238315e+00,5.126468491711651788e-06,2.955755416188403958e-04
2.188888888888889106e+00,1.189697529423959103e-05,3.685058873373860599e-04
2.189682539682539897e+00,1.429383008672630145e-05,3.967916535536075706e-04
2.190476190476190688e+00,1.284390822548591278e-05,3.786369597743707220e-04
2.191269841269841478e+00,8.647279829251506721e-06,3.191737064513935473e-04
2.192063492063492269e+00,3.082982325006831009e-06,2.293650616196457029e-04
2.192857142857143060e+00,-2.474712330503146720e-06,1.241191664407115367e-04
2.193650793650793851e+00,-6.904227582986000774e-06,1.983495496171592604e-05
2.194444444444444642e+00,-9.533168651041931885e-06,-6.834870700144298926e-05
2.195238095238095433e+00,-1.025796388863859355e-05,-1.291725628671125002e-04
2.196031746031746223e+00,-9.552418256126250640e-06,-1.571829537283430322e-04
2.196825396825397014e+00,-8.341090564822400947e-06,-1.534549888825797700e-04
2.197619047619047805e+00,-7.745842795379839156e-06,-1.248914781905504105e-04
2.198412698412698596e+00,-8.756026449522673769e-06,-8.227498179865233845e-05
2.199206349206349387e+00,-1.190453393815468281e-05,-3.758855476350677971e-05
2.200000000000000178e+00,-1.703925947827842336e-05,-1.318121691712277993e-06
2.200793650793650968e+00,-2.326066441458154719e-05,1.953244199912983401e-05
2.201587301587301759e+00,-2.905669428083856387e-05,2.222241769851174308e-05
2.202380952380952550e+00,-3.261563168942435248e-05,7.844251898785897719e-06
2.203174603174603341e+00,-3.225182277050062899e-05,-1.985089435089367144e-05
2.203968253968254132e+00,-2.685396313818321979e-05,-5.574793877169627765e-05
2.204761904761904923e+00,-1.625764205481538470e-05,-9.435505994904542983e-05
2.205555555555555713e+00,-1.438475832578166977e-06,-1.303717513041538750e-04
2.206349206349206504e+00,1.557182440280168104e-05,-1.589432688247608859e-04
2.207142857142857295e+00,3.209015004617332082e-05,-1.757847232210366973e-04
2.207936507936508086e+00,4.543753413023450007e-05,-1.773536896596748758e-04
2.208730158730158877e+00,5.365399463525344164e-05,-1.611931328656934499e-04
2.209523809523809668e+00,5.602812661816006847e-05,-1.264512793699864809e-04
2.210317460317460458e+00,5.324807614347549264e-05,-7.443876282085572498e-05
2.211111111111111249e+00,4.711389864707158650e-05,-8.983381626469780023e-06
2.211904761904762040e+00,3.991156135524698604e-05,6.364986187851999629e-05
2.212698412698412831e+00,3.367088009337101175e-05,1.353998154565876945e-04
2.213492063492063622e+00,2.956132926399236701e-05,1.975774124576569187e-04
2.214285714285714413e+00,2.760964777757947714e-05,2.423511972742833595e-04
2.215079365079365203e+00,2.679061091492534980e-05,2.642001670786032022e-04
2.215873015873015994e+00,2.541318714439635637e-05,2.609487778782239070e-04
2.216666666666666785e+00,2.165179077595681440e-05,2.341051908255590446e-04
2.217460317460317576e+00,1.406933531105565684e-05,1.884402699338612655e-04
2.218253968253968367e+00,2.019137007371983792e-06,1.309796500110712615e-04
2.219047619047619158e+00,-1.414085391256132545e-05,6.971869827027799655e-05
2.219841269841269948e+00,-3.305225841582771883e-05,1.235167532807467370e-05
2.220634920634920739e+00,-5.257366372621104271e-05,-3.480820280664221711e-05
2.221428571428571530e+00,-7.015599158798299672e-05,-6.763493731158192997e-05
2.222222222222222321e+00,-8.327005048060096221e-05,-8.466162298123369257e-05
2.223015873015873112e+00,-8.976715944780028265e-05,-8.715235088349604104e-05
2.223809523809523903e+00,-8.810198098451816132e-05,-7.873760792608070695e-05
2.224603174603174693e+00,-7.743386902725582542e-05,-6.464850446094905548e-05
2.225396825396825484e+00,-5.769041636969807663e-05,-5.066026229749555159e-05
2.226190476190476275e+00,-2.967741759278940262e-05,-4.190396609791885619e-05
2.226984126984127066e+00,4.746035045479942346e-06,-4.174036637353010294e-05
2.227777777777777857e+00,4.249898928389009631e-05,-5.093085078028073413e-05
2.228571428571428648e+00,7.925628499358152422e-05,-6.736038418294522791e-05
2.229365079365079438e+00,1.097281553263384921e-04,-8.649413264564642222e-05
2.230158730158730229e+00,1.283493335873153913e-04,-1.025480589667107542e-04
2.230952380952381020e+00,1.303692534967687132e-04,-1.100888391790223129e-04
2.231746031746031811e+00,1.131604860772535012e-04,-1.055863897462969782e-04
2.232539682539682602e+00,7.737375505461675015e-05,-8.843384778537232544e-05
2.233333333333333393e+00,2.746189809918318401e-05,-6.113396218151000302e-05
2.234126984126984183e+00,-2.881013430751504063e-05,-2.863514302468889007e-05
2.234920634920634974e+00,-8.191952235904408053e-05,2.942751155527797205e-06
2.235714285714285765e+00,-1.228111797424457404e-04,2.781150108783923670e-05
2.236507936507936556e+00,-1.450848082407210908e-04,4.185878428704721706e-05
2.237301587301587347e+00,-1.464214380777478645e-04,4.354327931844071130e-05
2.238095238095238138e+00,-1.288247018787477068e-04,3.419730350839279370e-05
2.238888888888888928e+00,-9.770375055694573282e-05,1.773448687418842652e-05
2.239682539682539719e+00,-6.021413281458473210e-05,-1.428150578331330509e-07
2.240476190476190510e+00,-2.343984391520916524e-05,-1.309308603879266234e-05
2.241269841269841301e+00,7.076799893113793883e-06,-1.547700618932884245e-05
2.242063492063492092e+00,2.816918773314789945e-05,-3.702857444469494214e-06
2.242857142857142883e+00,3.918991824035968481e-05,2.264731136052461124e-05
2.243650793650793673e+00,4.158382168677319282e-05,6.017190329021084906e-05
2.244444444444444464e+00,3.810647082023845900e-05,1.017543636906453506e-04
2.245238095238095255e+00,3.192915587729587193e-05,1.376202865168225833e-04
2.246031746031746046e+00,2.584129674118979908e-05,1.573522941223438106e-04
2.246825396825396837e+00,2.169625995491690672e-05,1.525330052021062134e-04
2.247619047619047628e+00,2.016831768908742290e-05,1.193232177211262391e-04
2.248412698412698418e+00,2.081569751696036205e-05,6.011428638277974178e-05
2.249206349206349209e+00,2.238881719200142508e-05,-1.640587475703678805e-05
2.250000000000000000e+00,2.328787663370845718e-05,-9.691882099310978195e-05
2.250793650793650791e+00,2.205927094139911452e-05,-1.664447749954907634e-04
2.251587301587301582e+00,1.782376004087913234e-05,-2.118031148717199833e-04
2.252380952380952372e+00,1.054920581961393094e-05,-2.246579843647368720e-04
2.253174603174603163e+00,1.114402268193243203e-06,-2.033967466152316911e-04
2.253968253968253954e+00,-8.846737445023733574e-06,-1.534063995261095441e-04
2.254761904761904745e+00,-1.728589905857116335e-05,-8.571916378156805736e-05
2.255555555555555536e+00,-2.218966365210218964e-05,-1.441033427657571659e-05
2.256349206349206327e+00,-2.203285790042303934e-05,4.656945727711018731e-05
2.257142857142857117e+00,-1.613025697290234139e-05,8.636574599272831497e-05
2.257936507936507908e+00,-4.813790480025618255e-06,9.937386565529751051e-05
2.258730158730158699e+00,1.058456312562135480e-05,8.620115792133481935e-05
2.259523809523809490e+00,2.791867421597749740e-05,5.330916329072523459e-05
2.260317460317460281e+00,4.453685653626017412e-05,1.142608806292954144e-05
2.261111111111111072e+00,5.766702996321538253e-05,-2.696730884215473918e-05
2.261904761904761862e+00,6.483962035224837819e-05,-5.058340264413056157e-05
2.262698412698412653e+00,6.431268603171162615e-05,-5.207920708320536119e-05
2.263492063492063444e+00,5.545386380286959117e-05,-2.994938228782954653e-05
2.264285714285714235e+00,3.900798814184476456e-05,1.100294167059063089e-05
2.265079365079365026e+00,1.715429586915914433e-05,6.087814597022112858e-05
2.265873015873015817e+00,-6.732232318376215001e-06,1.073456165500432887e-04
2.266666666666666607e+00,-2.863185412859148044e-05,1.390230579347096829e-04
2.267460317460317398e+00,-4.465367287175823791e-05,1.485399120899709826e-04
2.268253968253968189e+00,-5.185408895613216233e-05,1.343416068532326570e-04
2.269047619047618980e+00,-4.889631394115605164e-05,1.007302656159999178e-04
2.269841269841269771e+00,-3.638734564381851443e-05,5.624454754938285419e-05
2.270634920634920562e+00,-1.681038321061191428e-05,1.100882181984188130e-05
2.271428571428571352e+00,5.935967451399889535e-06,-2.605797906726680583e-05
2.272222222222222143e+00,2.729743353360084720e-05,-4.933955563674750553e-05
2.273015873015872934e+00,4.296950700291193832e-05,-5.739565435797747980e-05
2.273809523809523725e+00,4.976704318185295664e-05,-5.252159899729071362e-05
2.274603174603174516e+00,4.628086990387513406e-05,-3.934216963760419950e-05
2.275396825396825307e+00,3.317850462759106976e-05,-2.306529046061444338e-05
2.276190476190476097e+00,1.306610211056031946e-05,-8.025256683650566775e-06
2.276984126984126888e+00,-1.008492588941679780e-05,3.096366366479096954e-06
2.277777777777777679e+00,-3.183262962336418387e-05,9.322025281047873008e-06
2.278571428571428470e+00,-4.825896459724950555e-05,1.092545312998216642e-05
2.279365079365079261e+00,-5.679265567760949113e-05,8.817634991283598123e-06
2.280158730158730052e+00,-5.664041218286910767e-05,4.063890572221169050e-06
2.280952380952380842e+00,-4.874516927020537091e-05,-2.342109758804242559e-06
2.281746031746031633e+00,-3.534936123334974094e-05,-9.498710962340602915e-06
2.282539682539682424e+00,-1.934720957644993038e-05,-1.654782076378740884e-05
2.283333333333333215e+00,-3.627311775385775677e-06,-2.266536582322785788e-05
2.284126984126984006e+00,9.448206970460022003e-06,-2.711720315534866149e-05
2.284920634920634797e+00,1.836178529408457404e-05,-2.934745846065209710e-05
2.285714285714285587e+00,2.255213224746057185e-05,-2.905335413820933554e-05
2.286507936507936378e+00,2.234743871323927140e-05,-2.621863586005768385e-05
2.287301587301587169e+00,1.876044390592134602e-05,-2.110347361122594915e-05
2.288095238095237960e+00,1.319475421767581255e-05,-1.420646729537812049e-05
2.288888888888888751e+00,7.121284512712360262e-06,-6.217025136046097713e-06
2.289682539682539542e+00,1.787872911737851200e-06,2.033707029404829326e-06
2.290476190476190332e+00,-1.982004503437986936e-06,9.627733940025167081e-06
2.291269841269841123e+00,-3.865931771254187667e-06,1.563058251719191046e-05
2.292063492063491914e+00,-3.990454888437750013e-06,1.918414092177203871e-05
2.292857142857142705e+00,-2.780367325015941205e-06,1.962453887677964543e-05
2.293650793650793496e+00,-7.657672311214777279e-07,1.662404391491844656e-05
2.294444444444444287e+00,1.587922265565427373e-06,1.034674526832050018e-05
2.295238095238095077e+00,3.973434740138087719e-06,1.586669820855164240e-06
2.296031746031745868e+00,6.234419193777581786e-06,-8.169219979500185887e-06
2.296825396825396659e+00,8.272482415544509462e-06,-1.682208999277884294e-05
2.297619047619047450e+00,9.920065021534570288e-06,-2.193413350297884436e-05
2.298412698412698241e+00,1.084962989208034263e-05,-2.118716285201151087e-05
2.299206349206349032e+00,1.058002512870495590e-05,-1.295365913678233674e-05
2.299999999999999822e+00,8.602115396634576469e-06,3.146398785623843786e-06
2.300793650793650613e+00,4.589762359643684921e-06,2.585131982219997373e-05
2.301587301587301404e+00,-1.388638776796066742e-06,5.216066143716203567e-05
2.302380952380952195e+00,-8.761138758429047653e-06,7.762414650179099177e-05
2.303174603174602986e+00,-1.651490094825940860e-05,9.703128643934647132e-05
2.303968253968253777e+00,-2.342188984777165153e-05,1.054194829035714478e-04
2.304761904761904567e+00,-2.833990244251553272e-05,9.921271163032806826e-05
2.305555555555555358e+00,-3.047170610309678939e-05,7.721771642596838474e-05
2.306349206349206149e+00,-2.950158107141168109e-05,4.118149862321836182e-05
2.307142857142856940e+00,-2.559974191414648851e-05,-4.311274240337433640e-06
2.307936507936507731e+00,-1.933937844387056661e-05,-5.264734341041800783e-05
2.308730158730158522e+00,-1.157853793140229643e-05,-9.652285878376515164e-05
2.309523809523809312e+00,-3.331531398826476692e-06,-1.294538471984681670e-04
2.310317460317460103e+00,4.370832361388880143e-06,-1.470544768633004257e-04
2.311111111111110894e+00,1.063083866125412967e-05,-1.477759524196458360e-04
2.311904761904761685e+00,1.482078554623275483e-05,-1.329791622726294177e-04
2.312698412698412920e+00,1.667133187471747603e-05,-1.063950866997717925e-04
2.313492063492063711e+00,1.628531109062767508e-05,-7.316088498743912323e-05
2.314285714285714501e+00,1.407699351380601510e-05,-3.869285162165369841e-05
2.315079365079365292e+00,1.066032277420720803e-05,-7.665343309069512170e-06
2.315873015873016083e+00,6.719033072599312306e-06,1.669343151930009764e-05
2.316666666666666874e+00,2.887835905496076094e-06,3.288564107081179297e-05
2.317460317460317665e+00,-3.362510669896231211e-07,4.102537316708478548e-05
2.318253968253968456e+00,-2.644688499403283564e-06,4.242813726445672615e-05
2.319047619047619246e+00,-3.931530605945958268e-06,3.906302481854258838e-05
2.319841269841270037e+00,-4.276460563047433670e-06,3.301735186433824303e-05
2.320634920634920828e+00,-3.903164962664131342e-06,2.608451672400808745e-05
2.321428571428571619e+00,-3.119922680163235195e-06,1.953130343709810692e-05
2.322222222222222410e+00,-2.251091007800174684e-06,1.404744282831445621e-05
2.323015873015873201e+00,-1.570625049147167491e-06,9.839277865462960716e-06
2.323809523809523991e+00,-1.249982349390935270e-06,6.806303983922607876e-06
2.324603174603174782e+00,-1.330751077601712212e-06,4.734242621036136806e-06
2.325396825396825573e+00,-1.726449795370567175e-06,3.447936155304828124e-06
2.326190476190476364e+00,-2.250281038853145465e-06,2.887763695702260857e-06
2.326984126984127155e+00,-2.659856620261866500e-06,3.100407894885076629e-06
2.327777777777777946e+00,-2.708256785999175540e-06,4.162999387593488240e-06
2.328571428571428736e+00,-2.192608415793823726e-06,6.081278012537201826e-06
2.329365079365079527e+00,-9.944224996108633724e-07,8.710273179707575398e-06
2.330158730158730318e+00,8.918203189931392386e-07,1.173650542625430659e-05
2.330952380952381109e+00,3.344720582079307955e-06,1.473536045762374109e-05
2.331746031746031900e+00,6.119965451096272061e-06,1.728366648308754072e-05
2.332539682539682691e+00,8.875562793936135958e-06,1.907916318074902198e-05
2.333333333333333481e+00,1.121933216022279769e-05,2.001052258739346372e-05
2.334126984126984272e+00,1.277443334949818729e-05,2.014162162369416528e-05
2.334920634920635063e+00,1.325162447022157994e-05,1.961530154461810338e-05
2.335714285714285854e+00,1.251125456119601506e-05,1.852445272112443779e-05
2.336507936507936645e+00,1.059752804598207261e-05,1.681755693955616808e-05
2.337301587301587436e+00,7.733989154385907601e-06,1.428961085521530947e-05
2.338095238095238226e+00,4.280155870301622841e-06,1.066789496826245435e-05
2.338888888888889017e+00,6.599263015997053975e-07,5.759963141575557122e-06
2.339682539682539808e+00,-2.720969790235012439e-06,-3.923739810039580798e-07
2.340476190476190599e+00,-5.549429217732875109e-06,-7.411003679436555030e-06
2.341269841269841390e+00,-7.654782164466880385e-06,-1.457452780153643562e-05
2.342063492063492181e+00,-9.023588944892948921e-06,-2.092284040618338608e-05
2.342857142857142971e+00,-9.777976311624567748e-06,-2.545574173374457388e-05
2.343650793650793762e+00,-1.012537810592547768e-05,-2.737562565500183774e-05
2.344444444444444553e+00,-1.029441338144376247e-05,-2.630574618756776906e-05
2.345238095238095344e+00,-1.047412807989331834e-05,-2.241935636369444019e-05
2.346031746031746135e+00,-1.077163804566099081e-05,-1.643992258934693582e-05
2.346825396825396925e+00,-1.119721587491950245e-05,-9.508836662807338151e-06
2.347619047619047716e+00,-1.167755454313277133e-05,-2.952824389447834134e-06
2.348412698412698507e+00,-1.208943536929183727e-05,1.989560472348835009e-06
2.349206349206349298e+00,-1.229992413865469365e-05,4.410413583614902706e-06
2.350000000000000089e+00,-1.219787221953199582e-05,3.881874123804708715e-06
2.350793650793650880e+00,-1.170616154976280061e-05,4.871516735926100830e-07
2.351587301587301670e+00,-1.077381064915715433e-05,-5.240819666703541172e-06
2.352380952380952461e+00,-9.357541264643584481e-06,-1.241262094375320691e-05
2.353174603174603252e+00,-7.407724125813254527e-06,-1.985651741298900119e-05
2.353968253968254043e+00,-4.870352377044944765e-06,-2.617110049727549030e-05
2.354761904761904834e+00,-1.706997724166608973e-06,-2.980541410579712824e-05
2.355555555555555625e+00,2.075382382008498180e-06,-2.923378221975885463e-05
2.356349206349206415e+00,6.397916089936735006e-06,-2.326551332605344917e-05
2.357142857142857206e+00,1.109759593349230722e-05,-1.146568451647051359e-05
2.357936507936507997e+00,1.593311423816955074e-05,5.420976077491200968e-06
2.358730158730158788e+00,2.060477955776115897e-05,2.522540436634836505e-05
2.359523809523809579e+00,2.478115483003586237e-05,4.448698192988458474e-05
2.360317460317460370e+00,2.812736717192385361e-05,5.907727862228396009e-05
2.361111111111111160e+00,3.033492455329259938e-05,6.524563980693917555e-05
2.361904761904761951e+00,3.115540934592762667e-05,6.080262907112119483e-05
2.362698412698412742e+00,3.043779807610164776e-05,4.602071080226079013e-05
2.363492063492063533e+00,2.816323359220424238e-05,2.387053754700949219e-05
2.364285714285714324e+00,2.446733895159040556e-05,-5.680198333421319101e-07
2.365079365079365115e+00,1.964254879272899249e-05,-2.138101372638101147e-05
2.365873015873015905e+00,1.411938402474103476e-05,-3.339901835185580490e-05
2.366666666666666696e+00,8.430246791859650555e-06,-3.359844329329964328e-05
2.367460317460317487e+00,3.158979653613219183e-06,-2.191603406127301957e-05
2.368253968253968278e+00,-1.123316341142545684e-06,-1.266009372236010845e-06
2.369047619047619069e+00,-3.935742351365578853e-06,2.321364461854099300e-05
2.369841269841269860e+00,-4.972754925086222794e-06,4.546311764144057665e-05
2.370634920634920650e+00,-4.183210430754271788e-06,6.000446483966832042e-05
2.371428571428571441e+00,-1.822398497497347320e-06,6.326107509095995588e-05
2.372222222222222232e+00,1.545780299015676133e-06,5.436622733104072515e-05
2.373015873015873023e+00,5.112536967903731343e-06,3.528230544722602322e-05
2.373809523809523814e+00,7.953080354976699103e-06,1.024144039016834365e-05
2.374603174603174605e+00,9.198095847676259187e-06,-1.531373901602900293e-05
2.375396825396825395e+00,8.208611406570303617e-06,-3.601065518094632328e-05
2.376190476190476186e+00,4.711981298426430771e-06,-4.775277300574013974e-05
2.376984126984126977e+00,-1.132040638932440923e-06,-4.860347345663306568e-05
2.377777777777777768e+00,-8.746608843023778154e-06,-3.918329402453431438e-05
2.378571428571428559e+00,-1.722633546389976258e-05,-2.250946565258203925e-05
2.379365079365079350e+00,-2.547761965414263713e-05,-3.300441501688290791e-06
2.380158730158730140e+00,-3.238420331780538853e-05,1.313641031351729632e-05
2.380952380952380931e+00,-3.697264968240070957e-05,2.221676837975559681e-05
2.381746031746031722e+00,-3.855713893263741166e-05,2.128780157624486147e-05
2.382539682539682513e+00,-3.684890770984246787e-05,1.039976742518993595e-05
2.383333333333333304e+00,-3.202064217176468639e-05,-7.622076926023650632e-06
2.384126984126984095e+00,-2.471782186095990687e-05,-2.788864498216772609e-05
2.384920634920634885e+00,-1.600736311644836913e-05,-4.478075006833877385e-05
2.385714285714285676e+00,-7.253628717696508609e-06,-5.352420308013953521e-05
2.386507936507936467e+00,8.000914248347404249e-08,-5.152826232181039042e-05
2.387301587301587258e+00,4.686592043980095245e-06,-3.909108506345309626e-05
2.388095238095238049e+00,5.685666586730522891e-06,-1.929442392606498273e-05
2.388888888888888840e+00,2.846628112551033791e-06,2.844447106409745221e-06
2.389682539682539630e+00,-3.298217204724103663e-06,2.171178172139504292e-05
2.390476190476190421e+00,-1.149377971193420170e-05,3.257457260002607965e-05
2.391269841269841212e+00,-1.995927785177013239e-05,3.281167229646612553e-05
2.392063492063492003e+00,-2.670405767379017579e-05,2.255868985117354713e-05
2.392857142857142794e+00,-2.989759565456937847e-05,4.573470116450477467e-06
2.393650793650793585e+00,-2.822468650922103518e-05,-1.662860781364567436e-05
2.394444444444444375e+00,-2.116383317366262760e-05,-3.607037730985279364e-05
2.395238095238095166e+00,-9.133929972608168600e-06,-4.961050878235373230e-05
2.396031746031745957e+00,6.535304990190370256e-06,-5.486570228329090546e-05
2.396825396825396748e+00,2.382667132280649313e-05,-5.156008198491054034e-05
2.397619047619047539e+00,4.042116959166885840e-05,-4.130403390816750266e-05
2.398412698412698330e+00,5.415856475495696426e-05,-2.695195815410456714e-05
2.399206349206349120e+00,6.345155449978040127e-05,-1.176570345832390827e-05
2.399999999999999911e+00,6.754336735264054880e-05,1.383032536503889317e-06
2.400793650793650702e+00,6.655177981533881538e-05,1.059709016833797595e-05
2.401587301587301493e+00,6.131152923241552392e-05,1.524275197888742208e-05
2.402380952380952284e+00,5.308252909441655838e-05,1.593604134856087137e-05
2.403174603174603075e+00,4.321723533917809349e-05,1.425696388050764494e-05
2.403968253968253865e+00,3.287564162569820298e-05,1.224672657484696014e-05
2.404761904761904656e+00,2.284770145347762906e-05,1.178566766386070469e-05
2.405555555555555447e+00,1.350207723772849342e-05,1.400840776936306724e-05
2.406349206349206238e+00,4.841372277174128006e-06,1.894714630797370480e-05
2.407142857142857029e+00,-3.379542468406803136e-06,2.555110957520381618e-05
2.407936507936507819e+00,-1.151760919016285325e-05,3.209090241658007353e-05
2.408730158730158610e+00,-1.991794528149906478e-05,3.677874487509476368e-05
2.409523809523809401e+00,-2.881105174915867844e-05,3.833460726735380303e-05
2.410317460317460192e+00,-3.822624790120863781e-05,3.628038994810788015e-05
2.411111111111110983e+00,-4.791868702583925870e-05,3.090888568174235222e-05
2.411904761904761774e+00,-5.732099191220836251e-05,2.303345423528363481e-05
2.412698412698412564e+00,-6.554529669622937631e-05,1.369398523285802944e-05
2.413492063492063355e+00,-7.146550437331848193e-05,3.970643071636028366e-06
2.414285714285714146e+00,-7.389541190462615365e-05,-5.034511301026854388e-06
2.415079365079364937e+00,-7.184677932039652153e-05,-1.212172502087216870e-05
2.415873015873015728e+00,-6.481227960926585097e-05,-1.600605586685597057e-05
2.416666666666666519e+00,-5.298820311634081914e-05,-1.557424082344809087e-05
2.417460317460317309e+00,-3.734902909444894786e-05,-1.035479482281574483e-05
2.418253968253968100e+00,-1.952137303114219151e-05,-9.667962190026287112e-07
2.419047619047618891e+00,-1.471923336066517278e-06,1.072515129678552625e-05
2.419841269841269682e+00,1.490335422191751727e-05,2.187719836627045566e-05
2.420634920634920473e+00,2.815794783775743380e-05,2.929330959911549142e-05
2.421428571428571264e+00,3.752019573568813530e-05,3.023769955602835852e-05
2.422222222222222054e+00,4.290504380320196801e-05,2.321504083075238100e-05
2.423015873015872845e+00,4.473631155176307995e-05,8.496826885622950931e-06
2.423809523809523636e+00,4.367165329181250184e-05,-1.178337141820601789e-05
2.424603174603174427e+00,4.034518339924860841e-05,-3.402984742005660078e-05
2.425396825396825218e+00,3.521787657006554838e-05,-5.398981523778008206e-05
2.426190476190476009e+00,2.857281046445599775e-05,-6.774236832721057197e-05
2.426984126984126799e+00,2.063510347546089436e-05,-7.259182820979544638e-05
2.427777777777777590e+00,1.175158205685349367e-05,-6.761592556837209018e-05
2.428571428571428381e+00,2.541983925396904815e-06,-5.373116354385386534e-05
2.429365079365079172e+00,-6.061484635845482629e-06,-3.330498658654303692e-05
2.430158730158729963e+00,-1.293231559086004915e-05,-9.504374467183804274e-06
2.430952380952380754e+00,-1.700896135979056912e-05,1.435978142277472077e-05
2.431746031746031544e+00,-1.761268018166361722e-05,3.529459770370562571e-05
2.432539682539682335e+00,-1.470293182387071366e-05,5.084470439450981902e-05
2.433333333333333126e+00,-8.958923530287839069e-06,5.916354095375906443e-05
2.434126984126983917e+00,-1.633188200024273698e-06,5.909276671732603117e-05
2.434920634920634708e+00,5.791674374648133906e-06,5.036913224565940861e-05
2.435714285714285499e+00,1.202977339424939048e-05,3.397066735973271710e-05
2.436507936507936289e+00,1.634476149068491216e-05,1.248544983141166389e-05
2.437301587301587080e+00,1.869231667782446290e-05,-9.715594973998533334e-06
2.438095238095238315e+00,1.960238470211917957e-05,-2.675867364283055394e-05
2.438888888888889106e+00,1.986534592264218197e-05,-3.220003161522053608e-05
2.439682539682539897e+00,2.016832298489480818e-05,-2.063230654512305794e-05
2.440476190476190688e+00,2.083584571359646341e-05,1.031669623939105675e-05
2.441269841269841478e+00,2.176580225295902357e-05,5.821863252860190127e-05
2.442063492063492269e+00,2.255688072977909736e-05,1.151377511862896637e-04
2.442857142857143060e+00,2.274381042393119589e-05,1.686282571960103784e-04
2.443650793650793851e+00,2.201941726718933102e-05,2.044627271552996593e-04
2.444444444444444642e+00,2.033397851987385949e-05,2.103482631129145524e-04
2.445238095238095433e+00,1.781755472392047713e-05,1.794300012990858743e-04
2.446031746031746223e+00,1.455644546130246756e-05,1.124682293230685044e-04
2.446825396825397014e+00,1.033991262283725494e-05,1.805864805127566954e-05
2.447619047619047805e+00,4.532591636734770763e-06,-8.913345398518598040e-05
2.448412698412698596e+00,-3.809513927508266701e-06,-1.916126288133490141e-04
2.449206349206349387e+00,-1.556446286781603143e-05,-2.728680608929674842e-04
2.450000000000000178e+00,-3.101639535255387242e-05,-3.207353687531106726e-04
2.450793650793650968e+00,-4.936468793655025849e-05,-3.294692132103348441e-04
2.451587301587301759e+00,-6.848022540669140802e-05,-3.001503110885166050e-04
2.452380952380952550e+00,-8.506366675750568851e-05,-2.395923998182418067e-04
2.453174603174603341e+00,-9.524036133198686286e-05,-1.583147709549458820e-04
2.453968253968254132e+00,-9.547331931857029575e-05,-6.826883131175741934e-05
2.454761904761904923e+00,-8.354537803287617563e-05,1.912928001339894170e-05
2.455555555555555713e+00,-5.931192852868402373e-05,9.437565791138389094e-05
2.456349206349206504e+00,-2.498087285027502012e-05,1.506380076427401768e-04
2.457142857142857295e+00,1.518456060672530149e-05,1.840292377638429525e-04
2.457936507936508086e+00,5.567311573994602932e-05,1.935684981171767655e-04
2.458730158730158877e+00,9.082856062482064707e-05,1.809577560073706744e-04
2.459523809523809668e+00,1.159557655231061111e-04,1.502238777835541777e-04
2.460317460317460458e+00,1.281503817000839999e-04,1.072150905688270921e-04
2.461111111111111249e+00,1.266710313087461440e-04,5.892388069572097246e-05
2.461904761904762040e+00,1.128200074195497368e-04,1.263358812730712681e-05
2.462698412698412831e+00,8.943996655529577028e-05,-2.506513901704852178e-05
2.463492063492063622e+00,6.022030727727195528e-05,-4.928118722783932283e-05
2.464285714285714413e+00,2.901511826587510945e-05,-5.768201593731283114e-05
2.465079365079365203e+00,-6.844122575827157406e-07,-5.099313125042400627e-05
2.465873015873015994e+00,-2.607214412682468566e-05,-3.294687858856963332e-05
2.466666666666666785e+00,-4.517592559322923225e-05,-9.585934149524160173e-06
2.467460317460317576e+00,-5.690706141268394815e-05,1.201475660806644198e-05
2.468253968253968367e+00,-6.107332950469360699e-05,2.535788758124670478e-05
2.469047619047619158e+00,-5.837194997877702646e-05,2.606780889084775584e-05
2.469841269841269948e+00,-5.032930120376522275e-05,1.294367587232173529e-05
2.470634920634920739e+00,-3.913326846469291292e-05,-1.177284028075246486e-05
2.471428571428571530e+00,-2.732632257099924469e-05,-4.297366010361977878e-05
2.472222222222222321e+00,-1.738199533547114969e-05,-7.392695264407108746e-05
2.473015873015873112e+00,-1.124494709230353494e-05,-9.786153367770465249e-05
2.473809523809523903e+00,-9.946911143703906277e-06,-1.095307079660150934e-04
2.474603174603174693e+00,-1.340595756265000976e-05,-1.064233656745464096e-04
2.475396825396825484e+00,-2.047770617160877876e-05,-8.933049758234906266e-05
2.476190476190476275e+00,-2.926142022527960547e-05,-6.204027809173351512e-05
2.476984126984127066e+00,-3.758419902982886393e-05,-3.013363220411088776e-05
2.477777777777777857e+00,-4.351996393094193736e-05,7.724597548877011472e-07
2.478571428571428648e+00,-4.578150988876319766e-05,2.664656112889825514e-05
2.479365079365079438e+00,-4.387271545131334917e-05,4.586528406574465671e-05
2.480158730158730229e+00,-3.798842085476835545e-05,5.900899040012906350e-05
2.480952380952381020e+00,-2.875424728802351653e-05,6.791804973524879282e-05
2.481746031746031811e+00,-1.695525449370191936e-05,7.453806795090055909e-05
2.482539682539682602e+00,-3.385354324012817863e-06,8.001249623752214909e-05
2.483333333333333393e+00,1.112761758696109105e-05,8.428935489365429177e-05
2.484126984126984183e+00,2.556571277944474032e-05,8.633052625029083015e-05
2.484920634920634974e+00,3.855904568516948204e-05,8.484034797993350433e-05
2.485714285714285765e+00,4.837166507261337050e-05,7.923592605356073509e-05
2.486507936507936556e+00,5.314218890727984753e-05,7.041824016557207016e-05
2.487301587301587347e+00,5.137313341969402543e-05,6.088499546349509075e-05
2.488095238095238138e+00,4.252734192158015504e-05,5.393285805450064605e-05
2.488888888888888928e+00,2.749798528143234706e-05,5.209646862298805453e-05
2.489682539682539719e+00,8.721956894143972948e-06,5.541060468098579073e-05
2.490476190476190510e+00,-1.018752755580915997e-05,6.034012744131825578e-05
2.491269841269841301e+00,-2.524497466542585642e-05,6.011836881371499034e-05
2.492063492063492092e+00,-3.312332328101421681e-05,4.673250181163511813e-05
2.492857142857142883e+00,-3.209788132297960333e-05,1.405123287058702544e-05
2.493650793650793673e+00,-2.258678165804183121e-05,-3.907246571770334220e-05
2.494444444444444464e+00,-7.078387997132972569e-06,-1.070923047351487605e-04
2.495238095238095255e+00,1.056968420565840970e-05,-1.783477740324725352e-04
2.496031746031746046e+00,2.625475256600213014e-05,-2.378650585208250947e-04
2.496825396825396837e+00,3.680842977075085830e-05,-2.713996939677663575e-04
2.497619047619047628e+00,4.082917743321103245e-05,-2.693427186161612033e-04
2.498412698412698418e+00,3.888459959430484584e-05,-2.292996592006979353e-04
2.499206349206349209e+00,3.303431455306395055e-05,-1.566820075085451926e-04
2.500000000000000000e+00,2.588616603957698419e-05,-6.326629247838015202e-05
2.500793650793650791e+00,1.957669371410615861e-05,3.576611500244599806e-05
2.501587301587301582e+00,1.507728959681868657e-05,1.253965192962226715e-04
2.502380952380952372e+00,1.206586615946042649e-05,1.939095591156054610e-04
2.503174603174603163e+00,9.352622642377084465e-06,2.347922403970518991e-04
2.503968253968253954e+00,5.626148849648579769e-06,2.470580611375454709e-04
2.504761904761904745e+00,1.808681203596128014e-07,2.341987566911662923e-04
2.505555555555555536e+00,-6.676312224178564934e-06,2.023421632329963692e-04
2.506349206349206327e+00,-1.369499629845519897e-05,1.583021329587178236e-04
2.507142857142857117e+00,-1.918665277897188057e-05,1.080712078196406222e-04
2.507936507936507908e+00,-2.175525689839988259e-05,5.604280210790599741e-05
2.508730158730158699e+00,-2.094952329539260933e-05,4.980292466752282970e-06
2.509523809523809490e+00,-1.755364483234414351e-05,-4.344661612119519745e-05
2.510317460317460281e+00,-1.336732612742734794e-05,-8.784186529857728528e-05
2.511111111111111072e+00,-1.052953706558631603e-05,-1.262935963046213275e-04
2.511904761904761862e+00,-1.063567593021329922e-05,-1.559109169705771771e-04
2.512698412698412653e+00,-1.400176279254177080e-05,-1.729125178600216569e-04
2.513492063492063444e+00,-1.939011591551104155e-05,-1.733527785484375683e-04
2.514285714285714235e+00,-2.433574082251421068e-05,-1.543628309535977701e-04
2.515079365079365026e+00,-2.597160497337056570e-05,-1.155534580522510596e-04
2.515873015873015817e+00,-2.204795452838207017e-05,-6.006285299485464275e-05
2.516666666666666607e+00,-1.176363328916051302e-05,5.260186325267171448e-06
2.517460317460317398e+00,3.892324602316744662e-06,7.081044862387307116e-05
2.518253968253968189e+00,2.239005688966862911e-05,1.261787233880990800e-04
2.519047619047618980e+00,4.037027037356582940e-05,1.625443609086018129e-04
2.519841269841269771e+00,5.453147295437127439e-05,1.747303530574730436e-04
2.520634920634920562e+00,6.238480351524944485e-05,1.622508724807258636e-04
2.521428571428571352e+00,6.267180164741917878e-05,1.290753818238810861e-04
2.522222222222222143e+00,5.540084205805887872e-05,8.231335800484382444e-05
2.523015873015872934e+00,4.159420317741091918e-05,3.035521392694579215e-05
2.523809523809523725e+00,2.290192837618010004e-05,-1.892826876599544052e-05
2.524603174603174516e+00,1.230799950052025360e-06,-5.948102187389394020e-05
2.525396825396825307e+00,-2.151347368134029175e-05,-8.765876760741626243e-05
2.526190476190476097e+00,-4.353632245249611221e-05,-1.021787142405688255e-04
2.526984126984126888e+00,-6.314372957921851983e-05,-1.036388402431318126e-04
2.527777777777777679e+00,-7.868721167459186345e-05,-9.388431080102061898e-05
2.528571428571428470e+00,-8.856242290187493348e-05,-7.545609869607646197e-05
2.529365079365079261e+00,-9.134086953505566957e-05,-5.124670622313600506e-05
2.530158730158730052e+00,-8.605491346777123182e-05,-2.436115017749568263e-05
2.530952380952380842e+00,-7.257338673032939877e-05,1.921571029189685188e-06
2.531746031746031633e+00,-5.192969900396953771e-05,2.424437951830211033e-05
2.532539682539682424e+00,-2.643190143987495620e-05,3.946170245313182268e-05
2.533333333333333215e+00,5.774696094089024618e-07,4.515248732797085517e-05
2.534126984126984006e+00,2.533092955513350909e-05,4.023389308508202889e-05
2.534920634920634797e+00,4.448066802182561484e-05,2.544019630215579847e-05
2.535714285714285587e+00,5.591832286442440029e-05,3.430161787152756650e-06
2.536507936507936378e+00,5.928176157840986382e-05,-2.160088628260209404e-05
2.537301587301587169e+00,5.595594716034803213e-05,-4.475885075461167727e-05
2.538095238095237960e+00,4.855486186367603834e-05,-6.153917288761451125e-05
2.538888888888888751e+00,4.005686021474936414e-05,-6.887596650377034787e-05
2.539682539682539542e+00,3.288467165070308465e-05,-6.585419202823105441e-05
2.540476190476190332e+00,2.823654807530922949e-05,-5.386509439393531560e-05
2.541269841269841123e+00,2.588499528527822669e-05,-3.614278606426755150e-05
2.542063492063491914e+00,2.449323970514727606e-05,-1.682133050106925828e-05
2.542857142857142705e+00,2.231340535433365077e-05,1.785778221871799766e-07
2.543650793650793496e+00,1.799255500788223591e-05,1.207086038932951626e-05
2.544444444444444287e+00,1.117673799242392202e-05,1.767036940793470417e-05
2.545238095238095077e+00,2.684010615737597261e-06,1.734319920027442585e-05
2.546031746031745868e+00,-5.815502397153705737e-06,1.257081879151404319e-05
2.546825396825396659e+00,-1.248424394466300911e-05,5.348828946041957044e-06
2.547619047619047450e+00,-1.609604494772726187e-05,-2.373539425275171771e-06
2.548412698412698241e+00,-1.659784548348674713e-05,-9.079035120071256800e-06
2.549206349206349032e+00,-1.522020777708918762e-05,-1.384359496842199209e-05
2.549999999999999822e+00,-1.406930292966744847e-05,-1.629559589338047589e-05
2.550793650793650613e+00,-1.532707253114223267e-05,-1.644022762641541270e-05
2.551587301587301404e+00,-2.033667695696537476e-05,-1.443185523176337634e-05
2.552380952380952195e+00,-2.890471834253156933e-05,-1.037612253031129461e-05
2.553174603174602986e+00,-3.909298348203161036e-05,-4.234442793125677003e-06
2.553968253968253777e+00,-4.762059818489242926e-05,4.120676167747533512e-06
2.554761904761904567e+00,-5.079759572278186308e-05,1.470158913810274358e-05
2.555555555555555358e+00,-4.571984936101127948e-05,2.712513279688101388e-05
2.556349206349206149e+00,-3.133561937302100151e-05,4.038962426705347189e-05
2.557142857142856940e+00,-9.001259953692460026e-06,5.285819625892671382e-05
2.557936507936507731e+00,1.770272638466513932e-05,6.253827338779944904e-05
2.558730158730158522e+00,4.386666792452923949e-05,6.761813734782655492e-05
2.559523809523809312e+00,6.456666174649541476e-05,6.707956047461143684e-05
2.560317460317460103e+00,7.615512446021378747e-05,6.113586198051050504e-05
2.561111111111110894e+00,7.710892482474092586e-05,5.129769308497910492e-05
2.561904761904761685e+00,6.820558862061927542e-05,4.001542944927778380e-05
2.562698412698412920e+00,5.205293852469910766e-05,3.000463919450121515e-05
2.563492063492063711e+00,3.220500256693290025e-05,2.346126259558277486e-05
2.564285714285714501e+00,1.218740026300156805e-05,2.139907377075720950e-05
2.565079365079365292e+00,-5.276341385931530709e-06,2.330778496318665349e-05
2.565873015873016083e+00,-1.866004128493831547e-05,2.724687833918273069e-05
2.566666666666666874e+00,-2.761773416645772002e-05,3.036648046164011538e-05
2.567460317460317665e+00,-3.264870946174263950e-05,2.971177155828356230e-05
2.568253968253968456e+00,-3.462041214724712767e-05,2.307313416946638054e-05
2.569047619047619246e+00,-3.433941425984449734e-05,9.632956425951083894e-06
2.569841269841270037e+00,-3.230881922143446003e-05,-9.761399173611064506e-06
2.570634920634920828e+00,-2.871654163975960496e-05,-3.273140849369378852e-05
2.571428571428571619e+00,-2.360253865140966864e-05,-5.581027281101920700e-05
2.572222222222222410e+00,-1.709082983976063246e-05,-7.505018244805554590e-05
2.573015873015873201e+00,-9.562944500195125493e-06,-8.670154384290508552e-05
2.573809523809523991e+00,-1.690881099359072434e-06,-8.793674144386332990e-05
2.574603174603174782e+00,5.680367725482893048e-06,-7.756715300073988299e-05
2.575396825396825573e+00,1.174011209183894841e-05,-5.659865267443597712e-05
2.576190476190476364e+00,1.591177792733101617e-05,-2.839894923512324847e-05
2.576984126984127155e+00,1.796030541282629626e-05,1.700240100964561762e-06
2.577777777777777946e+00,1.797159759832276697e-05,2.737945156585217500e-05
2.578571428571428736e+00,1.622640086591595543e-05,4.270237490206448997e-05
2.579365079365079527e+00,1.303266219926252807e-05,4.355641989615038266e-05
2.580158730158730318e+00,8.594064317326435975e-06,2.879511940425387388e-05
2.580952380952381109e+00,2.976603071320135925e-06,7.610498362419021702e-07
2.581746031746031900e+00,-3.804495986259440903e-06,-3.500858231745447704e-05
2.582539682539682691e+00,-1.160580070539244331e-05,-7.089006693300980121e-05
2.583333333333333481e+00,-1.995751303905950693e-05,-9.884729889330680364e-05
2.584126984126984272e+00,-2.794152025557955217e-05,-1.122336278658231157e-04
2.584920634920635063e+00,-3.423013827880474358e-05,-1.072428479197636730e-04
2.585714285714285854e+00,-3.732225065786250076e-05,-8.366022684831736110e-05
2.586507936507936645e+00,-3.593784055375576778e-05,-4.479303135428215643e-05
2.587301587301587436e+00,-2.945362666832209710e-05,3.319355585140323784e-06
2.588095238095238226e+00,-1.821970046284378754e-05,5.317280878499456225e-05
2.588888888888889017e+00,-3.621481031315994834e-06,9.724153716026432076e-05
2.589682539682539808e+00,1.215815715689506303e-05,1.292997856991892592e-04
2.590476190476190599e+00,2.660770757520095037e-05,1.453840164708594283e-04
2.591269841269841390e+00,3.743920470308008738e-05,1.442608512870148974e-04
2.592063492063492181e+00,4.306605804434587734e-05,1.273832943206458545e-04
2.592857142857142971e+00,4.289605535730067016e-05,9.841229289983344849e-05
2.593650793650793762e+00,3.739688172752435964e-05,6.243770336410958926e-05
2.594444444444444553e+00,2.794983211415945042e-05,2.505888872302272481e-05
2.595238095238095344e+00,1.654463108387629471e-05,-8.513244048545886249e-06
2.596031746031746135e+00,5.384940173454940372e-06,-3.419668676693637244e-05
2.596825396825396925e+00,-3.524456076489135060e-06,-4.953491258753704333e-05
2.597619047619047716e+00,-8.744830425056664223e-06,-5.391825125314642932e-05
2.598412698412698507e+00,-9.670861700969907360e-06,-4.853958065266225435e-05
2.599206349206349298e+00,-6.653906291097744210e-06,-3.611535978004047214e-05
2.600000000000000089e+00,-9.488323138279080348e-07,-2.040947420735377108e-05
2.600793650793650880e+00,5.527793089845084411e-06,-5.597982480775596300e-06
2.601587301587301670e+00,1.060418745102428735e-05,4.474061940920845594e-06
2.602380952380952461e+00,1.234936733941940252e-05,7.050451512139955212e-06
2.603174603174603252e+00,9.537477571079343918e-06,1.085473007892490288e-06
2.603968253968254043e+00,1.950351157895412669e-06,-1.244604102971055604e-05
2.604761904761904834e+00,-9.565510416404128554e-06,-3.067580161916259000e-05
2.605555555555555625e+00,-2.328734574109952003e-05,-4.941994413311391577e-05
2.606349206349206415e+00,-3.697308857659213296e-05,-6.410278388560839205e-05
2.607142857142857206e+00,-4.828068197953227977e-05,-7.083750442435422811e-05
2.607936507936507997e+00,-5.516520170921295608e-05,-6.742364468228708178e-05
2.608730158730158788e+00,-5.620899321298029281e-05,-5.399324803224689800e-05
2.609523809523809579e+00,-5.086277990849201756e-05,-3.306352384975925736e-05
2.610317460317460370e+00,-3.957498179238499146e-05,-8.891616877319120346e-06
2.611111111111111160e+00,-2.377685150051532805e-05,1.372310571224153772e-05
2.611904761904761951e+00,-5.685953788870398285e-06,3.079898046476178721e-05
2.612698412698412742e+00,1.209525232554304363e-05,4.022293814818313001e-05
2.613492063492063533e+00,2.715403223429021658e-05,4.214874633826702323e-05
2.614285714285714324e+00,3.788716392435666479e-05,3.863417260275848466e-05
2.615079365079365115e+00,4.394809379731305627e-05,3.264120720355958227e-05
2.615873015873015905e+00,4.629497371889564874e-05,2.672341806825046396e-05
2.616666666666666696e+00,4.672914124710651247e-05,2.187057226728834840e-05
2.617460317460317487e+00,4.702640906241179196e-05,1.699386405747517150e-05
2.618253968253968278e+00,4.797703534742980179e-05,9.344420673216146482e-06
2.619047619047619069e+00,4.874854424654124797e-05,-4.201723018275941526e-06
2.619841269841269860e+00,4.690275984997843532e-05,-2.544302232807884930e-05
2.620634920634920650e+00,3.916084963919317318e-05,-5.342313941822047146e-05
2.621428571428571441e+00,2.271742051014736640e-05,-8.392800019279787196e-05
2.622222222222222232e+00,-3.325802608948320009e-06,-1.102409145037499638e-04
2.623015873015873023e+00,-3.691527614269367389e-05,-1.249752990951913108e-04
2.623809523809523814e+00,-7.279674492541043137e-05,-1.223284756126293840e-04
2.624603174603174605e+00,-1.032385941558466099e-04,-9.991143978935739672e-05
2.625396825396825395e+00,-1.196494126040841921e-04,-5.951827787151034216e-05
2.626190476190476186e+00,-1.147988720993044687e-04,-6.672872996601574629e-06
2.626984126984126977e+00,-8.516093062904457492e-05,5.075751398064524440e-05
2.627777777777777768e+00,-3.271840489779933090e-05,1.043774852162717912e-04
2.628571428571428559e+00,3.449380261950783972e-05,1.470155948361604045e-04
2.629365079365079350e+00,1.035988729952191169e-04,1.740161469558837502e-04
2.630158730158730140e+00,1.597742938888415450e-04,1.837879935232948647e-04
2.630952380952380931e+00,1.900950358524385194e-04,1.775230687003790861e-04
2.631746031746031722e+00,1.871417609041533950e-04,1.582854803316578914e-04
2.632539682539682513e+00,1.511983951192964781e-04,1.299091198301205907e-04
2.633333333333333304e+00,9.029538644814956514e-05,9.615466530334603953e-05
2.634126984126984095e+00,1.802603575892758428e-05,6.034549322014620860e-05
2.634920634920634885e+00,-5.023862322114340930e-05,2.539270660801678844e-05
2.635714285714285676e+00,-1.015773554038189303e-04,-6.053469488822727341e-06
2.636507936507936467e+00,-1.288423271917047168e-04,-3.155079753596274825e-05
2.637301587301587258e+00,-1.320118926166406162e-04,-4.899772160407903342e-05
2.638095238095238049e+00,-1.172015264026482825e-04,-5.694023727309915867e-05
2.638888888888888840e+00,-9.381343952819960730e-05,-5.499909795930165373e-05
2.639682539682539630e+00,-7.095522285523892935e-05,-4.431133914190439572e-05
2.640476190476190421e+00,-5.444476457768187655e-05,-2.779597518497637753e-05
2.641269841269841212e+00,-4.539916673651527750e-05,-1.000000806558732238e-05
2.642063492063492003e+00,-4.074034780993631479e-05,3.653076577985720897e-06
2.642857142857142794e+00,-3.521491702041260676e-05,8.176000449070164382e-06
2.643650793650793585e+00,-2.400718353061899183e-05,5.734765737845027849e-07
2.644444444444444375e+00,-4.911081226755205001e-06,-1.887935612285075555e-05
2.645238095238095166e+00,2.067880789633874030e-05,-4.616535232858808740e-05
2.646031746031745957e+00,4.817849108530479821e-05,-7.418715684790341228e-05
2.646825396825396748e+00,7.135092451304648109e-05,-9.453600849461941372e-05
2.647619047619047539e+00,8.437081518269305648e-05,-9.994244787089817748e-05
2.648412698412698330e+00,8.371925824344342358e-05,-8.666925298022851480e-05
2.649206349206349120e+00,6.930900860444736496e-05,-5.601736631402661338e-05
2.649999999999999911e+00,4.451428985143152659e-05,-1.434382711925066713e-05
2.650793650793650702e+00,1.515653294656285968e-05,2.850255442213351072e-05
2.651587301587301493e+00,-1.215756043427007785e-05,6.183442619059577241e-05
2.652380952380952284e+00,-3.178290739657208051e-05,7.697953974606302563e-05
2.653174603174603075e+00,-4.036892084235027171e-05,6.943755316408585932e-05
2.653968253968253865e+00,-3.749184911311424323e-05,3.979899806251240452e-05
2.654761904761904656e+00,-2.552385554810408151e-05,-6.625373530851533691e-06
2.655555555555555447e+00,-8.835784729186946254e-06,-6.115304290742673218e-05
2.656349206349206238e+00,7.452803284843240444e-06,-1.135986584990951963e-04
2.657142857142857029e+00,1.885540239612076629e-05,-1.542118782911095637e-04
2.657936507936507819e+00,2.265409239528382054e-05,-1.753109136546622353e-04
2.658730158730158610e+00,1.848126235967535114e-05,-1.723706356717747714e-04
2.659523809523809401e+00,8.236726166892986708e-06,-1.444970630577216105e-04
2.660317460317460192e+00,-4.554905039717726133e-06,-9.437552546497955598e-05
2.661111111111110983e+00,-1.572136256992746805e-05,-2.784383017742900928e-05
2.661904761904761774e+00,-2.152503347394551359e-05,4.680997472963774130e-05
2.662698412698412564e+00,-1.966474509562348206e-05,1.198352002534803904e-04
2.663492063492063355e+00,-1.002589891142335975e-05,1.813460509421191294e-04
2.664285714285714146e+00,5.018430347009772392e-06,2.229191857339024856e-04
2.665079365079364937e+00,2.095353296802026987e-05,2.391448441056517220e-04
2.665873015873015728e+00,3.219902934789269501e-05,2.286637608700361817e-04
2.666666666666666519e+00,3.374382274726320024e-05,1.943406138810998022e-04
2.667460317460317309e+00,2.287912459862284759e-05,1.425338702747325128e-04
2.668253968253968100e+00,4.190517299941160451e-07,8.168758881015290320e-05
2.669047619047618891e+00,-2.908914665678553383e-05,2.057564798959947349e-05
2.669841269841269682e+00,-5.831722643288861103e-05,-3.345858667346472925e-05
2.670634920634920473e+00,-7.900634345804777791e-05,-7.591239617041391241e-05
2.671428571428571264e+00,-8.415606333358759984e-05,-1.058280553549379767e-04
2.672222222222222054e+00,-6.992351343381556536e-05,-1.255261223757071331e-04
2.673015873015872845e+00,-3.674522714704574195e-05,-1.393410890872953136e-04
2.673809523809523636e+00,1.055275976510730176e-05,-1.516830551855006507e-04
2.674603174603174427e+00,6.363456846060377872e-05,-1.650627702075267982e-04
2.675396825396825218e+00,1.123081862195075023e-04,-1.788094150875569797e-04
2.676190476190476009e+00,1.466157535428451518e-04,-1.889945605214784347e-04
2.676984126984126799e+00,1.589528359042081485e-04,-1.896330238886364085e-04
2.677777777777777590e+00,1.457816970161646131e-04,-1.747480207463217490e-04
2.678571428571428381e+00,1.085376455003153167e-04,-1.405563194502025787e-04
2.679365079365079172e+00,5.345530221550425198e-05,-8.699353378216722861e-05
2.680158730158729963e+00,-9.721784354372269739e-06,-1.809275451782822700e-05
2.680952380952380754e+00,-6.987955374754098480e-05,5.879910440456559049e-05
2.681746031746031544e+00,-1.169848180368149938e-04,1.345910560694143696e-04
2.682539682539682335e+00,-1.442072006632442505e-04,2.002687477411998779e-04
2.683333333333333126e+00,-1.491720937635569646e-04,2.484764533445808668e-04
2.684126984126983917e+00,-1.340753608045420792e-04,2.745367863294164855e-04
2.684920634920634708e+00,-1.047290003484733589e-04,2.768141593594783140e-04
2.685714285714285499e+00,-6.889812722008979934e-05,2.565397288343833262e-04
2.686507936507936289e+00,-3.443326021025216993e-05,2.173100495070108410e-04
2.687301587301587080e+00,-7.660417263690252236e-06,1.644348938334930655e-04
2.688095238095238315e+00,7.680746927756947263e-06,1.042330415794461744e-04
2.688888888888889106e+00,1.085638630977809054e-05,4.333864536726568832e-05
2.689682539682539897e+00,3.958741946458556753e-06,-1.193480502682788988e-05
2.690476190476190688e+00,-8.766111037324387289e-06,-5.617111316874818448e-05
2.691269841269841478e+00,-2.195430437983031074e-05,-8.540813966784961187e-05
2.692063492063492269e+00,-3.036849928820481662e-05,-9.767824655478418001e-05
2.692857142857143060e+00,-3.013577049100841289e-05,-9.344157313070661913e-05
2.693650793650793851e+00,-1.969153784491248902e-05,-7.576371849675541824e-05
2.694444444444444642e+00,-1.320766549990161626e-07,-5.010734087188501243e-05
2.695238095238095433e+00,2.518314003711031142e-05,-2.366173173361832112e-05
2.696031746031746223e+00,5.165905720459961967e-05,-4.206139023679488188e-06
2.696825396825397014e+00,7.473479122849967715e-05,1.380964018844879488e-06
2.697619047619047805e+00,9.093676749636116772e-05,-1.130168032117270559e-05
2.698412698412698596e+00,9.842508676259798135e-05,-4.289954722202080675e-05
2.699206349206349387e+00,9.701328280876509553e-05,-8.969457433896593855e-05
2.700000000000000178e+00,8.783350538321728763e-05,-1.439073150489287342e-04
2.700793650793650968e+00,7.285944330380246796e-05,-1.949611234246161279e-04
2.701587301587301759e+00,5.444044227648562451e-05,-2.315537969126775953e-04
2.702380952380952550e+00,3.492875936619596979e-05,-2.441400592068845431e-04
2.703174603174603341e+00,1.643463175514219677e-05,-2.272005991577113668e-04
2.703968253968254132e+00,7.084022202739508602e-07,-1.806168368237371020e-04
2.704761904761904923e+00,-1.088760636068408323e-05,-1.097041050891192290e-04
2.705555555555555713e+00,-1.738294250241575708e-05,-2.390796999135249841e-05
2.706349206349206504e+00,-1.824661188910183725e-05,6.537747436002670331e-05
2.707142857142857295e+00,-1.351581691459188586e-05,1.471480945492439712e-04
2.707936507936508086e+00,-3.986466169760478318e-06,2.125841079544690500e-04
2.708730158730158877e+00,8.618220201251433084e-06,2.559004969846705797e-04
2.709523809523809668e+00,2.163113190583438621e-05,2.743138417082122854e-04
2.710317460317460458e+00,3.170760754413523276e-05,2.675600190901890850e-04
2.711111111111111249e+00,3.543499290499863751e-05,2.374609998414317007e-04
2.711904761904762040e+00,3.019984557334691688e-05,1.877787019353934536e-04
2.712698412698412831e+00,1.505686025741627258e-05,1.242209203708248815e-04
2.713492063492063622e+00,-8.745598941038094497e-06,5.424419290212029361e-05
2.714285714285714413e+00,-3.784647451744523088e-05,-1.364100007182614455e-05
2.715079365079365203e+00,-6.748432855151861225e-05,-7.109303121088856095e-05
2.715873015873015994e+00,-9.260095313196049750e-05,-1.114373428407686839e-04
2.716666666666666785e+00,-1.089584524407071013e-04,-1.310203422660343646e-04
2.717460317460317576e+00,-1.139460456592758086e-04,-1.299797066536114234e-04
2.718253968253968367e+00,-1.069337715530786705e-04,-1.121180788294382023e-04
2.719047619047619158e+00,-8.920519723291317211e-05,-8.383645995577262186e-05
2.719841269841269948e+00,-6.357950846557669955e-05,-5.242975298514808582e-05
2.720634920634920739e+00,-3.382780929876530484e-05,-2.430714055250795242e-05
2.721428571428571530e+00,-3.974958309558962462e-06,-3.713927572433037327e-06
2.722222222222222321e+00,2.239920975940648955e-05,7.712615748951184562e-06
2.723015873015873112e+00,4.271812733869962976e-05,1.056941021340486191e-05
2.723809523809523903e+00,5.570697955683829704e-05,6.786558315140970892e-06
2.724603174603174693e+00,6.138854855052614499e-05,-1.387173280368495847e-06
2.725396825396825484e+00,6.081967655523901870e-05,-1.212253896367561335e-05
2.726190476190476275e+00,5.566666270021639062e-05,-2.423194661558826209e-05
2.726984126984127066e+00,4.773673095544523823e-05,-3.687586274567100116e-05
2.727777777777777857e+00,3.857953676897732701e-05,-4.899259543004643575e-05
2.728571428571428648e+00,2.925202253925520527e-05,-5.881111006717061813e-05
2.729365079365079438e+00,2.029393053509879127e-05,-6.375697652296670069e-05
2.730158730158730229e+00,1.189151744508039534e-05,-6.088771596329861830e-05
2.730952380952381020e+00,4.137754466296317752e-06,-4.777391615194703529e-05
2.731746031746031811e+00,-2.736949169589578511e-06,-2.353695988448958068e-05
2.732539682539682602e+00,-8.267500850907436933e-06,1.036462018427193505e-05
2.733333333333333393e+00,-1.182497996667766599e-05,4.995038882023332204e-05
2.734126984126984183e+00,-1.281217546178033392e-05,8.923944009455783276e-05
2.734920634920634974e+00,-1.089734199117101617e-05,1.212948198667441102e-04
2.735714285714285765e+00,-6.204437049545397188e-06,1.394795451909682145e-04
2.736507936507936556e+00,5.932434115919408447e-07,1.386916247864914005e-04
2.737301587301587347e+00,8.303648393188993484e-06,1.164713805616349835e-04
2.738095238095238138e+00,1.537868805145282613e-05,7.387290818344568349e-05
2.738888888888888928e+00,2.019086573348213728e-05,1.587161004124927767e-05
2.739682539682539719e+00,2.137117564864619403e-05,-4.898988847147475793e-05
2.740476190476190510e+00,1.812642667315109065e-05,-1.098851642121410731e-04
2.741269841269841301e+00,1.044524303160184602e-05,-1.557636782192721447e-04
2.742063492063492092e+00,-8.777122992982357653e-07,-1.776873870844635709e-04
2.742857142857142883e+00,-1.441684697468011082e-05,-1.707770662278316717e-04
2.743650793650793673e+00,-2.843444300874131665e-05,-1.352124409767088762e-04
2.744444444444444464e+00,-4.123055358692427684e-05,-7.605648141762767767e-05
2.745238095238095255e+00,-5.140842573027695918e-05,-2.047430957605855603e-06
2.746031746031746046e+00,-5.799403899332162708e-05,7.622326423818597040e-05
2.746825396825396837e+00,-6.042493730422492663e-05,1.482147661897211801e-04
2.747619047619047628e+00,-5.847927052230840526e-05,2.049515582761874961e-04
2.748412698412698418e+00,-5.222519218931526619e-05,2.399027305929419466e-04
2.749206349206349209e+00,-4.203364528818746295e-05,2.492800960698760655e-04
2.750000000000000000e+00,-2.863763510629601866e-05,2.320271848208632778e-04
2.750793650793650791e+00,-1.317452129962446244e-05,1.897764152989570420e-04
2.751587301587301582e+00,2.857332782469364101e-06,1.268492816043874372e-04
2.752380952380952372e+00,1.775970189956434310e-05,5.011713769251080990e-05
2.753174603174603163e+00,2.989273327719792832e-05,-3.156991837841937562e-05
2.753968253968253954e+00,3.796846196044188440e-05,-1.085406555472475358e-04
2.754761904761904745e+00,4.130107039217727910e-05,-1.718957896159524642e-04
2.755555555555555536e+00,3.994294968934035666e-05,-2.151106816191944286e-04
2.756349206349206327e+00,3.466458467757008399e-05,-2.351479136291451338e-04
2.757142857142857117e+00,2.678070188332779946e-05,-2.327414525079169740e-04
2.757936507936507908e+00,1.787068134826185129e-05,-2.118096428104385902e-04
2.758730158730158699e+00,9.468899254417935513e-06,-1.782313252754372766e-04
2.759523809523809490e+00,2.799606450004557196e-06,-1.383708880913219906e-04
2.760317460317460281e+00,-1.393482420075631200e-06,-9.774457953465652907e-05
2.761111111111111072e+00,-2.904856092516575634e-06,-6.012337652306673334e-05
2.761904761904761862e+00,-2.020784775037772723e-06,-2.722041942230316307e-05
2.762698412698412653e+00,6.055087267079299785e-07,1.045359503182381793e-06
2.763492063492063444e+00,4.122917158090395922e-06,2.585326542303949536e-05
2.764285714285714235e+00,7.660395369155059540e-06,4.858852981044828990e-05
2.765079365079365026e+00,1.048291508332964639e-05,7.002440545537274609e-05
2.765873015873015817e+00,1.210155712003260038e-05,8.981953338079097960e-05
2.766666666666666607e+00,1.232166444168612907e-05,1.064759533921455579e-04
2.767460317460317398e+00,1.122379163471757238e-05,1.177580155624120156e-04
2.768253968253968189e+00,9.088232125488945572e-06,1.214216481495755028e-04
2.769047619047618980e+00,6.291241319007652591e-06,1.160039158856425353e-04
2.769841269841269771e+00,3.210029766194466433e-06,1.014103768970269680e-04
2.770634920634920562e+00,1.666560001876935082e-07,7.911121095160385014e-05
2.771428571428571352e+00,-2.580214213930926138e-06,5.188926185160087874e-05
2.772222222222222143e+00,-4.811713682444811200e-06,2.323174818544144609e-05
2.773015873015872934e+00,-6.325214249172207237e-06,-3.429523420724209979e-06
2.773809523809523725e+00,-6.940142256057409164e-06,-2.538996040038389178e-05
2.774603174603174516e+00,-6.541481698675186334e-06,-4.106960611537043465e-05
2.775396825396825307e+00,-5.141641750284382071e-06,-5.006340256670198380e-05
2.776190476190476097e+00,-2.925473806355682097e-06,-5.289981591062735319e-05
2.776984126984126888e+00,-2.494186258494279407e-07,-5.065807997085342078e-05
2.777777777777777679e+00,2.412336191523786395e-06,-4.461686584990960728e-05
2.778571428571428470e+00,4.559398515693033606e-06,-3.604821934568537084e-05
2.779365079365079261e+00,5.766961930764987409e-06,-2.616506245922207074e-05
2.780158730158730052e+00,5.770906977897208099e-06,-1.614141157963604458e-05
2.780952380952380842e+00,4.519247497431688328e-06,-7.100866948445006570e-06
2.781746031746031633e+00,2.185646429711162566e-06,-1.527495341568615468e-08
2.782539682539682424e+00,-8.508553834562397032e-07,4.465592736008897213e-06
2.783333333333333215e+00,-4.054253697713158061e-06,6.171922561991896055e-06
2.784126984126984006e+00,-6.805156230806682330e-06,5.469470930763510527e-06
2.784920634920634797e+00,-8.497845048891793682e-06,3.167076226187517083e-06
2.785714285714285587e+00,-8.653948230236497630e-06,2.976260691602243088e-07
2.786507936507936378e+00,-7.033187644075767440e-06,-2.153064077701841975e-06
2.787301587301587169e+00,-3.708772819471499770e-06,-3.480546842966136210e-06
2.788095238095237960e+00,9.252356620436315461e-07,-3.393886244468816529e-06
2.788888888888888751e+00,6.227894108271790351e-06,-2.023027382582062363e-06
2.789682539682539542e+00,1.144939044522929265e-05,1.814106826081535031e-07
2.790476190476190332e+00,1.589181873999032587e-05,2.613882304875936514e-06
2.791269841269841123e+00,1.904574491421627007e-05,4.694298995286877302e-06
2.792063492063491914e+00,2.066728003040451506e-05,6.016562252288970366e-06
2.792857142857142705e+00,2.078165257135704177e-05,6.434215668880908159e-06
2.793650793650793496e+00,1.962216589387155941e-05,6.073957207621286049e-06
2.794444444444444287e+00,1.753112123417764346e-05,5.286871221972036211e-06
2.795238095238095077e+00,1.485667159142559378e-05,4.556196647555957601e-06
2.796031746031745868e+00,1.187550418422652963e-05,4.380414773431638391e-06
2.796825396825396659e+00,8.759023520578016232e-06,5.149823248780228163e-06
2.797619047619047450e+00,5.585496247208812017e-06,7.039376578736271797e-06
2.798412698412698241e+00,2.387122666966403434e-06,9.945932973598902270e-06
2.799206349206349032e+00,-7.874959606261438409e-07,1.349220459687207666e-05
2.799999999999999822e+00,-3.817601721747512805e-06,1.709673400711579655e-05
2.800793650793650613e+00,-6.481387401850051600e-06,2.008135224446732471e-05
2.801587301587301404e+00,-8.468951404135848884e-06,2.177748560255231497e-05
2.802380952380952195e+00,-9.443192150288697806e-06,2.160924146066908210e-05
2.803174603174602986e+00,-9.141328465241467351e-06,1.915929638789271789e-05
2.803968253968253777e+00,-7.493527745375636745e-06,1.424057307259546863e-05
2.804761904761904567e+00,-4.721153015350039891e-06,6.991528806169229124e-06
2.805555555555555358e+00,-1.372244842323390614e-06,-2.011144759549209757e-06
2.806349206349206149e+00,1.738230404279843702e-06,-1.166053423275976407e-05
2.807142857142856940e+00,3.689828715414584403e-06,-2.031238726797021291e-05
2.807936507936507731e+00,3.689582622083676337e-06,-2.593308199835131969e-05
2.808730158730158522e+00,1.311227341149796095e-06,-2.644741905280768182e-05
2.809523809523809312e+00,-3.341196939702833947e-06,-2.027037241686632817e-05
2.810317460317460103e+00,-9.611109785469208397e-06,-6.922739277558064144e-06
2.811111111111110894e+00,-1.642578633956083071e-05,1.244941850404297673e-05
2.811904761904761685e+00,-2.255062209350975472e-05,3.487275701717914103e-05
2.812698412698412920e+00,-2.688379167000888586e-05,5.585428062802169961e-05
2.813492063492063711e+00,-2.871036861211213496e-05,7.026934084554814356e-05
2.814285714285714501e+00,-2.785254378173636220e-05,7.368780552584446042e-05
2.815079365079365292e+00,-2.467884361564528354e-05,6.375401524986536227e-05
2.815873015873016083e+00,-1.997172605047583006e-05,4.110291956905748399e-05
2.816666666666666874e+00,-1.469751084220170527e-05,9.403810602229895532e-06
2.817460317460317665e+00,-9.755371423212306277e-06,-2.553616288607233727e-05
2.818253968253968456e+00,-5.782271494260110088e-06,-5.729003721336673534e-05
2.819047619047619246e+00,-3.059507455602267674e-06,-8.041637880334792556e-05
2.819841269841270037e+00,-1.525278147985081383e-06,-9.165292191920815245e-05
2.820634920634920828e+00,-8.675931385847328398e-07,-9.041104995031521807e-05
2.821428571428571619e+00,-6.592096203647081766e-07,-7.854391058685511484e-05
2.822222222222222410e+00,-4.952001972183542020e-07,-5.957184037597168812e-05
2.823015873015873201e+00,-9.803877243943362765e-08,-3.765993584934149569e-05
2.823809523809523991e+00,6.346558330007462543e-07,-1.664635880162079927e-05
2.824603174603174782e+00,1.645896286998908352e-06,6.568560382902184698e-07
2.825396825396825573e+00,2.782178944772657608e-06,1.278393713058226603e-05
2.826190476190476364e+00,3.871806620639950134e-06,1.956570210307623575e-05
2.826984126984127155e+00,4.787585429800694415e-06,2.180831633450190960e-05
2.827777777777777946e+00,5.476293321906994622e-06,2.084365755819615970e-05
2.828571428571428736e+00,5.953866466630999717e-06,1.809122141009471274e-05
2.829365079365079527e+00,6.276778475466897836e-06,1.473138269013924522e-05
2.830158730158730318e+00,6.504495121739984633e-06,1.153439108728676005e-05
2.830952380952381109e+00,6.666702713934929605e-06,8.839740949369554159e-06
2.831746031746031900e+00,6.744416152772626505e-06,6.647958869060073595e-06
2.832539682539682691e+00,6.668385486821202302e-06,4.772175967602131564e-06
2.833333333333333481e+00,6.333561014708130604e-06,2.995899264062753981e-06
2.834126984126984272e+00,5.625537843912707565e-06,1.192578085429731198e-06
2.834920634920635063e+00,4.453457530498687792e-06,-6.205158839774675987e-07
2.835714285714285854e+00,2.783345669003097240e-06,-2.300207100259442741e-06
2.836507936507936645e+00,6.660288757371501003e-07,-3.651883583382207506e-06
2.837301587301587436e+00,-1.745721849327602302e-06,-4.528196136190001847e-06
2.838095238095238226e+00,-4.195346749940122241e-06,-4.910810767444890763e-06
2.838888888888889017e+00,-6.339160427556384531e-06,-4.937181735658188067e-06
2.839682539682539808e+00,-7.783143690256748342e-06,-4.851584386861651213e-06
2.840476190476190599e+00,-8.139731276225484961e-06,-4.888509864278694242e-06
2.841269841269841390e+00,-7.101421789909669812e-06,-5.128199913217612383e-06
2.842063492063492181e+00,-4.521975971659823677e-06,-5.385582370285571172e-06
2.842857142857142971e+00,-4.874774675685525403e-07,-5.193133264790079143e-06
2.843650793650793762e+00,4.646487300880012590e-06,-3.909986685446954431e-06
2.844444444444444553e+00,1.027243680762589330e-05,-9.400656599048959408e-07
2.845238095238095344e+00,1.561067379571656299e-05,4.009668545199301400e-06
2.846031746031746135e+00,1.983890920521199557e-05,1.072751487185196484e-05
2.846825396825396925e+00,2.224299901084565134e-05,1.843478826907801914e-05
2.847619047619047716e+00,2.235275740435262718e-05,2.589468760623261955e-05
2.848412698412698507e+00,2.003130676815877289e-05,3.166014660442513810e-05
2.849206349206349298e+00,1.550001153611662305e-05,3.438368141094521262e-05
2.850000000000000089e+00,9.297960212423713667e-06,3.310485617760325453e-05
2.850793650793650880e+00,2.189235404560144409e-06,2.745556910243518109e-05
2.851587301587301670e+00,-4.960788607534879994e-06,1.775770181758764304e-05
2.852380952380952461e+00,-1.131759396875635638e-05,5.011505073978686731e-06
2.853174603174603252e+00,-1.619870484243988624e-05,-9.219677174140005654e-06
2.853968253968254043e+00,-1.916849561928269199e-05,-2.302404354119519069e-05
2.854761904761904834e+00,-2.009378355256102576e-05,-3.444502766691104567e-05
2.855555555555555625e+00,-1.914927823294117855e-05,-4.183821658986443975e-05
2.856349206349206415e+00,-1.676645326096300846e-05,-4.420679501471952644e-05
2.857142857142857206e+00,-1.352945458877787930e-05,-4.141675499622794867e-05
2.857936507936507997e+00,-1.003669732920291259e-05,-3.421324356926910284e-05
2.858730158730158788e+00,-6.761432631814652219e-06,-2.402470968076073394e-05
2.859523809523809579e+00,-3.950822154249824786e-06,-1.261893182119784628e-05
2.860317460317460370e+00,-1.595258695085517277e-06,-1.723359192210872533e-06
2.861111111111111160e+00,5.213609868037815734e-07,7.279535826314229398e-06
2.861904761904761951e+00,2.706295517537722744e-06,1.351678808021835649e-05
2.862698412698412742e+00,5.214927629429561741e-06,1.664857663937115438e-05
2.863492063492063533e+00,8.125664659375871502e-06,1.680113997980083263e-05
2.864285714285714324e+00,1.127151970153457498e-05,1.447218802906939042e-05
2.865079365079365115e+00,1.424932115495747288e-05,1.044508893555536938e-05
2.865873015873015905e+00,1.650540200114451603e-05,5.706255189231938667e-06
2.866666666666666696e+00,1.747602998323182283e-05,1.340410388434301851e-06
2.867460317460317487e+00,1.674622480785911138e-05,-1.603049074779274838e-06
2.868253968253968278e+00,1.418531454050694262e-05,-2.248452834853097654e-06
2.869047619047619069e+00,1.002271860485800194e-05,-9.572795587455938476e-09
2.869841269841269860e+00,4.841281983263234227e-06,5.320499154239830846e-06
2.870634920634920650e+00,-5.151686105211893386e-07,1.349580198946602306e-05
2.871428571428571441e+00,-5.102082170856740098e-06,2.376605092084404803e-05
2.872222222222222232e+00,-8.065671376619063402e-06,3.486978890159249758e-05
2.873015873015873023e+00,-8.819061151004219261e-06,4.509684674637016007e-05
2.873809523809523814e+00,-7.160204754920457740e-06,5.244948631387102143e-05
2.874603174603174605e+00,-3.306518521718055002e-06,5.493809289909902559e-05
2.875396825396825395e+00,2.152921541566034706e-06,5.101387842349822794e-05
2.876190476190476186e+00,8.363957940060325036e-06,4.004950871858808362e-05
2.876984126984126977e+00,1.433966553881187455e-05,2.268976193655832007e-05
2.877777777777777768e+00,1.909223582325325180e-05,8.952854528969941116e-07
2.878571428571428559e+00,2.175431778046691414e-05,-2.238961682009099795e-05
2.879365079365079350e+00,2.169251242603676484e-05,-4.386437517886951072e-05
2.880158730158730140e+00,1.861548379273405440e-05,-6.060231386853684682e-05
2.880952380952380931e+00,1.266517504477035697e-05,-7.066151759287300088e-05
2.881746031746031722e+00,4.461717970517752019e-06,-7.340767835438382477e-05
2.882539682539682513e+00,-4.934347445260703585e-06,-6.948649023687833264e-05
2.883333333333333304e+00,-1.416487940925723274e-05,-6.049760677258915752e-05
2.884126984126984095e+00,-2.181159208283917625e-05,-4.850469169601706804e-05
2.884920634920634885e+00,-2.668085169823279570e-05,-3.554449546848837126e-05
2.885714285714285676e+00,-2.806493865465529882e-05,-2.326981034001010699e-05
2.886507936507936467e+00,-2.590894068240207320e-05,-1.279051925465250118e-05
2.887301587301587258e+00,-2.083499480277191805e-05,-4.690575397357465734e-06
2.888095238095238049e+00,-1.401194700815151037e-05,8.679523229487520144e-07
2.888888888888888840e+00,-6.897849700391727883e-06,4.056873110504437914e-06
2.889682539682539630e+00,-9.152405968975781824e-07,5.365508592252336576e-06
2.890476190476190421e+00,2.863021006081233973e-06,5.631972896970187696e-06
2.891269841269841212e+00,3.941284407870614917e-06,6.040600213872920026e-06
2.892063492063492003e+00,2.487466680561895134e-06,8.006735377919812387e-06
2.892857142857142794e+00,-7.400273172424701674e-07,1.292657308160952757e-05
2.893650793650793585e+00,-4.601874899524577288e-06,2.183944820314529507e-05
2.894444444444444375e+00,-7.866535674259309403e-06,3.509350827607895818e-05
2.895238095238095166e+00,-9.502922788682872216e-06,5.211013551949616562e-05
2.896031746031745957e+00,-8.905216628587354306e-06,7.131749692642537779e-05
2.896825396825396748e+00,-6.000598864125732612e-06,9.028049959430053647e-05
2.897619047619047539e+00,-1.225455713685337881e-06,1.060014224742353138e-04
2.898412698412698330e+00,4.607854974417399098e-06,1.153236866084173863e-04
2.899206349206349120e+00,1.050442986729311976e-05,1.153700607312779591e-04
2.899999999999999911e+00,1.548186343715258979e-05,1.039849747565300622e-04
2.900793650793650702e+00,1.871890921786722740e-05,8.018134247811885924e-05
2.901587301587301493e+00,1.963478874565342808e-05,4.456873488453694921e-05
2.902380952380952284e+00,1.790494704631595183e-05,-3.306312105154679205e-07
2.903174603174603075e+00,1.344034867971611380e-05,-5.003265970117918031e-05
2.903968253968253865e+00,6.363926521255726158e-06,-9.845717302902724582e-05
2.904761904761904656e+00,-2.992030722521931707e-06,-1.387613693089723415e-04
2.905555555555555447e+00,-1.406545232534730978e-05,-1.645377305816519520e-04
2.906349206349206238e+00,-2.604182355083913726e-05,-1.711271167869957133e-04
2.907142857142857029e+00,-3.786105702170727735e-05,-1.567306675105697934e-04
2.907936507936507819e+00,-4.827832823363710952e-05,-1.230401817937231291e-04
2.908730158730158610e+00,-5.598435263667604265e-05,-7.521867830580125408e-05
2.909523809523809401e+00,-5.977300638203315858e-05,-2.120062891421535685e-05
2.910317460317460192e+00,-5.873334091809066147e-05,2.959609439098299490e-05
2.911111111111110983e+00,-5.243368474394622070e-05,6.796056605572973466e-05
2.911904761904761774e+00,-4.105472578038790726e-05,8.671869346194715925e-05
2.912698412698412564e+00,-2.542503562460216010e-05,8.237021657811457239e-05
2.913492063492063355e+00,-6.928522781871155786e-06,5.615569579200313576e-05
2.914285714285714146e+00,1.270988100710966566e-05,1.420048213912122771e-05
2.915079365079364937e+00,3.170952832959173634e-05,-3.347933705420527478e-05
2.915873015873015728e+00,4.850977743827091144e-05,-7.505445616367344770e-05
2.916666666666666519e+00,6.196073034996443536e-05,-9.963558526486791843e-05
2.917460317460317309e+00,7.139538907872268047e-05,-9.999635313085299213e-05
2.918253968253968100e+00,7.660277429136778038e-05,-7.448583459530065470e-05
2.919047619047618891e+00,7.775062400005417580e-05,-2.756841630001461007e-05
2.919841269841269682e+00,7.529589391656769731e-05,3.115943176045835007e-05
2.920634920634920473e+00,6.988869393756323375e-05,8.919636100024529938e-05
2.921428571428571264e+00,6.225373225881680305e-05,1.340125168396332964e-04
2.922222222222222054e+00,5.304368729443626845e-05,1.558365868904522150e-04
2.923015873015872845e+00,4.269420965497557860e-05,1.496692444472653061e-04
2.923809523809523636e+00,3.134200719122917861e-05,1.160924681701638498e-04
2.924603174603174427e+00,1.886637402057804376e-05,6.082754866256129874e-05
2.925396825396825218e+00,5.071137760889717690e-06,-6.650781161225523876e-06
2.926190476190476009e+00,-1.004262742805900957e-05,-7.496825786353314316e-05
2.926984126984126799e+00,-2.601561181865291744e-05,-1.327495166569644838e-04
2.927777777777777590e+00,-4.179278087804281263e-05,-1.703086749048539643e-04
2.928571428571428381e+00,-5.578376355696668885e-05,-1.810307265873266748e-04
2.929365079365079172e+00,-6.613067824333328736e-05,-1.623893500966907123e-04
2.930158730158729963e+00,-7.112436144665311715e-05,-1.164907191288668383e-04
2.930952380952380754e+00,-6.965674814980146777e-05,-4.995778956515596907e-05
2.931746031746031544e+00,-6.157571400233148085e-05,2.699774607382925503e-05
2.932539682539682335e+00,-4.782930303239200476e-05,1.022670226023736828e-04
2.933333333333333126e+00,-3.034387420438865529e-05,1.639802615346141817e-04
2.934126984126983917e+00,-1.165518760110722171e-05,2.026181674487473360e-04
2.934920634920634708e+00,5.619696469145826422e-06,2.126745237665140370e-04
2.935714285714285499e+00,1.933412748686930236e-05,1.935929314537196010e-04
2.936507936507936289e+00,2.823614862682116938e-05,1.498303775874922452e-04
2.937301587301587080e+00,3.214153623148348164e-05,9.000506892850693467e-05
2.938095238095238315e+00,3.180481043449432369e-05,2.523014915530437003e-05
2.938888888888889106e+00,2.854003658327132896e-05,-3.306376228515777810e-05
2.939682539682539897e+00,2.373686758445576201e-05,-7.533973199116171320e-05
2.940476190476190688e+00,1.845626557111082193e-05,-9.569769164910715722e-05
2.941269841269841478e+00,1.324934305916307413e-05,-9.281181385612989837e-05
2.942063492063492269e+00,8.237541136889776395e-06,-6.997462327762373098e-05
2.942857142857143060e+00,3.374877881649438576e-06,-3.435019583033503595e-05
2.943650793650793851e+00,-1.259446849401782213e-06,4.392410908390619243e-06
2.944444444444444642e+00,-5.288068803065081613e-06,3.589901094764038031e-05
2.945238095238095433e+00,-8.066074346189080259e-06,5.122728596679411802e-05
2.946031746031746223e+00,-8.904503491073210010e-06,4.495003842154562333e-05
2.946825396825397014e+00,-7.393250935405514915e-06,1.681510271680100799e-05
2.947619047619047805e+00,-3.688686806151697393e-06,-2.761758572870229235e-05
2.948412698412698596e+00,1.358364686466890702e-06,-7.782175828047068042e-05
2.949206349206349387e+00,6.306224150734031563e-06,-1.206659021250049580e-04
2.950000000000000178e+00,9.454044473815585470e-06,-1.437733359427889753e-04
2.950793650793650968e+00,9.319287696800158268e-06,-1.389661293357814212e-04
2.951587301587301759e+00,5.116764665555467175e-06,-1.047796255702707633e-04
2.952380952380952550e+00,-2.926245557144494945e-06,-4.724710769835615713e-05
2.953174603174603341e+00,-1.354624208037598032e-05,2.138068697295104084e-05
2.953968253968254132e+00,-2.474464310238616579e-05,8.571273910992514085e-05
2.954761904761904923e+00,-3.432871730223882004e-05,1.312514784028043040e-04
2.955555555555555713e+00,-4.051093189224903320e-05,1.481921814255456819e-04
2.956349206349206504e+00,-4.235545607635217083e-05,1.338223387911094723e-04
2.957142857142857295e+00,-3.991796571382409117e-05,9.280295364180735085e-05
2.957936507936508086e+00,-3.405033189358003660e-05,3.534471325435729520e-05
2.958730158730158877e+00,-2.597786716881827812e-05,-2.598931205181186511e-05
2.959523809523809668e+00,-1.683925473945656188e-05,-7.971853738924311540e-05
2.960317460317460458e+00,-7.375914473414141787e-06,-1.180416027494095104e-04
2.961111111111111249e+00,2.118568451409425171e-06,-1.379637280921257141e-04
2.961904761904762040e+00,1.158799480013964655e-05,-1.408969012138694822e-04
2.962698412698412831e+00,2.084523045859801042e-05,-1.311255626310377361e-04
2.963492063492063622e+00,2.921862963317969412e-05,-1.137606838649626731e-04
2.964285714285714413e+00,3.539844851633839728e-05,-9.285394845578006035e-05
2.965079365079365203e+00,3.761124267244295481e-05,-7.025420849142774427e-05
2.965873015873015994e+00,3.413131374437543926e-05,-4.554463074299371284e-05
2.966666666666666785e+00,2.399405917114598419e-05,-1.700817509660608546e-05
2.967460317460317576e+00,7.661503484685614488e-06,1.683460721345769547e-05
2.968253968253968367e+00,-1.264221552205974127e-05,5.577944404944595180e-05
2.969047619047619158e+00,-3.313008168842210223e-05,9.716174859584252792e-05
2.969841269841269948e+00,-4.921609636025590641e-05,1.360387886565425251e-04
2.970634920634920739e+00,-5.666007527923779566e-05,1.662801199586194407e-04
2.971428571428571530e+00,-5.274485920661997737e-05,1.822095169034409655e-04
2.972222222222222321e+00,-3.710048240286515210e-05,1.802359934219334447e-04
2.973015873015873112e+00,-1.190448437263118330e-05,1.599083580454629353e-04
2.973809523809523903e+00,1.859518432355903439e-05,1.240599331066433706e-04
2.974603174603174693e+00,4.906245615040745028e-05,7.806109634216584997e-05
2.975396825396825484e+00,7.424284685642280814e-05,2.849344928520855451e-05
2.976190476190476275e+00,8.998225036580032347e-05,-1.830759652185890606e-05
2.976984126984127066e+00,9.385251532775107505e-05,-5.743823809135654778e-05
2.977777777777777857e+00,8.530597494659677266e-05,-8.609418663428610255e-05
2.978571428571428648e+00,6.544852099643898476e-05,-1.036561831504544362e-04
2.979365079365079438e+00,3.662802199233541824e-05,-1.112692093657899177e-04
2.980158730158730229e+00,2.041809296480870694e-06,-1.110823167562662543e-04
2.980952380952381020e+00,-3.452376348220412901e-05,-1.053667087942603253e-04
2.981746031746031811e+00,-6.884795268094473899e-05,-9.574638009144490511e-05
2.982539682539682602e+00,-9.646430525326209671e-05,-8.275884334671639150e-05
2.983333333333333393e+00,-1.130479724983035427e-04,-6.589993577667595606e-05
2.984126984126984183e+00,-1.150808197641710307e-04,-4.417530023230713791e-05
2.984920634920634974e+00,-1.007095888514784567e-04,-1.699756796162546420e-05
2.985714285714285765e+00,-7.054448395295501574e-05,1.489146160512590723e-05
2.986507936507936556e+00,-2.806326023094445131e-05,4.884484701549471157e-05
2.987301587301587347e+00,2.064978238199529208e-05,8.036665816191295938e-05
2.988095238095238138e+00,6.789835911482154489e-05,1.038998725968384029e-04
2.988888888888888928e+00,1.059117968580278689e-04,1.142082677481742330e-04
2.989682539682539719e+00,1.285276400356698875e-04,1.079741654487579179e-04
2.990476190476190510e+00,1.325471323080836547e-04,8.506572013135863767e-05
2.991269841269841301e+00,1.183775481211775914e-04,4.894221365805575234e-05
2.992063492063492092e+00,8.978913306590802755e-05,5.935089998916628214e-06
2.992857142857142883e+00,5.287830310842663413e-05,-3.640766849395493345e-05
2.993650793650793673e+00,1.455227133810544077e-05,-7.131748272138530660e-05
2.994444444444444464e+00,-1.903412456887366004e-05,-9.440259229895595669e-05
2.995238095238095255e+00,-4.367642836003843954e-05,-1.043008385718774791e-04
2.996031746031746046e+00,-5.767612721620741844e-05,-1.022576067876475195e-04
2.996825396825396837e+00,-6.168396181045300369e-05,-9.094187055136445752e-05
2.997619047619047628e+00,-5.797700174071598747e-05,-7.310168786484920402e-05
2.998412698412698418e+00,-4.947416889089193434e-05,-5.067657169444501279e-05
2.999206349206349209e+00,-3.884434112010552693e-05,-2.471790245085933558e-05
3.000000000000000000e+00,-2.797971119561448600e-05,3.955630224803371181e-06
3.000793650793650791e+00,-1.792295370169534697e-05,3.381349908602132679e-05
3.001587301587301582e+00,-9.133146316943992535e-06,6.196842903550079794e-05
3.002380952380952372e+00,-1.853924489410611025e-06,8.427548397890067286e-05
3.003174603174603163e+00,3.638032488597869575e-06,9.626515660407564178e-05
3.003968253968253954e+00,7.006563114787904748e-06,9.459905837247210532e-05
3.004761904761904745e+00,8.015967564644357090e-06,7.846851810960585858e-05
3.005555555555555536e+00,6.757966642054361984e-06,5.034409013163282717e-05
3.006349206349206327e+00,3.812637625359134492e-06,1.573002446287086016e-05
3.007142857142857117e+00,2.408140198575794250e-07,-1.804322217155007120e-05
3.007936507936507908e+00,-2.640899227105448659e-06,-4.361928566524401335e-05
3.008730158730158699e+00,-3.673334053360967977e-06,-5.546556628776979443e-05
3.009523809523809490e+00,-2.330243926585146918e-06,-5.123756625213883765e-05
3.010317460317460281e+00,9.440880307143473332e-07,-3.228044705120532908e-05
3.011111111111111072e+00,4.728695891968874992e-06,-3.149928968312150863e-06
3.011904761904761862e+00,7.034231379360867306e-06,2.966484271503900944e-05
3.012698412698412653e+00,6.033164345570888182e-06,5.938528770481206985e-05
3.013492063492063444e+00,8.583329027006215312e-07,8.043123981389391143e-05
3.014285714285714235e+00,-7.852740033776610694e-06,8.934874392392182587e-05
3.015079365079365026e+00,-1.792656130260630707e-05,8.504784974897586962e-05
3.015873015873015817e+00,-2.621309942424555425e-05,6.849852466531854947e-05
3.016666666666666607e+00,-2.958448637893097959e-05,4.217125293210162754e-05
3.017460317460317398e+00,-2.603727617014327763e-05,9.470040614908965574e-06
3.018253968253968189e+00,-1.549845192594652112e-05,-2.573332604852850389e-05
3.019047619047618980e+00,-2.034618331073187721e-08,-5.947597026088388689e-05
3.019841269841269771e+00,1.674203066633427227e-05,-8.803824729876878362e-05
3.020634920634920562e+00,3.061765578661952188e-05,-1.082492288247382915e-04
3.021428571428571352e+00,3.820130596988413597e-05,-1.177432909893486252e-04
3.022222222222222143e+00,3.788033274493553758e-05,-1.151551697085006885e-04
3.023015873015872934e+00,3.024963342376250905e-05,-1.002719002511007467e-04
3.023809523809523725e+00,1.779183152078025334e-05,-7.416792050840839907e-05
3.024603174603174516e+00,3.975866987136109845e-06,-3.930729193106011752e-05
3.025396825396825307e+00,-7.869274794761937504e-06,4.761584297401398930e-07
3.026190476190476097e+00,-1.549740889431744373e-05,4.025589642935921642e-05
3.026984126984126888e+00,-1.820632778515267680e-05,7.464048379453145808e-05
3.027777777777777679e+00,-1.673056291269612523e-05,9.870389252570806475e-05
3.028571428571428470e+00,-1.269603482831832324e-05,1.089934795230254860e-04
3.029365079365079261e+00,-7.904175958436519161e-06,1.042958403730605315e-04
3.030158730158730052e+00,-3.729086448935286132e-06,8.590842599700013128e-05
3.030952380952380842e+00,-8.191169862939372848e-07,5.735987185116509261e-05
3.031746031746031633e+00,8.514434923617032064e-07,2.371222588448935553e-05
3.032539682539682424e+00,1.671160244865400620e-06,-9.347241717836417588e-06
3.033333333333333215e+00,1.995820706404655545e-06,-3.645651662765596362e-05
3.034126984126984006e+00,1.858639390741518936e-06,-5.347144223265791344e-05
3.034920634920634797e+00,9.209838787908021531e-07,-5.821780686216334087e-05
3.035714285714285587e+00,-1.311479541036898096e-06,-5.097201650876273982e-05
3.036507936507936378e+00,-5.106396814588701896e-06,-3.448188993983619704e-05
3.037301587301587169e+00,-1.014153248237925826e-05,-1.337398931393570360e-05
3.038095238095237960e+00,-1.535530085723712794e-05,7.010464227441941965e-06
3.038888888888888751e+00,-1.912952105130855441e-05,2.202019233474000867e-05
3.039682539682539542e+00,-1.978841100343949440e-05,2.882937000101190629e-05
3.040476190476190332e+00,-1.625625886026955209e-05,2.689479543249251740e-05
3.041269841269841123e+00,-8.624447122650130405e-06,1.765823666480852830e-05
3.042063492063491914e+00,1.621716153506304323e-06,3.750897647996230169e-06
3.042857142857142705e+00,1.186322074097302787e-05,-1.190940111816279623e-05
3.043650793650793496e+00,1.906438924340166303e-05,-2.681819815107782445e-05
3.044444444444444287e+00,2.073212074690625894e-05,-3.924407526287458555e-05
3.045238095238095077e+00,1.579188404609815194e-05,-4.826164967480434174e-05
3.046031746031745868e+00,5.067928919367295279e-06,-5.356214715414992205e-05
3.046825396825396659e+00,-8.816353737954375937e-06,-5.518160246408936449e-05
3.047619047619047450e+00,-2.211143818136894476e-05,-5.327637684577443049e-05
3.048412698412698241e+00,-3.099334391326043865e-05,-4.802456435390062034e-05
3.049206349206349032e+00,-3.266928970255913750e-05,-3.965381595170926269e-05
3.049999999999999822e+00,-2.618418890055681313e-05,-2.852603227677620988e-05
3.050793650793650613e+00,-1.266813544869258892e-05,-1.519353682789865723e-05
3.051587301587301404e+00,5.042770360540659727e-06,-3.933313094954157265e-07
3.052380952380952195e+00,2.325944331708361648e-05,1.498289313576786282e-05
3.053174603174602986e+00,3.845692823138259866e-05,2.988645061815734937e-05
3.053968253968253777e+00,4.811799145568466853e-05,4.307463182209489530e-05
3.054761904761904567e+00,5.116878454286737999e-05,5.311262269663589525e-05
3.055555555555555358e+00,4.794626771881509169e-05,5.851361824082268589e-05
3.056349206349206149e+00,3.980045097299710343e-05,5.805989919106845434e-05
3.057142857142856940e+00,2.853000985247562273e-05,5.123696490468517321e-05
3.057936507936507731e+00,1.586157958561728866e-05,3.861152040915566961e-05
3.058730158730158522e+00,3.125887906473818341e-06,2.195528179274593925e-05
3.059523809523809312e+00,-8.812083370414201130e-06,3.988046270909717728e-06
3.060317460317460103e+00,-1.941139239599605804e-05,-1.224125328857598237e-05
3.061111111111110894e+00,-2.821592398843233632e-05,-2.416278098169579401e-05
3.061904761904761685e+00,-3.465541157979291095e-05,-3.041205659493926853e-05
3.062698412698412920e+00,-3.799752168376481991e-05,-3.119742875746708415e-05
3.063492063492063711e+00,-3.749590975960410299e-05,-2.813277415029669771e-05
3.064285714285714501e+00,-3.269433573712447153e-05,-2.355766198847283280e-05
3.065079365079365292e+00,-2.376903154419220094e-05,-1.960066664276723580e-05
3.065873015873016083e+00,-1.175077402787477001e-05,-1.738034776538057254e-05
3.066666666666666874e+00,1.509818908321770147e-06,-1.667385831757895213e-05
3.067460317460317665e+00,1.368211475867376580e-05,-1.615266597007849916e-05
3.068253968253968456e+00,2.252548868783174643e-05,-1.404842233766495905e-05
3.069047619047619246e+00,2.651080329562213736e-05,-8.985809655126293869e-06
3.069841269841270037e+00,2.527812619946300698e-05,-6.925596656318722367e-07
3.070634920634920828e+00,1.976140927408645982e-05,9.677470626022770841e-06
3.071428571428571619e+00,1.192046208294106794e-05,1.978009194086899453e-05
3.072222222222222410e+00,4.156024143939128843e-06,2.685395268736424777e-05
3.073015873015873201e+00,-1.401547411527660424e-06,2.876557617729512132e-05
3.073809523809523991e+00,-3.491639896034762699e-06,2.490614697446133714e-05
3.074603174603174782e+00,-2.016035025807700706e-06,1.656340435936157711e-05
3.075396825396825573e+00,2.051549811207795102e-06,6.611001665488992441e-06
3.076190476190476364e+00,7.074344660872359213e-06,-1.372738458635228084e-06
3.076984126984127155e+00,1.131083964512296622e-05,-4.248096869864180713e-06
3.077777777777777946e+00,1.342395145124272989e-05,-3.414016623817699455e-07
3.078571428571428736e+00,1.278924948590974401e-05,9.971037133211925775e-06
3.079365079365079527e+00,9.543011073965686786e-06,2.431037301107060849e-05
3.080158730158730318e+00,4.406241117951611258e-06,3.896463742587681308e-05
3.080952380952381109e+00,-1.614678676216448806e-06,4.996444546176935769e-05
3.081746031746031900e+00,-7.530927711836785979e-06,5.420850207992784488e-05
3.082539682539682691e+00,-1.258200546332081119e-05,5.027507156373208831e-05
3.083333333333333481e+00,-1.631175157359193270e-05,3.869024290756533610e-05
3.084126984126984272e+00,-1.852774947291975789e-05,2.163495496236327915e-05
3.084920634920635063e+00,-1.920627730152063214e-05,2.261480230713751399e-06
3.085714285714285854e+00,-1.841523887055873857e-05,-1.611905040088865534e-05
3.086507936507936645e+00,-1.630281459817087684e-05,-3.074047726566815554e-05
3.087301587301587436e+00,-1.315446712194906364e-05,-3.983611786295115220e-05
3.088095238095238226e+00,-9.475772839203633731e-06,-4.280756652546659268e-05
3.088888888888889017e+00,-6.030640095273394054e-06,-4.014150367276559826e-05
3.089682539682539808e+00,-3.766886797495447099e-06,-3.314342431226360625e-05
3.090476190476190599e+00,-3.600675169931454310e-06,-2.357172200182529857e-05
3.091269841269841390e+00,-6.098608706863718191e-06,-1.325195667315311156e-05
3.092063492063492181e+00,-1.116140165929546771e-05,-3.731309266015635496e-06
3.092857142857142971e+00,-1.784091094184127855e-05,3.982343317173945289e-06
3.093650793650793762e+00,-2.439635828960380796e-05,9.547427154124404035e-06
3.094444444444444553e+00,-2.862447170858726953e-05,1.322956341090957402e-05
3.095238095238095344e+00,-2.840587004305206211e-05,1.564323213332314560e-05
3.096031746031746135e+00,-2.232577521742939061e-05,1.736495237218357258e-05
3.096825396825396925e+00,-1.018179980732841703e-05,1.857063876080278280e-05
3.097619047619047716e+00,6.791881156033363753e-06,1.887105769698773730e-05
3.098412698412698507e+00,2.607496409562794120e-05,1.745040929388071645e-05
3.099206349206349298e+00,4.436166392476002910e-05,1.347401112634065801e-05
3.100000000000000089e+00,5.828198518095558653e-05,6.587639128196347206e-06
3.100793650793650880e+00,6.515739871680500126e-05,-2.739469833407500280e-06
3.101587301587301670e+00,6.360553595015240710e-05,-1.323081086799840467e-05
3.102380952380952461e+00,5.385103729090474922e-05,-2.323017857043920006e-05
3.103174603174603252e+00,3.766723358294277310e-05,-3.139430466975531045e-05
3.103968253968254043e+00,1.795913688122667871e-05,-3.735048884290884016e-05
3.104761904761904834e+00,-1.906175169128851802e-06,-4.199306301499173264e-05
3.105555555555555625e+00,-1.883520903909419934e-05,-4.721097693216809340e-05
3.106349206349206415e+00,-3.059764911462905070e-05,-5.505613993036016882e-05
3.107142857142857206e+00,-3.611668187391067216e-05,-6.661126044082678549e-05
3.107936507936507997e+00,-3.543493175095236016e-05,-8.100782526102983392e-05
3.108730158730158788e+00,-2.946248022669109887e-05,-9.506813303992948786e-05
3.109523809523809579e+00,-1.967263011279537016e-05,-1.038392372987497890e-04
3.110317460317460370e+00,-7.868402390956506353e-06,-1.019223763800630934e-04
3.111111111111111160e+00,3.961230505694593580e-06,-8.516044957005592406e-05
3.111904761904761951e+00,1.376434012547000190e-05,-5.210249834941018364e-05
3.112698412698412742e+00,1.961810561915462798e-05,-4.767948254996780367e-06
3.113492063492063533e+00,2.003860786796356238e-05,5.150839200583162648e-05
3.114285714285714324e+00,1.438673807007355133e-05,1.090903505119840487e-04
3.115079365079365115e+00,3.273406300523453503e-06,1.596188470074387305e-04
3.115873015873015905e+00,-1.119536673254127228e-05,1.956938876301053882e-04
3.116666666666666696e+00,-2.551226643681246160e-05,2.121692326296247184e-04
3.117460317460317487e+00,-3.532071215194094115e-05,2.067488268167021334e-04
3.118253968253968278e+00,-3.640316429700698575e-05,1.799076770992428956e-04
3.119047619047619069e+00,-2.590990843488417681e-05,1.344495973781632120e-04
3.119841269841269860e+00,-3.495127740494732507e-06,7.507397209694049143e-05
3.120634920634920650e+00,2.802583944594100540e-05,8.125154634400971119e-06
3.121428571428571441e+00,6.282433679009896297e-05,-5.860884213472936067e-05
3.122222222222222232e+00,9.314627593596249376e-05,-1.163751281292490689e-04
3.123015873015873023e+00,1.111749642202380668e-04,-1.564825347602352224e-04
3.123809523809523814e+00,1.111922071982981259e-04,-1.718741340992740313e-04
3.124603174603174605e+00,9.137733969509735773e-05,-1.589116840260559004e-04
3.125396825396825395e+00,5.462987265265323148e-05,-1.188122129634211222e-04
3.126190476190476186e+00,8.077445780871276296e-06,-5.815258615332212960e-05
3.126984126984126977e+00,-3.866908183490073866e-05,1.195000214589569710e-05
3.127777777777777768e+00,-7.607062416317530898e-05,7.799162719412430615e-05
3.128571428571428559e+00,-9.731846999672157388e-05,1.270868850562531353e-04
3.129365079365079350e+00,-1.002924075110541113e-04,1.499434562131770287e-04
3.130158730158730140e+00,-8.813277305354420897e-05,1.428795413978338708e-04
3.130952380952380931e+00,-6.811489352923940071e-05,1.083389058505512044e-04
3.131746031746031722e+00,-4.908808139286647448e-05,5.392212658778386457e-05
3.132539682539682513e+00,-3.831873135024857876e-05,-9.620508745238901731e-06
3.133333333333333304e+00,-3.889270606834490410e-05,-7.081711833443706710e-05
3.134126984126984095e+00,-4.869610592741885054e-05,-1.197234133739375297e-04
3.134920634920634885e+00,-6.141392878389766760e-05,-1.495261058727675074e-04
3.135714285714285676e+00,-6.918890758028170963e-05,-1.572550216836942261e-04
3.136507936507936467e+00,-6.590624819662620388e-05,-1.436289387831649761e-04
3.137301587301587258e+00,-4.979959898249829419e-05,-1.122981399075979457e-04
3.138095238095238049e+00,-2.432269652264244480e-05,-6.885633697370773269e-05
3.138888888888888840e+00,3.091148676284934158e-06,-1.992868452568133972e-05
3.139682539682539630e+00,2.391699805868495259e-05,2.755075027781690025e-05
3.140476190476190421e+00,3.194401636181625750e-05,6.695790257135206486e-05
3.141269841269841212e+00,2.585279647369252340e-05,9.266089882249445731e-05
3.142063492063492003e+00,9.928992455871833632e-06,1.008382612352061550e-04
3.142857142857142794e+00,-7.408135207707112189e-06,9.029878617551725982e-05
3.143650793650793585e+00,-1.673220594805759702e-05,6.300900130392275548e-05
3.144444444444444375e+00,-1.119813834475826702e-05,2.404993985688294933e-05
3.145238095238095166e+00,1.079572462400415067e-05,-1.909818857627292293e-05
3.146031746031745957e+00,4.488597316104003473e-05,-5.783163989730558975e-05
3.146825396825396748e+00,8.218791596845004548e-05,-8.401489967192858892e-05
3.147619047619047539e+00,1.122775722038711545e-04,-9.160838027190522706e-05
3.148412698412698330e+00,1.265452041298005894e-04,-7.803175056429871332e-05
3.149206349206349120e+00,1.207327329371594461e-04,-4.491941880434997261e-05
3.149999999999999911e+00,9.590603515599520714e-05,2.037539005715703781e-06
3.150793650793650702e+00,5.775385168373551388e-05,5.424016600479038112e-05
3.151587301587301493e+00,1.466199162637231618e-05,1.020594812517884267e-04
3.152380952380952284e+00,-2.469040594682288503e-05,1.369374848214088294e-04
3.153174603174603075e+00,-5.346082682711786701e-05,1.531605410344693457e-04
3.153968253968253865e+00,-6.796992494253421141e-05,1.488654807922386823e-04
3.154761904761904656e+00,-6.802552688061797872e-05,1.260456116598879716e-04
3.155555555555555447e+00,-5.635622373049687755e-05,8.960818659371752788e-05
3.156349206349206238e+00,-3.746848009066086447e-05,4.584027200876114529e-05
3.157142857142857029e+00,-1.631005038030488603e-05,8.289591207703535594e-07
3.157936507936507819e+00,2.910096788980043471e-06,-4.066489591181019565e-05
3.158730158730158610e+00,1.748591602225095092e-05,-7.564244018712270581e-05
3.159523809523809401e+00,2.643154712447804544e-05,-1.026954822857306307e-04
3.160317460317460192e+00,3.018009677427821607e-05,-1.215114669457847279e-04
3.161111111111110983e+00,2.995053631652861190e-05,-1.323387218530759223e-04
3.161904761904761774e+00,2.706089148468170100e-05,-1.355603447539526364e-04
3.162698412698412564e+00,2.244022291228419395e-05,-1.314024144750999931e-04
3.163492063492063355e+00,1.646459295442204385e-05,-1.197942281017646887e-04
3.164285714285714146e+00,9.086782908943393338e-06,-1.004520730630578212e-04
3.165079365079364937e+00,1.229746465414043097e-07,-7.322813736190770736e-05
3.165873015873015728e+00,-1.046039777001294859e-05,-3.861776301843342942e-05
3.166666666666666519e+00,-2.236196425796158207e-05,1.803116347894516184e-06
3.167460317460317309e+00,-3.488499118652922253e-05,4.520248358339776402e-05
3.168253968253968100e+00,-4.696944169049573943e-05,8.763806339228448082e-05
3.169047619047618891e+00,-5.727931655483993597e-05,1.244935952939418150e-04
3.169841269841269682e+00,-6.433652069501821877e-05,1.511400363334878877e-04
3.170634920634920473e+00,-6.671827570166567409e-05,1.636948047890237614e-04
3.171428571428571264e+00,-6.332205976294074540e-05,1.596718605669852225e-04
3.172222222222222054e+00,-5.364838493790411475e-05,1.383271152594917487e-04
3.173015873015872845e+00,-3.800572987873009957e-05,1.006460791390803783e-04
3.173809523809523636e+00,-1.755811757015989321e-05,4.909314078209113655e-05
3.174603174603174427e+00,5.792250575734870933e-06,-1.266720612230899212e-05
3.175396825396825218e+00,2.963520011377380475e-05,-7.988741105800140129e-05
3.176190476190476009e+00,5.134715623362382474e-05,-1.466293511206139563e-04
3.176984126984126799e+00,6.844176856589793989e-05,-2.055911652404426707e-04
3.177777777777777590e+00,7.897515409076058643e-05,-2.482624472908297165e-04
3.178571428571428381e+00,8.194979710185785094e-05,-2.658712491318278954e-04
3.179365079365079172e+00,7.759171401518444398e-05,-2.513178078160642373e-04
3.180158730158729963e+00,6.736485503213497953e-05,-2.017029060389378058e-04
3.180952380952380754e+00,5.366435420971034311e-05,-1.204697110188167282e-04
3.181746031746031544e+00,3.925461652447510206e-05,-1.804083942747653407e-05
3.182539682539682335e+00,2.661516087545535411e-05,8.965013232148873776e-05
3.183333333333333126e+00,1.738064662770625769e-05,1.844495129546775086e-04
3.184126984126983917e+00,1.201785296060215339e-05,2.501057949556949995e-04
3.184920634920634708e+00,9.807174702243171956e-06,2.760220096865592882e-04
3.185714285714285499e+00,9.121023987954913903e-06,2.596539501672022856e-04
3.186507936507936289e+00,7.929516882205591937e-06,2.069978107764046968e-04
3.187301587301587080e+00,4.416022757271730726e-06,1.311142633333686118e-04
3.188095238095238315e+00,-2.446073199520161712e-06,4.912558983093728767e-05
3.188888888888889106e+00,-1.251016406544201363e-05,-2.153574787276821010e-05
3.189682539682539897e+00,-2.439369835238982051e-05,-6.676178049646725430e-05
3.190476190476190688e+00,-3.579627417957376682e-05,-7.856333335942501152e-05
3.191269841269841478e+00,-4.415380616168473936e-05,-5.654988525601840974e-05
3.192063492063492269e+00,-4.745646084271064585e-05,-7.883116176337522495e-06
3.192857142857143060e+00,-4.495620539596342221e-05,5.425381539770828763e-05
3.193650793650793851e+00,-3.748404225342289689e-05,1.133780056502390769e-04
3.194444444444444642e+00,-2.722680314209002743e-05,1.531072397400163687e-04
3.195238095238095433e+00,-1.703392069071196419e-05,1.606033815890554048e-04
3.196031746031746223e+00,-9.520347814581252800e-06,1.294288087222318227e-04
3.196825396825397014e+00,-6.299333039978168974e-06,6.128050727511261803e-05
3.197619047619047805e+00,-7.598350757196565803e-06,-3.381201832687987728e-05
3.198412698412698596e+00,-1.234282378834896244e-05,-1.390661648811239177e-04
3.199206349206349387e+00,-1.862023602182825947e-05,-2.342148628966367980e-04
3.200000000000000178e+00,-2.432813255271980561e-05,-2.998805754056874887e-04
3.200793650793650968e+00,-2.779235625098825407e-05,-3.220181106070379930e-04
3.201587301587301759e+00,-2.820057816369123005e-05,-2.952547915969531912e-04
3.202380952380952550e+00,-2.577907880119536464e-05,-2.242234895564378528e-04
3.203174603174603341e+00,-2.169858517748619775e-05,-1.225213260197874755e-04
3.203968253968254132e+00,-1.772351126432161926e-05,-9.553749438577216195e-06
3.204761904761904923e+00,-1.565693799591553234e-05,9.390889683717495464e-05
3.205555555555555713e+00,-1.670576301234349333e-05,1.702821862403145457e-04
3.206349206349206504e+00,-2.096072563487816261e-05,2.086537691960119211e-04
3.207142857142857295e+00,-2.718801416201536593e-05,2.064292961688588045e-04
3.207936507936508086e+00,-3.303857029253077387e-05,1.689759810691247573e-04
3.208730158730158877e+00,-3.564161298185228858e-05,1.076519927874474558e-04
3.209523809523809668e+00,-3.242778742811454036e-05,3.691201422297766925e-05
3.210317460317460458e+00,-2.196077088531770430e-05,-2.876821930739891097e-05
3.211111111111111249e+00,-4.540504216235034729e-06,-7.752261256802953884e-05
3.211904761904762040e+00,1.762980365446852789e-05,-1.018779810091819158e-04
3.212698412698412831e+00,4.082915722591057956e-05,-9.954856979365274742e-05
3.213492063492063622e+00,6.070583718402727119e-05,-7.330676528436404281e-05
3.214285714285714413e+00,7.341954834833997053e-05,-3.009179722038847992e-05
3.215079365079365203e+00,7.667323521671978866e-05,2.045947656800403873e-05
3.215873015873015994e+00,7.030692200721817375e-05,6.785319270778232407e-05
3.216666666666666785e+00,5.629764410932262060e-05,1.026898346512910534e-04
3.217460317460317576e+00,3.821020293378480233e-05,1.184069507654919346e-04
3.218253968253968367e+00,2.028147952292684691e-05,1.124746897891803994e-04
3.219047619047619158e+00,6.379403536759407790e-06,8.676238360252723231e-05
3.219841269841269948e+00,-9.150973725271371156e-07,4.695337686218982708e-05
3.220634920634920739e+00,-8.854908772331631581e-07,1.130919940564850656e-06
3.221428571428571530e+00,5.222068897681333487e-06,-4.209688223648935340e-05
3.222222222222222321e+00,1.459490720134071814e-05,-7.543440182323447245e-05
3.223015873015873112e+00,2.363143611730863600e-05,-9.423996580172710298e-05
3.223809523809523903e+00,2.889731296475728418e-05,-9.709465494722408841e-05
3.224603174603174693e+00,2.802219742703519683e-05,-8.556429210307647760e-05
3.225396825396825484e+00,2.031274581856205158e-05,-6.334485638072011727e-05
3.226190476190476275e+00,6.918405097774292165e-06,-3.512627750681186393e-05
3.226984126984127066e+00,-9.499979880178925081e-06,-5.532608584125166045e-06
3.227777777777777857e+00,-2.550141791266759164e-05,2.160779869197242394e-05
3.228571428571428648e+00,-3.777247452867732859e-05,4.358733097632557147e-05
3.229365079365079438e+00,-4.394116359163256178e-05,5.882538694562653467e-05
3.230158730158730229e+00,-4.307640760154142571e-05,6.671235991363956227e-05
3.230952380952381020e+00,-3.576859212386086876e-05,6.742086410423962014e-05
3.231746031746031811e+00,-2.382081332416510229e-05,6.174187991392953768e-05
3.232539682539682602e+00,-9.690422199517450055e-06,5.094874254351239610e-05
3.233333333333333393e+00,4.124289524876767359e-06,3.667153142088664736e-05
3.234126984126984183e+00,1.557260771489925297e-05,2.075247499910854175e-05
3.234920634920634974e+00,2.331024869945212393e-05,5.043593022758904011e-06
