Timestamp,Flexor carpi radialis,Extensor digitorum
2.000000000000000000e+00,1.473777217642376257e-05,6.057193674826746433e-06
2.000793650793650791e+00,1.071635338207987869e-05,2.182871213802886825e-06
2.001587301587301582e+00,3.522224765181840898e-06,2.093738348823522750e-07
2.002380952380952372e+00,-6.040436190433928202e-06,-1.472139718178439384e-07
2.003174603174603163e+00,-1.651734096969976535e-05,4.229948530808366221e-07
2.003968253968253954e+00,-2.610797595943958923e-05,9.038386033342088008e-07
2.004761904761904745e+00,-3.309847421887525550e-05,1.320296731020583414e-07
2.005555555555555536e+00,-3.626486797250715857e-05,-2.925692301925002883e-06
2.006349206349206327e+00,-3.511149594027607949e-05,-8.828225680419247011e-06
2.007142857142857117e+00,-2.989220649844262081e-05,-1.732459134443277714e-05
2.007936507936507908e+00,-2.145371720021209771e-05,-2.714708358280677563e-05
2.008730158730158699e+00,-1.099527105303161669e-05,-3.606370094474748626e-05
2.009523809523809490e+00,1.605737910077846318e-07,-4.126844534834966119e-05
2.010317460317460281e+00,1.073111111679249052e-05,-4.007267399031238484e-05
2.011111111111111072e+00,1.956454049906681321e-05,-3.072523707903000668e-05
2.011904761904761862e+00,2.568244559473448340e-05,-1.310373678349504049e-05
2.012698412698412653e+00,2.830344891379120735e-05,1.096447374408241404e-05
2.013492063492063444e+00,2.687638465626151561e-05,3.788031505109871084e-05
2.014285714285714235e+00,2.115025874828551917e-05,6.292701563162310071e-05
2.015079365079365026e+00,1.129453499281835062e-05,8.124889320699918709e-05
2.015873015873015817e+00,-1.954219464179111204e-06,8.892685244605442725e-05
2.016666666666666607e+00,-1.718852223219533259e-05,8.389599381272828764e-05
2.017460317460317398e+00,-3.235735313820611153e-05,6.647402352841507052e-05
2.018253968253968189e+00,-4.498413576799171972e-05,3.934903786818425448e-05
2.019047619047618980e+00,-5.256389875325118849e-05,7.005866484450085453e-06
2.019841269841269771e+00,-5.304873076579313761e-05,-2.527778566592254046e-05
2.020634920634920562e+00,-4.528788100694222635e-05,-5.260659060015877571e-05
2.021428571428571352e+00,-2.930902494137646193e-05,-7.150010640898725629e-05
2.022222222222222143e+00,-6.392123492509837020e-06,-8.051178100787056090e-05
2.023015873015872934e+00,2.104976030758020121e-05,-8.029183436239149525e-05
2.023809523809523725e+00,4.973824966879395728e-05,-7.311746963484429002e-05
2.024603174603174516e+00,7.590143911458028614e-05,-6.206392632143916939e-05
2.025396825396825307e+00,9.571948500111231986e-05,-5.008091402977352845e-05
2.026190476190476097e+00,1.058309209277600167e-04,-3.924612293569792050e-05
2.026984126984126888e+00,1.038872601633334389e-04,-3.039055964847442928e-05
2.027777777777777679e+00,8.910361290800943761e-05,-2.315722334617200333e-05
2.028571428571428470e+00,6.267953863857119237e-05,-1.641391526198611816e-05
2.029365079365079261e+00,2.791271449420225015e-05,-8.842836825820424599e-06
2.030158730158730052e+00,-1.013880324935244072e-05,4.972574989939362771e-07
2.030952380952380842e+00,-4.546207603686465670e-05,1.179873460330703214e-05
2.031746031746031633e+00,-7.221457293912421393e-05,2.440151217995926088e-05
2.032539682539682424e+00,-8.590408982960028375e-05,3.694881107072133994e-05
2.033333333333333215e+00,-8.433807297045467521e-05,4.772835388308636938e-05
2.034126984126984006e+00,-6.812625009130658248e-05,5.509442015701598172e-05
2.034920634920634797e+00,-4.063483633788642096e-05,5.786317520248142034e-05
2.035714285714285587e+00,-7.405536728710518242e-06,5.558891567635177653e-05
2.036507936507936378e+00,2.485791660964166224e-05,4.865861111486644838e-05
2.037301587301587169e+00,4.957115919210302549e-05,3.818736774725898760e-05
2.038095238095237960e+00,6.160460455782082575e-05,2.575305027411620170e-05
2.038888888888888751e+00,5.841339045142796916e-05,1.305432479317683437e-05
2.039682539682539542e+00,4.068405201802513321e-05,1.588645769193257587e-06
2.040476190476190332e+00,1.227493383144754468e-05,-7.578245998575076842e-06
2.041269841269841123e+00,-2.061872544936173721e-05,-1.391865765857321744e-05
2.042063492063491914e+00,-5.091806616202222729e-05,-1.742275713480704623e-05
2.042857142857142705e+00,-7.235665635516854918e-05,-1.847163988944246508e-05
2.043650793650793496e+00,-8.093527352801993286e-05,-1.764537557771466149e-05
2.044444444444444287e+00,-7.572263081063296784e-05,-1.552364091256547504e-05
2.045238095238095077e+00,-5.881921602517795067e-05,-1.253558571065598883e-05
2.046031746031745868e+00,-3.458140293079071546e-05,-8.898236422549642195e-06
2.046825396825396659e+00,-8.410637452582360040e-06,-4.656254023870231886e-06
2.047619047619047450e+00,1.451663629544226227e-05,1.937695521826180106e-07
2.048412698412698241e+00,3.026237070284478657e-05,5.537981047193050378e-06
2.049206349206349032e+00,3.670784097796460046e-05,1.100039663874997445e-05
2.049999999999999822e+00,3.368080482146858701e-05,1.588521447738321197e-05
2.050793650793650613e+00,2.271745150094181721e-05,1.925979306534908892e-05
2.051587301587301404e+00,6.586292564719452495e-06,2.019284165526163158e-05
2.052380952380952195e+00,-1.131145240957728481e-05,1.809787651514798218e-05
2.053174603174602986e+00,-2.756969811561663545e-05,1.306261703177742435e-05
2.053968253968253777e+00,-3.934106801554459375e-05,6.012281054869285462e-06
2.054761904761904567e+00,-4.474470428202576212e-05,-1.407611544342067935e-06
2.055555555555555358e+00,-4.305039821106870275e-05,-7.242858779173327728e-06
2.056349206349206149e+00,-3.462134948750828888e-05,-9.832917032561495037e-06
2.057142857142856940e+00,-2.065826032815580593e-05,-8.416134540206746470e-06
2.057936507936507731e+00,-2.837396417016098453e-06,-3.528260553125770957e-06
2.058730158730158522e+00,1.704129806472601266e-05,2.971024258065839578e-06
2.059523809523809312e+00,3.729558057653430483e-05,8.306215630963834063e-06
2.060317460317460103e+00,5.644875402666476812e-05,9.548843667474923817e-06
2.061111111111110894e+00,7.319777954420430459e-05,4.518099501899794399e-06
2.061904761904761685e+00,8.634972474450389494e-05,-7.465677129604169848e-06
2.062698412698412920e+00,9.481625238660226708e-05,-2.522305201737244364e-05
2.063492063492063711e+00,9.770830117062503993e-05,-4.587995516674352268e-05
2.064285714285714501e+00,9.450518394432532463e-05,-6.552492162215289362e-05
2.065079365079365292e+00,8.521864459731000048e-05,-8.018484301464701169e-05
2.065873015873016083e+00,7.045863890920315360e-05,-8.684474852720121100e-05
2.066666666666666874e+00,5.134155617853045176e-05,-8.420615230002476430e-05
2.067460317460317665e+00,2.925085403907785037e-05,-7.293887995745515376e-05
2.068253968253968456e+00,5.536352485799668091e-06,-5.533823727866343746e-05
2.069047619047619246e+00,-1.871422346483464329e-05,-3.451216106657867142e-05
2.069841269841270037e+00,-4.271115848753112115e-05,-1.340232160795113130e-05
2.070634920634920828e+00,-6.577013189280127531e-05,5.999589369114395180e-06
2.071428571428571619e+00,-8.698199219938250926e-05,2.297133966578261945e-05
2.072222222222222410e+00,-1.049376739642970247e-04,3.784073953967744555e-05
2.073015873015873201e+00,-1.177072652829920285e-04,5.136363906942334619e-05
2.073809523809523991e+00,-1.231657939385437644e-04,6.398268931912140750e-05
2.074603174603174782e+00,-1.195934358539687935e-04,7.528222218341095362e-05
2.075396825396825573e+00,-1.063390983973200765e-04,8.386317702012470736e-05
2.076190476190476364e+00,-8.428643502316602145e-05,8.768852697828395865e-05
2.076984126984127155e+00,-5.591828516454130189e-05,8.477001624464795045e-05
2.077777777777777946e+00,-2.491264673058363877e-05,7.395071913886868873e-05
2.078571428571428736e+00,4.635430902437015836e-06,5.551400232320802958e-05
2.079365079365079527e+00,2.914372993958412031e-05,3.140812300636791708e-05
2.080158730158730318e+00,4.634617369989614793e-05,4.991976579077642933e-06
2.080952380952381109e+00,5.572451188073719624e-05,-1.964750468168545704e-05
2.081746031746031900e+00,5.844156577138646480e-05,-3.862176068934676016e-05
2.082539682539682691e+00,5.681761782534270634e-05,-4.914988350347084288e-05
2.083333333333333481e+00,5.354619367796624831e-05,-5.019911233350491628e-05
2.084126984126984272e+00,5.091824239420593326e-05,-4.269054250828166496e-05
2.084920634920635063e+00,5.028395991712927013e-05,-2.922936651657285359e-05
2.085714285714285854e+00,5.186237860380143251e-05,-1.344265799130516038e-05
2.086507936507936645e+00,5.488103601292086795e-05,9.006605383646587075e-07
2.087301587301587436e+00,5.794226585843403117e-05,1.076914785112606136e-05
2.088095238095238226e+00,5.947711544615132969e-05,1.453717101587858738e-05
2.088888888888889017e+00,5.815315197063821226e-05,1.228808517464376445e-05
2.089682539682539808e+00,5.314307412222864154e-05,5.689556149340544283e-06
2.090476190476190599e+00,4.422681512793066828e-05,-2.515553721528044410e-06
2.091269841269841390e+00,3.176303662335899563e-05,-9.265888649850122387e-06
2.092063492063492181e+00,1.659376423619103613e-05,-1.199599007228441036e-05
2.092857142857142971e+00,-7.374872632800826070e-08,-9.316695499148153651e-06
2.093650793650793762e+00,-1.680970398692953653e-05,-1.406064784893628993e-06
2.094444444444444553e+00,-3.215817905893446783e-05,9.986986453762113804e-06
2.095238095238095344e+00,-4.489052409683123331e-05,2.194461407740356298e-05
2.096031746031746135e+00,-5.425221885759767544e-05,3.110316143388975810e-05
2.096825396825396925e+00,-6.009151067352879822e-05,3.451302239779805282e-05
2.097619047619047716e+00,-6.278374267442209469e-05,3.039889755810364576e-05
2.098412698412698507e+00,-6.296396408006537304e-05,1.861124043618325001e-05
2.099206349206349298e+00,-6.119227952812577730e-05,6.592768645146640125e-07
2.100000000000000089e+00,-5.772580605730207558e-05,-2.065285757192473934e-05
2.100793650793650880e+00,-5.252107948264369343e-05,-4.185568059112283859e-05
2.101587301587301670e+00,-4.546712809667483187e-05,-5.952546683496766583e-05
2.102380952380952461e+00,-3.672140070068553939e-05,-7.089919934213006949e-05
2.103174603174603252e+00,-2.695864947504417162e-05,-7.426803642571648881e-05
2.103968253968254043e+00,-1.737957871633650066e-05,-6.910732195020442554e-05
2.104761904761904834e+00,-9.440486612320114719e-06,-5.598848025157661157e-05
2.105555555555555625e+00,-4.397474394489795009e-06,-3.636964676406859496e-05
2.106349206349206415e+00,-2.844962374104464112e-06,-1.235716124782760769e-05
2.107142857142857206e+00,-4.430919252332302209e-06,1.351361752131360719e-05
2.107936507936507997e+00,-7.857653386488620546e-06,3.847929935444164147e-05
2.108730158730158788e+00,-1.117407228637144844e-05,5.976386528697962426e-05
2.109523809523809579e+00,-1.228381196342703877e-05,7.484322007770401414e-05
2.110317460317460370e+00,-9.548825399802189621e-06,8.176666853251949370e-05
2.111111111111111160e+00,-2.341624948409584504e-06,7.949914352103509580e-05
2.111904761904761951e+00,8.618743826391650787e-06,6.820521113474250358e-05
2.112698412698412742e+00,2.129855343030167622e-05,4.937121284735315150e-05
2.113492063492063533e+00,3.282314124451273630e-05,2.567082392870592182e-05
2.114285714285714324e+00,4.032366324840916979e-05,5.358327637121527625e-07
2.115079365079365115e+00,4.192453719389993902e-05,-2.250296328717007137e-05
2.115873015873015905e+00,3.753060516882485717e-05,-4.052862811527864993e-05
2.116666666666666696e+00,2.908758808096462985e-05,-5.177918307035019339e-05
2.117460317460317487e+00,2.014642331486572486e-05,-5.585071570256516072e-05
2.118253968253968278e+00,1.481253198544571248e-05,-5.353618628970808959e-05
2.119047619047619069e+00,1.640506445007065638e-05,-4.640953268351452864e-05
2.119841269841269860e+00,2.628037807885897725e-05,-3.632765127315637591e-05
2.120634920634920650e+00,4.322506868977197647e-05,-2.500336649071186720e-05
2.121428571428571441e+00,6.361918255785366943e-05,-1.373613857414508407e-05
2.122222222222222232e+00,8.230807616665310211e-05,-3.318735462031581815e-06
2.123015873015873023e+00,9.391277312184860928e-05,5.905318746471789780e-06
2.123809523809523814e+00,9.421371099672755834e-05,1.387788404180402290e-05
2.124603174603174605e+00,8.125726171049650680e-05,2.061303653561263682e-05
2.125396825396825395e+00,5.592158360547886645e-05,2.600652101224653438e-05
2.126190476190476186e+00,2.180596083474530610e-05,2.974287873889841654e-05
2.126984126984126977e+00,-1.553982270032558383e-05,3.134648692341111142e-05
2.127777777777777768e+00,-4.986824968980526051e-05,3.036220260042162984e-05
2.128571428571428559e+00,-7.565813788003010617e-05,2.658830350789311424e-05
2.129365079365079350e+00,-8.934313429660891001e-05,2.025555671251314376e-05
2.130158730158730140e+00,-9.002454320966328993e-05,1.206427427442100366e-05
2.130952380952380931e+00,-7.948623408060836244e-05,3.043178905865683728e-06
2.131746031746031722e+00,-6.152398473225683740e-05,-5.734094201584958739e-06
2.132539682539682513e+00,-4.080482287319627666e-05,-1.346231954831600260e-05
2.133333333333333304e+00,-2.161689768465006490e-05,-1.979595331186664812e-05
2.134126984126984095e+00,-6.891487670012396707e-06,-2.481256164731489099e-05
2.134920634920634885e+00,2.241122176221379259e-06,-2.876385252270847990e-05
2.135714285714285676e+00,6.307894034169037655e-06,-3.174773495710953470e-05
2.136507936507936467e+00,6.911440077144425069e-06,-3.347158902833981465e-05
2.137301587301587258e+00,5.980791210268606499e-06,-3.321781505994285475e-05
2.138095238095238049e+00,5.125594181773556717e-06,-3.001785037993016995e-05
2.138888888888888840e+00,5.267351821615085040e-06,-2.296012006658230416e-05
2.139682539682539630e+00,6.588366610273577346e-06,-1.153364181509125653e-05
2.140476190476190421e+00,8.732622574773242805e-06,4.082383144886847653e-06
2.141269841269841212e+00,1.113845459091984303e-05,2.286829025469433883e-05
2.142063492063492003e+00,1.337231568710380104e-05,4.303171940469577625e-05
2.142857142857142794e+00,1.535070853629243292e-05,6.232725328260067777e-05
2.143650793650793585e+00,1.737716245260116893e-05,7.857077067890760142e-05
2.144444444444444375e+00,1.998177676684621858e-05,9.019352544151098866e-05
2.145238095238095166e+00,2.362116708648774564e-05,9.662735679367802561e-05
2.146031746031745957e+00,2.834975612349205097e-05,9.833525775043186446e-05
2.146825396825396748e+00,3.358175983220615602e-05,9.641214148123143201e-05
2.147619047619047539e+00,3.802251681921743664e-05,9.186165518894067893e-05
2.148412698412698330e+00,3.978362402985907898e-05,8.483657455685657202e-05
2.149206349206349120e+00,3.664701455993618650e-05,7.420578705588916986e-05
2.149999999999999911e+00,2.643340549427256828e-05,5.771216990256566870e-05
2.150793650793650702e+00,7.452748042325034725e-06,3.274728942508896041e-05
2.151587301587301493e+00,-2.097186019521202636e-05,-2.489722788773011305e-06
2.152380952380952284e+00,-5.795366114335327945e-05,-4.783752213226065495e-05
2.153174603174603075e+00,-1.006039960106673196e-04,-1.004186909034994235e-04
2.153968253968253865e+00,-1.439311433538550196e-04,-1.545841115106605780e-04
2.154761904761904656e+00,-1.812956733960671707e-04,-2.026899905888965650e-04
2.155555555555555447e+00,-2.055015831405003479e-04,-2.366101848610715726e-04
2.156349206349206238e+00,-2.103677443482794519e-04,-2.496066854935551842e-04
2.157142857142857029e+00,-1.923977513628962117e-04,-2.379806040653582215e-04
2.157936507936507819e+00,-1.520492493401651808e-04,-2.019659314510527577e-04
2.158730158730158610e+00,-9.414806729929483349e-05,-1.456325105721393946e-04
2.159523809523809401e+00,-2.719579707589412482e-05,-7.595795523827242508e-05
2.160317460317460192e+00,3.836458937851137545e-05,-1.476761880196416128e-06
2.161111111111110983e+00,9.251980993732915922e-05,6.907897407939114049e-05
2.161904761904761774e+00,1.280389730696278815e-04,1.278893755637705207e-04
2.162698412698412564e+00,1.420974410851850512e-04,1.688337101088574184e-04
2.163492063492063355e+00,1.366451638186908077e-04,1.880130905581130956e-04
2.164285714285714146e+00,1.173791100150798798e-04,1.841181518359120495e-04
2.165079365079364937e+00,9.165557704899824124e-05,1.587025788421623119e-04
2.165873015873015728e+00,6.607772404382157301e-05,1.162890819738045186e-04
2.166666666666666519e+00,4.464349111117956847e-05,6.409498612194454545e-05
2.167460317460317309e+00,2.813897023929495000e-05,1.113988640945007518e-05
2.168253968253968100e+00,1.495920781190070384e-05,-3.333752789767964697e-05
2.169047619047618891e+00,2.931747253911900867e-06,-6.190700954283043581e-05
2.169841269841269682e+00,-8.723108456221641987e-06,-7.084891448194819807e-05
2.170634920634920473e+00,-1.822771998449416713e-05,-6.123825583175845943e-05
2.171428571428571264e+00,-2.145893401513082922e-05,-3.871807049967772817e-05
2.172222222222222054e+00,-1.350079970950162909e-05,-1.192039017334122814e-05
2.173015873015872845e+00,9.095842087724945966e-06,1.002820575904631937e-05
2.173809523809523636e+00,4.628978777613398867e-05,2.017328050545641899e-05
2.174603174603174427e+00,9.359948081773036680e-05,1.576560056533705359e-05
2.175396825396825218e+00,1.426220420173023072e-04,-9.810629780259378177e-07
2.176190476190476009e+00,1.828575604812646453e-04,-2.369068969357357240e-05
2.176984126984126799e+00,2.042332472529553682e-04,-4.397448708919895425e-05
2.177777777777777590e+00,1.995411006478966392e-04,-5.423234417836421986e-05
2.178571428571428381e+00,1.661036786696402532e-04,-5.014105489696890145e-05
2.179365079365079172e+00,1.062925880021360002e-04,-3.197439226607516795e-05
2.180158730158729963e+00,2.691465341882398539e-05,-4.358615995166822900e-06
2.180952380952380754e+00,-6.219550260074593060e-05,2.534908034545218543e-05
2.181746031746031544e+00,-1.498911082428554936e-04,4.942706706751758190e-05
2.182539682539682335e+00,-2.253043435774174758e-04,6.210996665122440889e-05
2.183333333333333126e+00,-2.790643460975089792e-04,6.118056334526649300e-05
2.184126984126983917e+00,-3.041049121874738587e-04,4.841240749752861674e-05
2.184920634920634708e+00,-2.961785953383344800e-04,2.877089282916896215e-05
2.185714285714285499e+00,-2.542472998181379072e-04,8.642100993037171535e-06
2.186507936507936289e+00,-1.808613060473240007e-04,-6.303557553833979915e-06
2.187301587301587080e+00,-8.248437187835121111e-05,-1.283673768325024811e-05
2.188095238095238315e+00,3.046671029574426562e-05,-1.085706734752049414e-05
2.188888888888889106e+00,1.442098761772227494e-04,-2.871942958666771799e-06
2.189682539682539897e+00,2.430784255878567373e-04,7.377217579566682610e-06
2.190476190476190688e+00,3.118916509191720912e-04,1.647331039581470595e-05
2.191269841269841478e+00,3.388658152770661694e-04,2.243357878608362899e-05
2.192063492063492269e+00,3.184338017130768582e-04,2.503509362043627317e-05
2.192857142857143060e+00,2.532098372983222637e-04,2.538862858295069626e-05
2.193650793650793851e+00,1.543931105587497202e-04,2.506491513940071721e-05
2.194444444444444642e+00,4.018661277595870259e-05,2.516987425719016683e-05
2.195238095238095433e+00,-6.768797517095068107e-05,2.571170669414440786e-05
2.196031746031746223e+00,-1.486917523131555145e-04,2.548430021393292201e-05
2.196825396825397014e+00,-1.882165123279329279e-04,2.253866790678098230e-05
2.197619047619047805e+00,-1.810643246871423387e-04,1.510969838397244899e-05
2.198412698412698596e+00,-1.326193815678559235e-04,2.649894906108452592e-06
2.199206349206349387e+00,-5.730092407248976185e-05,-1.347954411123481182e-05
2.200000000000000178e+00,2.530797285029339969e-05,-3.000326883414481614e-05
2.200793650793650968e+00,9.552404990226714878e-05,-4.248179911121706008e-05
2.201587301587301759e+00,1.382977463236037281e-04,-4.658911128820565823e-05
2.202380952380952550e+00,1.462504853768522401e-04,-3.950140362149378507e-05
2.203174603174603341e+00,1.203179894769451424e-04,-2.095840286189010971e-05
2.203968253968254132e+00,6.817950588934967014e-05,6.323917575781616211e-06
2.204761904761904923e+00,1.330917123826198480e-06,3.702431887231284188e-05
2.205555555555555713e+00,-6.810766863148027823e-05,6.431142693646381750e-05
2.206349206349206504e+00,-1.299464185157112148e-04,8.142610703556699006e-05
2.207142857142857295e+00,-1.773498053548164851e-04,8.337239751725366611e-05
2.207936507936508086e+00,-2.070749232291257610e-04,6.826971247399042913e-05
2.208730158730158877e+00,-2.188156360832603075e-04,3.797063027559596657e-05
2.209523809523809668e+00,-2.141417954934968617e-04,-2.262725369789521921e-06
2.210317460317460458e+00,-1.955376687186836666e-04,-4.495384680704391428e-05
2.211111111111111249e+00,-1.658798682640414096e-04,-8.214559901637555816e-05
2.211904761904762040e+00,-1.284173288221342624e-04,-1.071848845429624041e-04
2.212698412698412831e+00,-8.703535746883407046e-05,-1.160713788010367419e-04
2.213492063492063622e+00,-4.641701824886470602e-05,-1.080464567116303897e-04
2.214285714285714413e+00,-1.173446205884406183e-05,-8.538060943456603029e-05
2.215079365079365203e+00,1.228307839754686783e-05,-5.259946994877497920e-05
2.215873015873015994e+00,2.272521903639557512e-05,-1.551918806030567883e-05
2.216666666666666785e+00,1.982854490382440776e-05,1.962436989209676350e-05
2.217460317460317576e+00,7.624848103936932725e-06,4.689172029783763315e-05
2.218253968253968367e+00,-6.589523315198020370e-06,6.133339374533545313e-05
2.219047619047619158e+00,-1.406148509084459167e-05,5.981221185109946413e-05
2.219841269841269948e+00,-7.232566114003818117e-06,4.192216066233447267e-05
2.220634920634920739e+00,1.763353352269680157e-05,1.070017555649101347e-05
2.221428571428571530e+00,5.882906654185189176e-05,-2.733883367139635609e-05
2.222222222222222321e+00,1.092735350126835652e-04,-6.321743040775478048e-05
2.223015873015873112e+00,1.583656624875283696e-04,-8.756249208711919404e-05
2.223809523809523903e+00,1.950440653206932020e-04,-9.322576686216508049e-05
2.224603174603174693e+00,2.110323371650318100e-04,-7.758715339629788932e-05
2.225396825396825484e+00,2.031755682672918030e-04,-4.364775502876199576e-05
2.226190476190476275e+00,1.741126895017034023e-04,5.868264607227452529e-07
2.226984126984127066e+00,1.311306900779517042e-04,4.428946220771748252e-05
2.227777777777777857e+00,8.366975918160603665e-05,7.683535756381811856e-05
2.228571428571428648e+00,4.036771394525175583e-05,9.067856076497834495e-05
2.229365079365079438e+00,6.632015186931333919e-06,8.321096978773007190e-05
2.230158730158730229e+00,-1.649278821780470651e-05,5.712313899588077916e-05
2.230952380952381020e+00,-3.185957321806704172e-05,1.928480485123285816e-05
2.231746031746031811e+00,-4.442232739724204395e-05,-2.137968956750433739e-05
2.232539682539682602e+00,-5.884890512828967079e-05,-5.627532977440947304e-05
2.233333333333333393e+00,-7.745966363886799886e-05,-7.905477360376566101e-05
2.234126984126984183e+00,-9.921371714924016644e-05,-8.663130052198617992e-05
2.234920634920634974e+00,-1.200076032200361959e-04,-7.922601933245245821e-05
2.235714285714285765e+00,-1.340587216448894850e-04,-5.967462197591898176e-05
2.236507936507936556e+00,-1.358170401948372225e-04,-3.233700486824927589e-05
2.237301587301587347e+00,-1.217632890659196176e-04,-1.946052296941282359e-06
2.238095238095238138e+00,-9.157830879625355135e-05,2.733626080871095587e-05
2.238888888888888928e+00,-4.841734177331806889e-05,5.248895163374188341e-05
2.239682539682539719e+00,1.705666949055368105e-06,7.178595471826317779e-05
2.240476190476190510e+00,5.120746045190869054e-05,8.461372444976779155e-05
2.241269841269841301e+00,9.256664873834018225e-05,9.111689535750521873e-05
2.242063492063492092e+00,1.199226829006032753e-04,9.185436077417072917e-05
2.242857142857142883e+00,1.302632385195928125e-04,8.759214431566259430e-05
2.243650793650793673e+00,1.238709989228619539e-04,7.925245024716988959e-05
2.244444444444444464e+00,1.038761092531186297e-04,6.793286864777740516e-05
2.245238095238095255e+00,7.506903568384801619e-05,5.486723805955496722e-05
2.246031746031746046e+00,4.243626568331744666e-05,4.125108894358020474e-05
2.246825396825396837e+00,9.988704644349476563e-06,2.797014321108033200e-05
2.247619047619047628e+00,-1.973062750412724495e-05,1.536867968254763614e-05
2.248412698412698418e+00,-4.543547869580990081e-05,3.199378207573465505e-06
2.249206349206349209e+00,-6.647328337243517545e-05,-9.195337398869179684e-06
2.250000000000000000e+00,-8.219102397664686656e-05,-2.253163411503059034e-05
2.250793650793650791e+00,-9.159969449195836896e-05,-3.717751464490217435e-05
2.251587301587301582e+00,-9.346371432909986849e-05,-5.280101750516088638e-05
2.252380952380952372e+00,-8.676034463396626521e-05,-6.816698459820572564e-05
2.253174603174603163e+00,-7.131299323504603274e-05,-8.116800041780614962e-05
2.253968253968253954e+00,-4.832089137028103786e-05,-8.914744607782805583e-05
2.254761904761904745e+00,-2.051635467805670791e-05,-8.949780051853652347e-05
2.255555555555555536e+00,8.200092174053392980e-06,-8.040742309296457127e-05
2.256349206349206327e+00,3.359364750617141731e-05,-6.153634102520830478e-05
2.257142857142857117e+00,5.213765013330807520e-05,-3.439173224051657638e-05
2.257936507936507908e+00,6.188873674123403375e-05,-2.270509496683076424e-06
2.258730158730158699e+00,6.286209553940457591e-05,3.021667653202968077e-05
2.259523809523809490e+00,5.677088685248240206e-05,5.791804410332045935e-05
2.260317460317460281e+00,4.625590210317356393e-05,7.605635995625050741e-05
2.261111111111111072e+00,3.392836484799597642e-05,8.114446659333031896e-05
2.261904761904761862e+00,2.159262728326907921e-05,7.175748425683234452e-05
2.262698412698412653e+00,9.909748114990693131e-06,4.899393204380952607e-05
2.263492063492063444e+00,-1.426254616839841338e-06,1.645070853066038513e-05
2.264285714285714235e+00,-1.312119515319896501e-05,-2.038624173328586878e-05
2.265079365079365026e+00,-2.557435546686133543e-05,-5.525273439251324501e-05
2.265873015873015817e+00,-3.831091022008488250e-05,-8.242905605420708598e-05
2.266666666666666607e+00,-4.975776448050899203e-05,-9.788496313029516253e-05
2.267460317460317398e+00,-5.743871158858495968e-05,-9.993255563925862103e-05
2.268253968253968189e+00,-5.853357445164432394e-05,-8.926841033530222194e-05
2.269047619047618980e+00,-5.064845430783091140e-05,-6.849090332404749728e-05
2.269841269841269771e+00,-3.259498619027041753e-05,-4.131522830138833970e-05
2.270634920634920562e+00,-4.974960831609827000e-06,-1.175020822075566808e-05
2.271428571428571352e+00,2.959304241312843206e-05,1.655462659232303865e-05
2.272222222222222143e+00,6.669133096577144714e-05,4.070490356438679963e-05
2.273015873015872934e+00,1.007479168964647755e-04,5.872868985960499877e-05
2.273809523809523725e+00,1.259853434774392609e-04,6.959145095359437708e-05
2.274603174603174516e+00,1.374733363229795199e-04,7.312150154998793593e-05
2.275396825396825307e+00,1.320607732408538395e-04,6.988159848853872039e-05
2.276190476190476097e+00,1.089999286950595525e-04,6.100915895290286048e-05
2.276984126984126888e+00,7.016523718675693271e-05,4.804648518622718704e-05
2.277777777777777679e+00,1.987365515063845630e-05,3.278382090154393296e-05
2.278571428571428470e+00,-3.561665348292455117e-05,1.713150317874706071e-05
2.279365079365079261e+00,-8.884438984650705083e-05,3.015128967839298569e-06
2.280158730158730052e+00,-1.320655462202723041e-04,-7.742158868934249859e-06
2.280952380952380842e+00,-1.583210121748984363e-04,-1.359878013258234496e-05
2.281746031746031633e+00,-1.625878437457392177e-04,-1.355787804589297444e-05
2.282539682539682424e+00,-1.428728476487693417e-04,-7.474389857523777130e-06
2.283333333333333215e+00,-1.010111122564133788e-04,3.704086791305640698e-06
2.284126984126984006e+00,-4.287473305911188314e-05,1.790386574824401374e-05
2.284920634920634797e+00,2.225572626825336132e-05,3.219983010321746136e-05
2.285714285714285587e+00,8.321464592716813660e-05,4.339304438059015485e-05
2.286507936507936378e+00,1.291325136446181136e-04,4.875736112176407114e-05
2.287301587301587169e+00,1.517601426488833711e-04,4.672474487973577508e-05
2.288095238095237960e+00,1.473028327751798770e-04,3.726797554322866453e-05
2.288888888888888751e+00,1.172411714375880682e-04,2.184102732652459800e-05
2.289682539682539542e+00,6.791017077116233967e-05,2.919088441818735725e-06
2.290476190476190332e+00,8.969604100762260731e-06,-1.665495398584388711e-05
2.291269841269841123e+00,-4.880234170392916090e-05,-3.426461295978538231e-05
2.292063492063491914e+00,-9.580936579934585509e-05,-4.789668016307347688e-05
2.292857142857142705e+00,-1.254739179150612309e-04,-5.629619818960135858e-05
2.293650793650793496e+00,-1.352257746837196462e-04,-5.898900161150137883e-05
2.294444444444444287e+00,-1.265083677181459199e-04,-5.624756929167941578e-05
2.295238095238095077e+00,-1.039194068598627143e-04,-4.900156019663429326e-05
2.296031746031745868e+00,-7.379251723636262811e-05,-3.864712282714118980e-05
2.296825396825396659e+00,-4.262198004471616167e-05,-2.673919167147099829e-05
2.297619047619047450e+00,-1.571871923922951540e-05,-1.463175006407031173e-05
2.298412698412698241e+00,3.628723364691378075e-06,-3.191082907874429984e-06
2.299206349206349032e+00,1.438922184874133665e-05,7.301253882163516404e-06
2.299999999999999822e+00,1.749264270837720193e-05,1.701251231372084393e-05
2.300793650793650613e+00,1.518515734585911467e-05,2.624898268024505470e-05
2.301587301587301404e+00,1.024920843309994359e-05,3.511037627301144759e-05
2.302380952380952195e+00,5.272519632309227147e-06,4.325653235757658075e-05
2.303174603174602986e+00,2.100555797698984198e-06,4.987365866782723863e-05
2.303968253968253777e+00,1.554296926018996574e-06,5.383919214003794046e-05
2.304761904761904567e+00,3.439380678828022618e-06,5.401636510460185810e-05
2.305555555555555358e+00,6.813812336500086296e-06,4.957818058807973315e-05
2.306349206349206149e+00,1.042871144836251889e-05,4.026040295515890231e-05
2.307142857142856940e+00,1.321791170189098813e-05,2.646799348261910439e-05
2.307936507936507731e+00,1.469250344572504924e-05,9.205486245752030760e-06
2.308730158730158522e+00,1.510897188785723617e-05,-1.013841944361613993e-05
2.309523809523809312e+00,1.534258358306618601e-05,-3.006623348465762636e-05
2.310317460317460103e+00,1.650591958122487666e-05,-4.919616191943622076e-05
2.311111111111110894e+00,1.946065091171294022e-05,-6.634806960596915037e-05
2.311904761904761685e+00,2.441903682161835688e-05,-8.047078172446199779e-05
2.312698412698412920e+00,3.079319403524662536e-05,-9.048054429801471467e-05
2.313492063492063711e+00,3.734915214108116410e-05,-9.515484716071002187e-05
2.314285714285714501e+00,4.260807850572066475e-05,-9.323095548967757259e-05
2.315079365079365292e+00,4.534909587111932069e-05,-8.376087399768682943e-05
2.315873015873016083e+00,4.503101289163285976e-05,-6.661413179339146324e-05
2.316666666666666874e+00,4.197617461434108592e-05,-4.290052550313212462e-05
2.317460317460317665e+00,3.724297356424881094e-05,-1.508796081546341686e-05
2.318253968253968456e+00,3.222641773079385033e-05,1.329239328523041931e-05
2.319047619047619246e+00,2.812755642574886402e-05,3.830473610049666230e-05
2.319841269841270037e+00,2.548498450088955574e-05,5.645853155213345262e-05
2.320634920634920828e+00,2.394477018279082416e-05,6.552082286569433473e-05
2.321428571428571619e+00,2.236348468168725381e-05,6.507441788979398400e-05
2.322222222222222410e+00,1.922050777686240943e-05,5.666973366213966224e-05
2.323015873015873201e+00,1.320158808789325938e-05,4.351082923719800695e-05
2.323809523809523991e+00,3.746728565344100169e-06,2.971808200023561412e-05
2.324603174603174782e+00,-8.639489762861405359e-06,1.931012281580683050e-05
2.325396825396825573e+00,-2.243401429886917253e-05,1.513261280961145948e-05
2.326190476190476364e+00,-3.548480038322619561e-05,1.800822464980932194e-05
2.326984126984127155e+00,-4.560357136769635755e-05,2.636789014132542933e-05
2.327777777777777946e+00,-5.115240615310591280e-05,3.653515047153970319e-05
2.328571428571428736e+00,-5.143018229386855879e-05,4.367354414438621356e-05
2.329365079365079527e+00,-4.675607009467334251e-05,4.319684150703226034e-05
2.330158730158730318e+00,-3.827157174153637126e-05,3.224821280133728174e-05
2.330952380952381109e+00,-2.758130900879773241e-05,1.076651429174792631e-05
2.331746031746031900e+00,-1.638038588461305020e-05,-1.825552131017732166e-05
2.332539682539682691e+00,-6.168360086142882118e-06,-4.945608097855331252e-05
2.333333333333333481e+00,1.930750673381545045e-06,-7.652530896211688031e-05
2.334126984126984272e+00,7.276960381431956435e-06,-9.388643643428294812e-05
2.334920634920635063e+00,9.783475225008109313e-06,-9.809146476160363938e-05
2.335714285714285854e+00,9.938165087046435271e-06,-8.853417355806100602e-05
2.336507936507936645e+00,8.732294049915110819e-06,-6.735608980415598395e-05
2.337301587301587436e+00,7.452097010442370725e-06,-3.868889668729793982e-05
2.338095238095238226e+00,7.335755242986211667e-06,-7.542392994602046227e-06
2.338888888888889017e+00,9.171535134418740855e-06,2.132306167930408190e-05
2.339682539682539808e+00,1.296958950297352432e-05,4.427493289317381288e-05
2.340476190476190599e+00,1.783977067445652618e-05,5.929025546020255552e-05
2.341269841269841390e+00,2.214333460697640176e-05,6.601145984782975213e-05
2.342063492063492181e+00,2.389020102632468266e-05,6.545001003371648445e-05
2.342857142857142971e+00,2.127250083286896399e-05,5.948349921057318135e-05
2.343650793650793762e+00,1.318887437805753563e-05,5.031368907909652852e-05
2.344444444444444553e+00,-3.757224718201354646e-07,4.002286353498013251e-05
2.345238095238095344e+00,-1.820694164642931335e-05,3.030373656582970227e-05
2.346031746031746135e+00,-3.798667614488006035e-05,2.236915157809654943e-05
2.346825396825396925e+00,-5.665552467001148306e-05,1.698961741335904826e-05
2.347619047619047716e+00,-7.092939320784956577e-05,1.457101929532742580e-05
2.348412698412698507e+00,-7.786702075305646431e-05,1.518243402804851200e-05
2.349206349206349298e+00,-7.539739537575949955e-05,1.848314464801398057e-05
2.350000000000000089e+00,-6.274078049184632268e-05,2.357345012856926125e-05
2.350793650793650880e+00,-4.066973823657678858e-05,2.887666345666759453e-05
2.351587301587301670e+00,-1.155450077369368973e-05,3.220463696933531462e-05
2.352380952380952461e+00,2.085670253718632176e-05,3.112763144529663979e-05
2.353174603174603252e+00,5.193455634509335433e-05,2.364863192035490490e-05
2.353968253968254043e+00,7.689066512699829574e-05,9.004238923115032121e-06
2.354761904761904834e+00,9.160620454666723231e-05,-1.173148947323360371e-05
2.355555555555555625e+00,9.340322013366361698e-05,-3.556740823182246483e-05
2.356349206349206415e+00,8.158419191373816675e-05,-5.818644020304017920e-05
2.357142857142857206e+00,5.760472047567205534e-05,-7.506888933270599554e-05
2.357936507936507997e+00,2.483652111904045788e-05,-8.277120771485623114e-05
2.358730158730158788e+00,-1.200700241658881904e-05,-7.991054526388562335e-05
2.359523809523809579e+00,-4.762931575703305644e-05,-6.752035991650590454e-05
2.360317460317460370e+00,-7.693369330681387253e-05,-4.868530323906464214e-05
2.361111111111111160e+00,-9.572576890279403759e-05,-2.762623351778846254e-05
2.361904761904761951e+00,-1.012887998532337321e-04,-8.572546271549171597e-06
2.362698412698412742e+00,-9.279580791261061339e-05,5.229224539542705891e-06
2.363492063492063533e+00,-7.149470908197459132e-05,1.212950619532208195e-05
2.364285714285714324e+00,-4.058776786819189903e-05,1.221961373634358084e-05
2.365079365079365115e+00,-4.765612353071859709e-06,7.044991866048991778e-06
2.365873015873015905e+00,3.055809589046730706e-05,-9.773050481305151154e-07
2.366666666666666696e+00,6.017443009495273198e-05,-9.250667229688585089e-06
2.367460317460317487e+00,7.997951017546264081e-05,-1.560919440370336315e-05
2.368253968253968278e+00,8.765952610020724450e-05,-1.869503755764644233e-05
2.369047619047619069e+00,8.302048361970377414e-05,-1.803521918916242510e-05
2.369841269841269860e+00,6.789914883905564494e-05,-1.386041339235539277e-05
2.370634920634920650e+00,4.568424039042636738e-05,-6.798095408092715847e-06
2.371428571428571441e+00,2.056945953374218701e-05,2.408444637054246238e-06
2.372222222222222232e+00,-3.277709984672778981e-06,1.305845360197321728e-05
2.373015873015873023e+00,-2.244454514169802901e-05,2.451155858010977819e-05
2.373809523809523814e+00,-3.476682065230071841e-05,3.610334092144020396e-05
2.374603174603174605e+00,-3.953328817912831551e-05,4.702514416378973623e-05
2.375396825396825395e+00,-3.741279317959147913e-05,5.624910383853725228e-05
2.376190476190476186e+00,-3.016025458696645030e-05,6.257639298882241121e-05
2.376984126984126977e+00,-2.018033945998207946e-05,6.484679245264764636e-05
2.377777777777777768e+00,-1.002696559359121958e-05,6.226664230015992066e-05
2.378571428571428559e+00,-1.902489122691529480e-06,5.472432539275923235e-05
2.379365079365079350e+00,2.782098618109688941e-06,4.292940826694598871e-05
2.380158730158730140e+00,3.705243844600766931e-06,2.827304851464272075e-05
2.380952380952380931e+00,1.698039190771804302e-06,1.243814520100351215e-05
2.381746031746031722e+00,-1.484386715591565813e-06,-3.085743877486642640e-06
2.382539682539682513e+00,-3.650869184940531917e-06,-1.737172649103792813e-05
2.383333333333333304e+00,-2.792391416114481936e-06,-3.013689091625259699e-05
2.384126984126984095e+00,2.344882554320345549e-06,-4.148151100181646819e-05
2.384920634920634885e+00,1.188187373113286157e-05,-5.138646927782862468e-05
2.385714285714285676e+00,2.470642834863016310e-05,-5.919872644870347673e-05
2.386507936507936467e+00,3.866568818951410670e-05,-6.338019589292328117e-05
2.387301587301587258e+00,5.101605930276696221e-05,-6.172613958506126763e-05
2.388095238095238049e+00,5.905171703853214095e-05,-5.208729415173159573e-05
2.388888888888888840e+00,6.078494103717293557e-05,-3.340964741429237428e-05
2.389682539682539630e+00,5.551287102034862050e-05,-6.719476198092151308e-06
2.390476190476190421e+00,4.409890587502054814e-05,2.438617153637081796e-05
2.391269841269841212e+00,2.884056193537434974e-05,5.407626880532171956e-05
2.392063492063492003e+00,1.289497396665154537e-05,7.550913664048650783e-05
2.392857142857142794e+00,-6.246470595542611414e-07,8.265401873311240401e-05
2.393650793650793585e+00,-9.625346622213298053e-06,7.214937895563533477e-05
2.394444444444444375e+00,-1.374800820570833250e-05,4.456617760412131710e-05
2.395238095238095166e+00,-1.452420156534348230e-05,4.616862861424720596e-06
2.396031746031745957e+00,-1.485753743416017531e-05,-3.980042641946751765e-05
2.396825396825396748e+00,-1.796455327671866620e-05,-7.944801642854088951e-05
2.397619047619047539e+00,-2.613315283757777712e-05,-1.059421999621819815e-04
2.398412698412698330e+00,-3.974311123812846543e-05,-1.136919854717616550e-04
2.399206349206349120e+00,-5.690401773626487918e-05,-1.011178326999643211e-04
2.399999999999999911e+00,-7.384571783960203217e-05,-7.091866845493509570e-05
2.400793650793650702e+00,-8.593907692390671620e-05,-2.938512694968146375e-05
2.401587301587301493e+00,-8.902499216297575307e-05,1.505258557913139766e-05
2.402380952380952284e+00,-8.064709076834410996e-05,5.369660866526048863e-05
2.403174603174603075e+00,-6.083304783126822793e-05,7.942797092123479231e-05
2.403968253968253865e+00,-3.222200603459555697e-05,8.809906200575499350e-05
2.404761904761904656e+00,4.697285277010433398e-07,7.919224449524475250e-05
2.405555555555555447e+00,3.148201945634641332e-05,5.568012425456205210e-05
2.406349206349206238e+00,5.527622379509639094e-05,2.320908876503632761e-05
2.407142857142857029e+00,6.773646257329293265e-05,-1.116891186084787590e-05
2.407936507936507819e+00,6.704612921688298368e-05,-4.046293514789611073e-05
2.408730158730158610e+00,5.406160965029649639e-05,-5.915720599114874265e-05
2.409523809523809401e+00,3.211751813485867827e-05,-6.432058900388408517e-05
2.410317460317460192e+00,6.318790449059681880e-06,-5.616688518112777532e-05
2.411111111111110983e+00,-1.752082938077108743e-05,-3.789227775674487307e-05
2.411904761904761774e+00,-3.406860110007172207e-05,-1.478141611873902933e-05
2.412698412698412564e+00,-3.954817229686157366e-05,7.207129601690428532e-06
2.413492063492063355e+00,-3.249039594421622499e-05,2.298591260320649953e-05
2.414285714285714146e+00,-1.402452722021547946e-05,2.957184770217424565e-05
2.415079365079364937e+00,1.233146269989691208e-05,2.667086897962362389e-05
2.415873015873015728e+00,4.133934894094535737e-05,1.649888665794408419e-05
2.416666666666666519e+00,6.706173077978305514e-05,2.969371060645625400e-06
2.417460317460317309e+00,8.406909827860160368e-05,-9.450443974203651107e-06
2.418253968253968100e+00,8.860018146128329484e-05,-1.687038644213936575e-05
2.419047619047618891e+00,7.940162883406012145e-05,-1.682759851102931140e-05
2.419841269841269682e+00,5.801221325314550892e-05,-8.723494064129014191e-06
2.420634920634920473e+00,2.839868091437024202e-05,6.161260441246919164e-06
2.421428571428571264e+00,-3.952829477117666186e-06,2.500753001136880109e-05
2.422222222222222054e+00,-3.322704030268502305e-05,4.405977674580831104e-05
2.423015873015872845e+00,-5.444248558963193848e-05,5.938609620567178286e-05
2.423809523809523636e+00,-6.434903054324393572e-05,6.767741383349498816e-05
2.424603174603174427e+00,-6.194353409406404601e-05,6.694037844394681359e-05
2.425396825396825218e+00,-4.857868779120613805e-05,5.692363592241619685e-05
2.426190476190476009e+00,-2.767101481332898941e-05,3.915088488998373260e-05
2.426984126984126799e+00,-4.022993007058913685e-06,1.653635402208922058e-05
2.427777777777777590e+00,1.717486406563796411e-05,-7.299913547158699557e-06
2.428571428571428381e+00,3.148219633606686493e-05,-2.879544068332075520e-05
2.429365079365079172e+00,3.618751130856181949e-05,-4.506827292934723658e-05
2.430158730158729963e+00,3.080398920364184692e-05,-5.428323108591591429e-05
2.430952380952380754e+00,1.689750754042466360e-05,-5.576937232219455353e-05
2.431746031746031544e+00,-2.672589224340554172e-06,-4.996411285295933633e-05
2.432539682539682335e+00,-2.475912774682938194e-05,-3.825316578834441199e-05
2.433333333333333126e+00,-4.673543545128654592e-05,-2.273361075176217724e-05
2.434126984126983917e+00,-6.678817784514353090e-05,-5.900491407934127779e-06
2.434920634920634708e+00,-8.366346031749272952e-05,9.731015936945884109e-06
2.435714285714285499e+00,-9.611941857637731380e-05,2.202087648066249894e-05
2.436507936507936289e+00,-1.024705536265934486e-04,2.954562474226400391e-05
2.437301587301587080e+00,-1.005402480157420681e-04,3.181959514979483826e-05
2.438095238095238315e+00,-8.812673661756534153e-05,2.935318627004093793e-05
2.438888888888889106e+00,-6.384628030496458109e-05,2.352821458636451520e-05
2.439682539682539897e+00,-2.804835910391422407e-05,1.629177015866152594e-05
2.440476190476190688e+00,1.654832926011824947e-05,9.703943705138970153e-06
2.441269841269841478e+00,6.478190486793389334e-05,5.422383750588136146e-06
2.442063492063492269e+00,1.096710521960772003e-04,4.247911074492029326e-06
2.442857142857143060e+00,1.436787906248775267e-04,5.868414151105137740e-06
2.443650793650793851e+00,1.603534810347119423e-04,8.911072945245413095e-06
2.444444444444444642e+00,1.559231132970331909e-04,1.134026973403944737e-05
2.445238095238095433e+00,1.303724604079138790e-04,1.112529688572249925e-05
2.446031746031746223e+00,8.764809462533070851e-05,6.978942482208844391e-06
2.446825396825397014e+00,3.489296236008005071e-05,-1.104763720580240964e-06
2.447619047619047805e+00,-1.908652930727438514e-05,-1.174824256066370350e-05
2.448412698412698596e+00,-6.569652175966443392e-05,-2.260050216565016469e-05
2.449206349206349387e+00,-9.828794033013410058e-05,-3.112165012772065621e-05
2.450000000000000178e+00,-1.133496470706968172e-04,-3.543975883662535604e-05
2.450793650793650968e+00,-1.109423711219977937e-04,-3.495282312132262772e-05
2.451587301587301759e+00,-9.433371451898636966e-05,-3.046861785631386504e-05
2.452380952380952550e+00,-6.894816297516568899e-05,-2.386607004515389291e-05
2.453174603174603341e+00,-4.088662772062285104e-05,-1.742951352918045783e-05
2.453968253968254132e+00,-1.539823396774777793e-05,-1.309627047800254378e-05
2.454761904761904923e+00,4.254395297034369704e-06,-1.185862440053140375e-05
2.455555555555555713e+00,1.718648462306546074e-05,-1.349112807675107182e-05
2.456349206349206504e+00,2.444822636092404761e-05,-1.666377105736324156e-05
2.457142857142857295e+00,2.798907574453512442e-05,-1.938532402434041453e-05
2.457936507936508086e+00,2.950875214744526787e-05,-1.963125369714807623e-05
2.458730158730158877e+00,2.968564642001257108e-05,-1.596919891457185525e-05
2.459523809523809668e+00,2.805562613682792758e-05,-8.007432862724271372e-06
2.460317460317460458e+00,2.349960220113824606e-05,3.452797460117221630e-06
2.461111111111111249e+00,1.505393121196862772e-05,1.659922588582592152e-05
2.461904761904762040e+00,2.674889086566653619e-06,2.907400487210535703e-05
2.462698412698412831e+00,-1.234578986150853146e-05,3.859338472871628003e-05
2.463492063492063622e+00,-2.746611310153721403e-05,4.354472084359072535e-05
2.464285714285714413e+00,-3.945353531767010493e-05,4.338303933047900612e-05
2.465079365079365203e+00,-4.523313864753225594e-05,3.870254915631040119e-05
2.465873015873015994e+00,-4.274085263452036802e-05,3.096021610287165600e-05
2.466666666666666785e+00,-3.150195655467536208e-05,2.195164699916560844e-05
2.467460317460317576e+00,-1.276517918665573974e-05,1.323365359859830051e-05
2.468253968253968367e+00,1.081102589284766889e-05,5.704055887879552991e-06
2.469047619047619158e+00,3.578441340695836663e-05,-5.228079148015940875e-07
2.469841269841269948e+00,5.867419586285757701e-05,-5.928480125629140368e-06
2.470634920634920739e+00,7.664428381167936500e-05,-1.118918167981040776e-05
2.471428571428571530e+00,8.797581356570526642e-05,-1.672699217195994221e-05
2.472222222222222321e+00,9.221696391723025420e-05,-2.238572439235856027e-05
2.473015873015873112e+00,8.996851860977945938e-05,-2.735388637763470549e-05
2.473809523809523903e+00,8.238788241980818557e-05,-3.037034961606787951e-05
2.474603174603174693e+00,7.062744272588396168e-05,-3.015320248856655420e-05
2.475396825396825484e+00,5.547680438010977027e-05,-2.591432796424439824e-05
2.476190476190476275e+00,3.739663156020978178e-05,-1.777992618476680360e-05
2.476984126984127066e+00,1.693926939229365415e-05,-6.948212511015278768e-06
2.477777777777777857e+00,-4.663811970593423808e-06,4.508588785344592267e-06
2.478571428571428648e+00,-2.510204211864876632e-05,1.416566376952126315e-05
2.479365079365079438e+00,-4.110489724909104986e-05,1.993174239397935309e-05
2.480158730158730229e+00,-4.921578959630246083e-05,2.066947793475918023e-05
2.480952380952381020e+00,-4.704873641253685393e-05,1.653483652528859842e-05
2.481746031746031811e+00,-3.456367425492604920e-05,8.916084595207494467e-06
2.482539682539682602e+00,-1.476743852067842450e-05,-8.889621080894039150e-09
2.483333333333333393e+00,6.614878734281769021e-06,-7.946643676368512596e-06
2.484126984126984183e+00,2.256626473408019498e-05,-1.316222498907581693e-05
2.484920634920634974e+00,2.689639501113278290e-05,-1.492328142700032313e-05
2.485714285714285765e+00,1.631422208165388187e-05,-1.357534006627091220e-05
2.486507936507936556e+00,-8.318063322499679737e-06,-1.025512510247186519e-05
2.487301587301587347e+00,-4.203949105275165169e-05,-6.383661618376730472e-06
2.488095238095238138e+00,-7.715645455776607949e-05,-3.147338777855922427e-06
2.488888888888888928e+00,-1.054347109358155148e-04,-1.154051591402548109e-06
2.489682539682539719e+00,-1.203496804738092812e-04,-3.620361024911574273e-07
2.490476190476190510e+00,-1.186685541448348735e-04,-2.625357515647488539e-07
2.491269841269841301e+00,-1.009568700243006233e-04,-2.031055629399016578e-07
2.492063492063492092e+00,-7.102336150971184231e-05,2.962928411152306770e-07
2.492857142857142883e+00,-3.464518926550106938e-05,1.351807841329565785e-06
2.493650793650793673e+00,1.951396409300998730e-06,2.697553285216704555e-06
2.494444444444444464e+00,3.342773217937512981e-05,3.818896452414716037e-06
2.495238095238095255e+00,5.621019132689604334e-05,4.167911269928584910e-06
2.496031746031746046e+00,6.880722398309392011e-05,3.377717915103675298e-06
2.496825396825396837e+00,7.161665116129383075e-05,1.409311162334319078e-06
2.497619047619047628e+00,6.638262930941389486e-05,-1.400691551681504438e-06
2.498412698412698418e+00,5.552052216985699917e-05,-4.389434295345537198e-06
2.499206349206349209e+00,4.152870696656668138e-05,-6.695364622491699322e-06
2.500000000000000000e+00,2.664131543865465957e-05,-7.443277542625584244e-06
2.500793650793650791e+00,1.275659345003551157e-05,-5.964293458277727277e-06
2.501587301587301582e+00,1.546489455560018488e-06,-2.014657845489056740e-06
2.502380952380952372e+00,-5.426547337966922551e-06,4.062300529838323503e-06
2.503174603174603163e+00,-6.752738107266840800e-06,1.129522167747390947e-05
2.503968253968253954e+00,-1.455596401029165944e-06,1.821170042094233759e-05
2.504761904761904745e+00,1.054761908022149509e-05,2.313620687925035049e-05
2.505555555555555536e+00,2.798812991891106531e-05,2.460580242988731294e-05
2.506349206349206327e+00,4.803196983010305453e-05,2.180195734901701349e-05
2.507142857142857117e+00,6.650932030858713179e-05,1.487272363156251266e-05
2.507936507936507908e+00,7.864547556699682390e-05,5.033261779890051317e-06
2.508730158730158699e+00,8.016317074315652282e-05,-5.612428555376921373e-06
2.509523809523809490e+00,6.846296308288265880e-05,-1.450633971060943827e-05
2.510317460317460281e+00,4.351542531651999868e-05,-1.923202559245076757e-05
2.511111111111111072e+00,8.148589876399688078e-06,-1.813069755214083989e-05
2.511904761904761862e+00,-3.241823945100478062e-05,-1.078732573107760039e-05
2.512698412698412653e+00,-7.170417699247056905e-05,1.744790744492346683e-06
2.513492063492063444e+00,-1.034442860136380469e-04,1.706412935695913267e-05
2.514285714285714235e+00,-1.229797730584064087e-04,3.188795183251390427e-05
2.515079365079365026e+00,-1.281644764487818776e-04,4.276849233936257159e-05
2.515873015873015817e+00,-1.195693367089555238e-04,4.688057297367553654e-05
2.516666666666666607e+00,-1.000050472684675847e-04,4.268098567962082810e-05
2.517460317460317398e+00,-7.358746163738613970e-05,3.027887321194603270e-05
2.518253968253968189e+00,-4.467338348451649159e-05,1.142865671524140794e-05
2.519047619047618980e+00,-1.697715385687447275e-05,-1.085793430555378260e-05
2.519841269841269771e+00,6.933468638833491997e-06,-3.298907921976412274e-05
2.520634920634920562e+00,2.571854905218483442e-05,-5.157592262222677993e-05
2.521428571428571352e+00,3.902118337823852923e-05,-6.409559914595588665e-05
2.522222222222222143e+00,4.707425404312676897e-05,-6.926096874022392785e-05
2.523015873015872934e+00,5.033875519311425912e-05,-6.705492039336480650e-05
2.523809523809523725e+00,4.929081619874792208e-05,-5.851284698285888068e-05
2.524603174603174516e+00,4.438269800456293835e-05,-4.538305396255927016e-05
2.525396825396825307e+00,3.612437683074221697e-05,-2.976381121256151336e-05
2.526190476190476097e+00,2.519567823901393069e-05,-1.376610840295017021e-05
2.526984126984126888e+00,1.250869209487069957e-05,7.718635251062702422e-07
2.527777777777777679e+00,-8.205120289520076772e-07,1.249365461800861923e-05
2.528571428571428470e+00,-1.358752295847912375e-05,2.064045125294227225e-05
2.529365079365079261e+00,-2.466736915194781625e-05,2.508125521900955048e-05
2.530158730158730052e+00,-3.318440837078268465e-05,2.628388713361356086e-05
2.530952380952380842e+00,-3.863414021991920213e-05,2.524963598928314071e-05
2.531746031746031633e+00,-4.092029505042375093e-05,2.341274362861094430e-05
2.532539682539682424e+00,-4.029725482012627355e-05,2.248713339833643095e-05
2.533333333333333215e+00,-3.724108707799639572e-05,2.424242886674022259e-05
2.534126984126984006e+00,-3.229808291325273530e-05,3.020802435539842801e-05
2.534920634920634797e+00,-2.596331957985296309e-05,4.132703581318642713e-05
2.535714285714285587e+00,-1.862078903252188379e-05,5.760507255251421640e-05
2.536507936507936378e+00,-1.054595247451909449e-05,7.782109274058422710e-05
2.537301587301587169e+00,-1.952668907650416622e-06,9.938679981355831952e-05
2.538095238095237960e+00,6.932775443420253595e-06,1.184517956423956447e-04
2.538888888888888751e+00,1.577962546959593219e-05,1.303428482019933492e-04
2.539682539682539542e+00,2.405402732044146214e-05,1.303727038861481437e-04
2.540476190476190332e+00,3.094335113033234145e-05,1.149357013570337258e-04
2.541269841269841123e+00,3.535537191260564814e-05,8.265256708076322795e-05
2.542063492063491914e+00,3.605086047552525334e-05,3.522036081128180382e-05
2.542857142857142705e+00,3.194108462564021321e-05,-2.236574631202288289e-05
2.543650793650793496e+00,2.251595814683315905e-05,-8.242634215544671615e-05
2.544444444444444287e+00,8.284015418296651725e-06,-1.360438861966048669e-04
2.545238095238095077e+00,-8.953622077195460963e-06,-1.750660343313073899e-04
2.546031746031745868e+00,-2.616262025883879177e-05,-1.941295067303562950e-04
2.546825396825396659e+00,-3.954396559812943963e-05,-1.920506545064949331e-04
2.547619047619047450e+00,-4.534493219565041559e-05,-1.720615893598622824e-04
2.548412698412698241e+00,-4.080630333212370992e-05,-1.407392851850378795e-04
2.549206349206349032e+00,-2.496011167055463408e-05,-1.059445614200941712e-04
2.549999999999999822e+00,9.843214907136647187e-07,-7.446295432059945240e-05
2.550793650793650613e+00,3.379530152684476338e-05,-5.015581154666120861e-05
2.551587301587301404e+00,6.885492048502628347e-05,-3.323785935450883854e-05
2.552380952380952195e+00,1.010670973612245104e-04,-2.087695054661235669e-05
2.553174603174602986e+00,1.257846695837271827e-04,-8.822544096087008597e-06
2.553968253968253777e+00,1.395513305729444717e-04,6.606068958961491237e-06
2.554761904761904567e+00,1.405343245453829929e-04,2.694934657117412213e-05
2.555555555555555358e+00,1.286032704784450360e-04,5.101553269770937404e-05
2.556349206349206149e+00,1.050967353692596785e-04,7.537969831987020235e-05
2.557142857142856940e+00,7.240404953097747081e-05,9.563072623003826848e-05
2.557936507936507731e+00,3.353180103619725415e-05,1.077837605786836466e-04
2.558730158730158522e+00,-8.211466795127094756e-06,1.093347369349565058e-04
2.559523809523809312e+00,-4.937526959234377717e-05,9.969936857296798536e-05
2.560317460317460103e+00,-8.643849068370696527e-05,8.007430515322576012e-05
2.561111111111110894e+00,-1.159192268968577334e-04,5.294185381718962536e-05
2.561904761904761685e+00,-1.346409740007538554e-04,2.147048220082675276e-05
2.562698412698412920e+00,-1.401946927867765745e-04,-1.101063264169018554e-05
2.563492063492063711e+00,-1.315209142524548713e-04,-4.138053340825443568e-05
2.564285714285714501e+00,-1.094332726127396815e-04,-6.692210232152438906e-05
2.565079365079365292e+00,-7.685721034912746589e-05,-8.537418678294135391e-05
2.565873015873016083e+00,-3.858938679985651407e-05,-9.492461166237308259e-05
2.566666666666666874e+00,-5.043297935094724842e-07,-9.426680920183193367e-05
2.567460317460317665e+00,3.167214313497756871e-05,-8.281272604836831068e-05
2.568253968253968456e+00,5.370423577139316491e-05,-6.105153750366566290e-05
2.569047619047619246e+00,6.387734368052361375e-05,-3.091759136387892918e-05
2.569841269841270037e+00,6.335187321628101855e-05,4.055320928640985040e-06
2.570634920634920828e+00,5.568859322458982535e-05,3.900695126142964512e-05
2.571428571428571619e+00,4.568578034824037187e-05,6.853436113037517465e-05
2.572222222222222410e+00,3.791293474909769058e-05,8.785877823952097457e-05
2.573015873015873201e+00,3.541832382744088776e-05,9.404555208942889997e-05
2.573809523809523991e+00,3.899492923116654089e-05,8.684664845041616739e-05
2.574603174603174782e+00,4.716754975759598450e-05,6.880374742354738202e-05
2.575396825396825573e+00,5.681572597796672483e-05,4.449801013605958727e-05
2.576190476190476364e+00,6.416329587179887850e-05,1.917012030769206290e-05
2.576984126984127155e+00,6.579879571757074152e-05,-2.802232940961335905e-06
2.577777777777777946e+00,5.945276511396355184e-05,-1.902085998872578144e-05
2.578571428571428736e+00,4.440546072588514947e-05,-2.938480173906951422e-05
2.579365079365079527e+00,2.154329148415311907e-05,-3.551357508761643404e-05
2.580158730158730318e+00,-6.849357510757079997e-06,-3.951210919072876211e-05
2.580952380952381109e+00,-3.748269624559640533e-05,-4.257342352219021912e-05
2.581746031746031900e+00,-6.657759216518203884e-05,-4.400778782058634262e-05
2.582539682539682691e+00,-9.043351711398840915e-05,-4.116053156114437048e-05
2.583333333333333481e+00,-1.059585815968174633e-04,-3.036139247144476077e-05
2.584126984126984272e+00,-1.110927499744418018e-04,-8.640114672801365531e-06
2.584920634920635063e+00,-1.051135470889279065e-04,2.440813054615677456e-05
2.585714285714285854e+00,-8.884800862226482205e-05,6.537214314870428572e-05
2.586507936507936645e+00,-6.477476807343223494e-05,1.070089475197222182e-04
2.587301587301587436e+00,-3.691757370039118127e-05,1.396727990388853236e-04
2.588095238095238226e+00,-1.039872472604466000e-05,1.538698134837491126e-04
2.588888888888889017e+00,9.405914904123436289e-06,1.431641301269877850e-04
2.589682539682539808e+00,1.802315637225890515e-05,1.064488189430144575e-04
2.590476190476190599e+00,1.311921972331539968e-05,4.873410804997567577e-05
2.591269841269841390e+00,-4.510385658362813338e-06,-1.990024073797808115e-05
2.592063492063492181e+00,-3.055704391727550234e-05,-8.686138297502285000e-05
2.592857142857142971e+00,-5.771371890477496503e-05,-1.402272581029422418e-04
2.593650793650793762e+00,-7.717346780024748768e-05,-1.715169053233308444e-04
2.594444444444444553e+00,-8.087049292950570178e-05,-1.772733186763116660e-04
2.595238095238095344e+00,-6.389712197000221503e-05,-1.591817967266028974e-04
2.596031746031746135e+00,-2.636418098221207987e-05,-1.229290194304671110e-04
2.596825396825396925e+00,2.594345530442752754e-05,-7.632295578590076119e-05
2.597619047619047716e+00,8.245061054702855507e-05,-2.729576097317250866e-05
2.598412698412698507e+00,1.301080520225654361e-04,1.767407064212493897e-05
2.599206349206349298e+00,1.566007128636320140e-04,5.439991935525801119e-05
2.600000000000000089e+00,1.536134405117208315e-04,8.104006079930849615e-05
2.600793650793650880e+00,1.192584002246432917e-04,9.756970393619447809e-05
2.601587301587301670e+00,5.896037078104972789e-05,1.050149732047219234e-04
2.602380952380952461e+00,-1.551132083311473878e-05,1.047710718940582424e-04
2.603174603174603252e+00,-8.868421042586079766e-05,9.817218431326648015e-05
2.603968253968254043e+00,-1.450508295684649492e-04,8.628998893492699073e-05
2.604761904761904834e+00,-1.728021202345725728e-04,6.983711815564747278e-05
2.605555555555555625e+00,-1.666088098213754597e-04,4.910878360901580137e-05
2.606349206349206415e+00,-1.286857477349943836e-04,2.403838681187128669e-05
2.607142857142857206e+00,-6.788701788676712275e-05,-5.496178373662756059e-06
2.607936507936507997e+00,2.806438948974887672e-06,-3.909038410218330754e-05
2.608730158730158788e+00,6.956275493812992278e-05,-7.513022495287045269e-05
2.609523809523809579e+00,1.207456759526835259e-04,-1.103212816605347423e-04
2.610317460317460370e+00,1.489663554137037266e-04,-1.397402877494204152e-04
2.611111111111111160e+00,1.518257705314137026e-04,-1.575780368230896499e-04
2.611904761904761951e+00,1.314713757844882458e-04,-1.584886614007723440e-04
2.612698412698412742e+00,9.336642317988528552e-05,-1.391755856656132911e-04
2.613492063492063533e+00,4.476287560519231118e-05,-9.967848874618607700e-05
2.614285714285714324e+00,-6.688036965481184496e-06,-4.389878507159571689e-05
2.615079365079365115e+00,-5.392993754454815223e-05,2.081646443913869312e-05
2.615873015873015905e+00,-9.107694650942460958e-05,8.489137951545230583e-05
2.616666666666666696e+00,-1.137287529372225860e-04,1.382095012467440668e-04
2.617460317460317487e+00,-1.192190151579610526e-04,1.719290414602635535e-04
2.618253968253968278e+00,-1.068879916295618519e-04,1.801469200611757174e-04
2.619047619047619069e+00,-7.831826016177464219e-05,1.611676513764238384e-04
2.619841269841269860e+00,-3.736868560092851968e-05,1.181159422459904500e-04
2.620634920634920650e+00,1.016266973364006079e-05,5.864688400594180611e-05
2.621428571428571441e+00,5.732422570075536240e-05,-6.352289784904556163e-06
2.622222222222222232e+00,9.717235166780317866e-05,-6.490493407791157678e-05
2.623015873015873023e+00,1.240738837356316466e-04,-1.064676049934851009e-04
2.623809523809523814e+00,1.347929926467456507e-04,-1.241804758352722197e-04
2.624603174603174605e+00,1.289920854405228760e-04,-1.162281274498742076e-04
2.625396825396825395e+00,1.089298670841487305e-04,-8.596274722718113268e-05
2.626190476190476186e+00,7.843682376100961993e-05,-4.083960361937971297e-05
2.626984126984126977e+00,4.155747399539488381e-05,9.441411394898538027e-06
2.627777777777777768e+00,1.408717588280160822e-06,5.505015506108649874e-05
2.628571428571428559e+00,-4.026861012521504762e-05,8.792227749124671265e-05
2.629365079365079350e+00,-8.266557934548839418e-05,1.031210049360115646e-04
2.630158730158730140e+00,-1.247510864375661556e-04,9.948731953119870563e-05
2.630952380952380931e+00,-1.639380764973255382e-04,7.949954958275376926e-05
2.631746031746031722e+00,-1.952668813474044921e-04,4.837422509763852137e-05
2.632539682539682513e+00,-2.116859815450079275e-04,1.260028862955815874e-05
2.633333333333333304e+00,-2.056121397747141376e-04,-2.172668780259702384e-05
2.634126984126984095e+00,-1.714018630845090888e-04,-5.030096296060988185e-05
2.634920634920634885e+00,-1.078901862556026146e-04,-7.131008470897810640e-05
2.635714285714285676e+00,-1.997886330975233386e-05,-8.523726581567906270e-05
2.636507936507936467e+00,8.149787642781600487e-05,-9.388735073408483226e-05
2.637301587301587258e+00,1.817957653959605363e-04,-9.908083118603854206e-05
2.638095238095238049e+00,2.656023379366925547e-04,-1.016036286307051581e-04
2.638888888888888840e+00,3.205918608397744711e-04,-1.008706401114455264e-04
2.639682539682539630e+00,3.400155716676752640e-04,-9.540926541871629627e-05
2.640476190476190421e+00,3.235855766611269303e-04,-8.387155074585801436e-05
2.641269841269841212e+00,2.766177949535516059e-04,-6.603868703674221528e-05
2.642063492063492003e+00,2.080137509086363258e-04,-4.330797235106826449e-05
2.642857142857142794e+00,1.279278784416137309e-04,-1.842930160107438228e-05
2.643650793650793585e+00,4.585726030279402721e-05,5.370235179549836700e-06
2.644444444444444375e+00,-3.045620431528022092e-05,2.546684551542628531e-05
2.645238095238095166e+00,-9.531785787548556997e-05,4.066520474736828850e-05
2.646031746031745957e+00,-1.448638182575777281e-04,5.144879440022130375e-05
2.646825396825396748e+00,-1.767306454129042431e-04,5.957705824338297860e-05
2.647619047619047539e+00,-1.899102293113441944e-04,6.719432655083617026e-05
2.648412698412698330e+00,-1.848798945696872233e-04,7.578819935360559066e-05
2.649206349206349120e+00,-1.638889839836023081e-04,8.539236207648306552e-05
2.649999999999999911e+00,-1.311616240466721391e-04,9.435275277760413431e-05
2.650793650793650702e+00,-9.276472701010819667e-05,9.978116908827349243e-05
2.651587301587301493e+00,-5.596902389968256560e-05,9.856267499114356823e-05
2.652380952380952284e+00,-2.807492057427833567e-05,8.855740023119592198e-05
2.653174603174603075e+00,-1.486630361119575095e-05,6.954500401964967024e-05
2.653968253968253865e+00,-1.905249360730970268e-05,4.355210096418703572e-05
2.654761904761904656e+00,-3.918111565688816320e-05,1.444104751353543343e-05
2.655555555555555447e+00,-6.946911902643246339e-05,-1.308639659277193172e-05
2.656349206349206238e+00,-1.007795906628645852e-04,-3.472126490651015470e-05
2.657142857142857029e+00,-1.226317254174099508e-04,-4.761350603062582180e-05
2.657936507936507819e+00,-1.257950383616091071e-04,-5.095671097545961538e-05
2.658730158730158610e+00,-1.048074630201108740e-04,-4.595637159370468474e-05
2.659523809523809401e+00,-5.973308145910228651e-05,-3.525706184954731874e-05
2.660317460317460192e+00,3.366437123191367778e-06,-2.207148809464892607e-05
2.661111111111110983e+00,7.347461253329883068e-05,-9.317353046964136173e-06
2.661904761904761774e+00,1.370192985169181317e-04,9.867957712765622201e-07
2.662698412698412564e+00,1.810723540354984313e-04,7.945139984761611952e-06
2.663492063492063355e+00,1.965085333561956580e-04,1.164741219070597743e-05
2.664285714285714146e+00,1.802458212855443667e-04,1.279619752299205144e-05
2.665079365079364937e+00,1.359508623742846376e-04,1.226738538668533075e-05
2.665873015873015728e+00,7.305646058674714071e-05,1.075178291015579410e-05
2.666666666666666519e+00,4.419409525696124839e-06,8.566377166200856306e-06
2.667460317460317309e+00,-5.671281717599891477e-05,5.659206889234250205e-06
2.668253968253968100e+00,-9.963083099216085887e-05,1.776670390613372581e-06
2.669047619047618891e+00,-1.182775289343308432e-04,-3.284599914036527207e-06
2.669841269841269682e+00,-1.120970817779811231e-04,-9.446941054051469301e-06
2.670634920634920473e+00,-8.553202284198997110e-05,-1.623607401635053532e-05
2.671428571428571264e+00,-4.644790738697547779e-05,-2.282292126001987911e-05
2.672222222222222054e+00,-4.015880924475704504e-06,-2.819831169937977745e-05
2.673015873015872845e+00,3.336167185227532575e-05,-3.140782795141912087e-05
2.673809523809523636e+00,5.962892647651732962e-05,-3.176701405297763594e-05
2.674603174603174427e+00,7.192608890967130768e-05,-2.900771561830357641e-05
2.675396825396825218e+00,7.067899820871042247e-05,-2.334224063454519584e-05
2.676190476190476009e+00,5.902559204104559465e-05,-1.544545442791153507e-05
2.676984126984126799e+00,4.175287710760956783e-05,-6.352765267983743937e-06
2.677777777777777590e+00,2.398244495643897837e-05,2.722683570776288020e-06
2.678571428571428381e+00,9.896866333327522877e-06,1.063035009671858986e-05
2.679365079365079172e+00,1.805924325939816916e-06,1.653038400801373439e-05
2.680158730158729963e+00,-2.239856317469318273e-07,2.007825575766351820e-05
2.680952380952380754e+00,1.895401453754817498e-06,2.147564726529813917e-05
2.681746031746031544e+00,5.069213244729475649e-06,2.135505105576562113e-05
2.682539682539682335e+00,6.087659004281374299e-06,2.052957154453107953e-05
2.683333333333333126e+00,2.633843897478812882e-06,1.969691291239615273e-05
2.684126984126983917e+00,-6.077957139787485402e-06,1.920827155153338194e-05
2.684920634920634708e+00,-1.921229369708743430e-05,1.898619213121389694e-05
2.685714285714285499e+00,-3.474900043856730942e-05,1.860617368486608154e-05
2.686507936507936289e+00,-5.023088973238971146e-05,1.747804928732585268e-05
2.687301587301587080e+00,-6.350759288247976469e-05,1.502756569599421052e-05
2.688095238095238315e+00,-7.319959336165152207e-05,1.081486903499887854e-05
2.688888888888889106e+00,-7.875914305712686367e-05,4.601893485682089287e-06
2.689682539682539897e+00,-8.019136944977733547e-05,-3.577284151985005546e-06
2.690476190476190688e+00,-7.763504332690418248e-05,-1.331990261369765212e-05
2.691269841269841478e+00,-7.103980604385829551e-05,-2.377454173840952303e-05
2.692063492063492269e+00,-6.011125302414543279e-05,-3.364822440322175374e-05
2.692857142857143060e+00,-4.455730284270769878e-05,-4.133657529252429696e-05
2.693650793650793851e+00,-2.451562767692560413e-05,-4.516224946348609500e-05
2.694444444444444642e+00,-9.438523924845988445e-07,-4.368779905778200860e-05
2.695238095238095433e+00,2.423792753426374890e-05,-3.607118608973825799e-05
2.696031746031746223e+00,4.835610779894251128e-05,-2.241296471064494408e-05
2.696825396825397014e+00,6.850144321576549420e-05,-3.998413087047263859e-06
2.697619047619047805e+00,8.219400778790605488e-05,1.668773314582448045e-05
2.698412698412698596e+00,8.798079937316987905e-05,3.625449849717858321e-05
2.699206349206349387e+00,8.577552406558633499e-05,5.098032316782256332e-05
2.700000000000000178e+00,7.683978372424996766e-05,5.753317815024684630e-05
2.700793650793650968e+00,6.342846887072473331e-05,5.364988689779547369e-05
2.701587301587301759e+00,4.823154804678918376e-05,3.863011871316596012e-05
2.702380952380952550e+00,3.379584985996151599e-05,1.357824135975628234e-05
2.703174603174603341e+00,2.208680758675970153e-05,-1.862579298187686067e-05
2.703968253968254132e+00,1.427009214677596356e-05,-5.363619088078486479e-05
2.704761904761904923e+00,1.070216796872638968e-05,-8.623012367336478179e-05
2.705555555555555713e+00,1.106238634065955084e-05,-1.111276413479181277e-04
2.706349206349206504e+00,1.455099435165032950e-05,-1.239156931065313382e-04
2.707142857142857295e+00,2.009556421665788470e-05,-1.218745381395757262e-04
2.707936507936508086e+00,2.652597142711150217e-05,-1.044915975466005923e-04
2.708730158730158877e+00,3.269133562010596204e-05,-7.352932632078478599e-05
2.709523809523809668e+00,3.751386154787546577e-05,-3.265816920487602670e-05
2.710317460317460458e+00,4.000649339103977159e-05,1.320319022554194150e-05
2.711111111111111249e+00,3.930514779473962613e-05,5.864136880691385152e-05
2.711904761904762040e+00,3.476015701504423557e-05,9.842762067474095772e-05
2.712698412698412831e+00,2.609359971940744812e-05,1.280436371811544854e-04
2.713492063492063622e+00,1.358024259221093104e-05,1.440686134199634690e-04
2.714285714285714413e+00,-1.824819724948001666e-06,1.444940322296448996e-04
2.715079365079365203e+00,-1.849470256003470136e-05,1.290172674018589985e-04
2.715873015873015994e+00,-3.433081421773164697e-05,9.928935950652573595e-05
2.716666666666666785e+00,-4.714843365548854968e-05,5.899871523754787858e-05
2.717460317460317576e+00,-5.515890305989730425e-05,1.362672843331475705e-05
2.718253968253968367e+00,-5.739325009231434799e-05,-3.023952030144508592e-05
2.719047619047619158e+00,-5.391310247844052534e-05,-6.601109095997856498e-05
2.719841269841269948e+00,-4.574317933410441630e-05,-8.840358316687241789e-05
2.720634920634920739e+00,-3.458856774067296406e-05,-9.457707249611583991e-05
2.721428571428571530e+00,-2.247939228102389028e-05,-8.472001361464054489e-05
2.722222222222222321e+00,-1.146176463828528826e-05,-6.186000639211489929e-05
2.723015873015873112e+00,-3.362728486588708019e-06,-3.097987238397125788e-05
2.723809523809523903e+00,4.151852744144296197e-07,2.230448895741968548e-06
2.724603174603174693e+00,-8.869361781790818025e-07,3.257223814862230868e-05
2.725396825396825484e+00,-7.167098100176146270e-06,5.616359521529015931e-05
2.726190476190476275e+00,-1.732309751530507224e-05,7.076108168484704657e-05
2.726984126984127066e+00,-2.928478870395916377e-05,7.564641406940052605e-05
2.727777777777777857e+00,-4.027647443090582837e-05,7.127429818525512898e-05
2.728571428571428648e+00,-4.730020743760573240e-05,5.889062870820724723e-05
2.729365079365079438e+00,-4.775965206173225401e-05,4.025277038292598378e-05
2.730158730158730229e+00,-4.009451169512020092e-05,1.747687902462151090e-05
2.730952380952381020e+00,-2.427958848934003849e-05,-7.048069972497444912e-06
2.731746031746031811e+00,-2.059225895369267119e-06,-3.077459913986664645e-05
2.732539682539682602e+00,2.317082443272569108e-05,-5.120356252417201595e-05
2.733333333333333393e+00,4.686361301737187860e-05,-6.617031210959677839e-05
2.734126984126984183e+00,6.415965171672284497e-05,-7.413386729643299826e-05
2.734920634920634974e+00,7.093316758648683597e-05,-7.439206989297900672e-05
2.735714285714285765e+00,6.482569503018142856e-05,-6.718994448814177281e-05
2.736507936507936556e+00,4.599108272269077210e-05,-5.372270370181180611e-05
2.737301587301587347e+00,1.730244302859333509e-05,-3.603587627989549090e-05
2.738095238095238138e+00,-1.610009580781292119e-05,-1.681444453904510980e-05
2.738888888888888928e+00,-4.785094366616161492e-05,9.465051045674852319e-07
2.739682539682539719e+00,-7.174229634981849665e-05,1.438392664507835863e-05
2.740476190476190510e+00,-8.310003916828702256e-05,2.129099667483594905e-05
2.741269841269841301e+00,-7.980456624701203123e-05,2.064727301541586832e-05
2.742063492063492092e+00,-6.270801124313821228e-05,1.301972050685081886e-05
2.742857142857142883e+00,-3.536589807085393421e-05,6.670204313261897691e-07
2.743650793650793673e+00,-3.182542684465942512e-06,-1.277938187330431076e-05
2.744444444444444464e+00,2.779163632972731244e-05,-2.306290904923991952e-05
2.745238095238095255e+00,5.211307985964373307e-05,-2.632790738995825978e-05
2.746031746031746046e+00,6.597130735703658679e-05,-2.015232892436011653e-05
2.746825396825396837e+00,6.778881219150068157e-05,-4.283352876707060846e-06
2.747619047619047628e+00,5.830469232257755199e-05,1.915073095799300112e-05
2.748412698412698418e+00,4.017619090613809584e-05,4.601831561966736322e-05
2.749206349206349209e+00,1.724524906360744742e-05,7.103692713852415919e-05
2.750000000000000000e+00,-6.315654542409487070e-06,8.886079971945363618e-05
2.750793650793650791e+00,-2.676362019641502821e-05,9.514173370713708167e-05
2.751587301587301582e+00,-4.129931545065440687e-05,8.736417723932068545e-05
2.752380952380952372e+00,-4.828758408215741644e-05,6.534348727627717671e-05
2.753174603174603163e+00,-4.724470287056294380e-05,3.134277317930515231e-05
2.753968253968253954e+00,-3.870997601333585754e-05,-1.019590681764952152e-05
2.754761904761904745e+00,-2.410074480733295164e-05,-5.327613057991039926e-05
2.755555555555555536e+00,-5.580201702148957506e-06,-9.125425109069848961e-05
2.756349206349206327e+00,1.410260666726261412e-05,-1.179049677019342653e-04
2.757142857142857117e+00,3.187664772005366310e-05,-1.284797757055738314e-04
2.757936507936507908e+00,4.478098293283737917e-05,-1.205780686657602758e-04
2.758730158730158699e+00,5.056480718631735144e-05,-9.466698271377013208e-05
2.759523809523809490e+00,4.834306941904292321e-05,-5.413061040261763016e-05
2.760317460317460281e+00,3.907673651994324296e-05,-4.802230203344262913e-06
2.761111111111111072e+00,2.560145778734395963e-05,4.596938057960522434e-05
2.761904761904761862e+00,1.202727192850361005e-05,9.056516512082133773e-05
2.762698412698412653e+00,2.570312637342935875e-06,1.224172959922891542e-04
2.763492063492063444e+00,1.535458788939310685e-07,1.371402331564369791e-04
2.764285714285714235e+00,5.282706350637846092e-06,1.332372137484980393e-04
2.765079365079365026e+00,1.566540656777559056e-05,1.122396752092366472e-04
2.765873015873015817e+00,2.679552145145961144e-05,7.826629429870212004e-05
2.766666666666666607e+00,3.336821269253094905e-05,3.712623358363294869e-05
2.767460317460317398e+00,3.106852153325508737e-05,-4.799448341492789445e-06
2.768253968253968189e+00,1.811756565365750234e-05,-4.162701571280314221e-05
2.769047619047618980e+00,-3.969798774968091410e-06,-6.877595132420965271e-05
2.769841269841269771e+00,-3.068555109079423653e-05,-8.342007084163786479e-05
2.770634920634920562e+00,-5.578292604627380492e-05,-8.461193375831714807e-05
2.771428571428571352e+00,-7.306169829419558966e-05,-7.317136995800128084e-05
2.772222222222222143e+00,-7.811537688343474575e-05,-5.143113800416755139e-05
2.773015873015872934e+00,-6.952443947853870524e-05,-2.290263330276353138e-05
2.773809523809523725e+00,-4.918198226999171313e-05,8.114314645137978325e-06
2.774603174603174516e+00,-2.170997060253718021e-05,3.698687909898458779e-05
2.775396825396825307e+00,6.815588262923851637e-06,5.928710247028990646e-05
2.776190476190476097e+00,3.043595448491802629e-05,7.139767891879830394e-05
2.776984126984126888e+00,4.473711127825425246e-05,7.111497433283619747e-05
2.777777777777777679e+00,4.777950236739570702e-05,5.812876491986051450e-05
2.778571428571428470e+00,4.034956209397682839e-05,3.423258577476324287e-05
2.779365079365079261e+00,2.554282315033212412e-05,3.130460001663006984e-06
2.780158730158730052e+00,7.835788512980782254e-06,-3.021997290342201976e-05
2.780952380952380842e+00,-8.113493607317759867e-06,-6.064107508474337238e-05
2.781746031746031633e+00,-1.866285937774846287e-05,-8.388479914400388587e-05
2.782539682539682424e+00,-2.210474515677052321e-05,-9.753375427540391166e-05
2.783333333333333215e+00,-1.906413197422179588e-05,-1.013419305727057842e-04
2.784126984126984006e+00,-1.223487608058708193e-05,-9.691068663997077159e-05
2.784920634920634797e+00,-5.488914956554427658e-06,-8.685563581519475896e-05
2.785714285714285587e+00,-2.597531269787303933e-06,-7.380278251691600657e-05
2.786507936507936378e+00,-5.952498421898010210e-06,-5.958299799358071316e-05
2.787301587301587169e+00,-1.569203926597992425e-05,-4.487921725154929209e-05
2.788095238095237960e+00,-2.950899510117154428e-05,-2.938555299413701084e-05
2.788888888888888751e+00,-4.320356646581622278e-05,-1.234590944844729036e-05
2.789682539682539542e+00,-5.182362353370303839e-05,6.780671477298511265e-06
2.790476190476190332e+00,-5.107347349576613191e-05,2.779652396775238123e-05
2.791269841269841123e+00,-3.859811187507612349e-05,4.956757070069288862e-05
2.792063492063491914e+00,-1.477832933861853897e-05,7.019016445378872555e-05
2.792857142857142705e+00,1.719798554666235457e-05,8.742365172831314190e-05
2.793650793650793496e+00,5.201694454097878826e-05,9.921871518063336772e-05
2.794444444444444287e+00,8.347593511877741143e-05,1.041789818829443536e-04
2.795238095238095077e+00,1.059167076940337665e-04,1.018437814487437883e-04
2.796031746031745868e+00,1.154583943500934106e-04,9.273636981714977788e-05
2.796825396825396659e+00,1.107388083077620415e-04,7.817853613104379861e-05
2.797619047619047450e+00,9.305381371639662343e-05,5.993702496413015433e-05
2.798412698412698241e+00,6.594955331485773294e-05,3.982609530677255955e-05
2.799206349206349032e+00,3.441625629791015856e-05,1.940765361740085358e-05
2.799999999999999822e+00,3.865453376829667870e-06,-1.176719106222100884e-07
2.800793650793650613e+00,-2.091751929736114103e-05,-1.783180945332471726e-05
2.801587301587301404e+00,-3.664857421894305044e-05,-3.293292761949033102e-05
2.802380952380952195e+00,-4.206512349439136704e-05,-4.462380930966917654e-05
2.803174603174602986e+00,-3.797513748829441218e-05,-5.215396350666681258e-05
2.803968253968253777e+00,-2.684544956229541172e-05,-5.500717583090813934e-05
2.804761904761904567e+00,-1.208566034296399517e-05,-5.312332013811018721e-05
2.805555555555555358e+00,2.726958385637623982e-06,-4.701108262977011300e-05
2.806349206349206149e+00,1.445525545828684125e-05,-3.766515768119975486e-05
2.807142857142856940e+00,2.072963646694341646e-05,-2.631273656237636632e-05
2.807936507936507731e+00,2.002458498904773217e-05,-1.411412335783670425e-05
2.808730158730158522e+00,1.161411602602718109e-05,-1.969348534175735214e-06
2.809523809523809312e+00,-4.448061238077924515e-06,9.482268755453852207e-06
2.810317460317460103e+00,-2.724587988126633476e-05,1.969846142684523638e-05
2.811111111111110894e+00,-5.484951329207869795e-05,2.802775407863989109e-05
2.811904761904761685e+00,-8.422350993694641163e-05,3.359939330491658365e-05
2.812698412698412920e+00,-1.113493567706617542e-04,3.539239804259868759e-05
2.813492063492063711e+00,-1.316603355539170870e-04,3.247747090108005956e-05
2.814285714285714501e+00,-1.407737453524258184e-04,2.434531682950691326e-05
2.815079365079365292e+00,-1.353907488065462725e-04,1.119321204229805490e-05
2.815873015873016083e+00,-1.141592188825579551e-04,-5.946211952349604457e-06
2.816666666666666874e+00,-7.827131507701268101e-05,-2.528897897695648613e-05
2.817460317460317665e+00,-3.159449921615494199e-05,-4.457047754895088583e-05
2.818253968253968456e+00,1.978302263031079955e-05,-6.141575140885815684e-05
2.819047619047619246e+00,6.857572914635094968e-05,-7.370833905050058581e-05
2.819841269841270037e+00,1.077113256991032119e-04,-7.988498993730625095e-05
2.820634920634920828e+00,1.318001282859595244e-04,-7.912388558997096566e-05
2.821428571428571619e+00,1.382688536457713510e-04,-7.142043323530750955e-05
2.822222222222222410e+00,1.278257432717097271e-04,-5.755606782155732595e-05
2.823015873015873201e+00,1.041099092115932776e-04,-3.897352362745677088e-05
2.823809523809523991e+00,7.262960536586893624e-05,-1.758113097419757216e-05
2.824603174603174782e+00,3.932309139285301191e-05,4.486648226753848081e-06
2.825396825396825573e+00,9.193720336277983330e-06,2.512880974770329460e-05
2.826190476190476364e+00,-1.457578662637891832e-05,4.253793703659335406e-05
2.826984126984127155e+00,-3.081987571207433845e-05,5.543269477422354581e-05
2.827777777777777946e+00,-3.994475456842894884e-05,6.321504934268005820e-05
2.828571428571428736e+00,-4.310291138049718171e-05,6.599722873190879172e-05
2.829365079365079527e+00,-4.135207345252365173e-05,6.446939373769957151e-05
2.830158730158730318e+00,-3.513442240699938580e-05,5.963378421586945123e-05
2.830952380952381109e+00,-2.426876916052166344e-05,5.248803342714249956e-05
2.831746031746031900e+00,-8.435940315009616164e-06,4.376986579317827407e-05
2.832539682539682691e+00,1.207027494832954880e-05,3.385955152646827614e-05
2.833333333333333481e+00,3.567240768532308870e-05,2.287659256553604701e-05
2.834126984126984272e+00,5.924261501367121541e-05,1.092500993543263875e-05
2.834920634920635063e+00,7.842110588926689164e-05,-1.628984902643715884e-06
2.835714285714285854e+00,8.850434445417238425e-05,-1.398901341637539630e-05
2.836507936507936645e+00,8.569723034506496521e-05,-2.497268623850402107e-05
2.837301587301587436e+00,6.837443486542461445e-05,-3.327389437263695643e-05
2.838095238095238226e+00,3.792863917316875206e-05,-3.784255244015705713e-05
2.838888888888889017e+00,-1.148776010184740558e-06,-3.822336708884401907e-05
2.839682539682539808e+00,-4.208614870267899174e-05,-3.471567071983513606e-05
2.840476190476190599e+00,-7.736779105251849931e-05,-2.829749904722501954e-05
2.841269841269841390e+00,-1.005393301079854558e-04,-2.035286701363527140e-05
2.842063492063492181e+00,-1.077378932547924418e-04,-1.230763360129386530e-05
2.842857142857142971e+00,-9.851771009669848850e-05,-5.296434389172139898e-06
2.843650793650793762e+00,-7.579536371590826413e-05,4.305512464314405405e-08
2.844444444444444553e+00,-4.500526291215568316e-05,3.604213857284737239e-06
2.845238095238095344e+00,-1.274100781829750831e-05,5.689476423820043126e-06
2.846031746031746135e+00,1.476017802655064877e-05,6.796670032772368902e-06
2.846825396825396925e+00,3.293554924514613164e-05,7.398920162227144254e-06
2.847619047619047716e+00,3.973075362481325783e-05,7.792446930528146973e-06
2.848412698412698507e+00,3.578405892396588047e-05,8.055097567184446011e-06
2.849206349206349298e+00,2.395459177523084663e-05,8.118790325439995966e-06
2.850000000000000089e+00,8.357800191105525271e-06,7.916798158505510580e-06
2.850793650793650880e+00,-6.790888764239534955e-06,7.528904093483343632e-06
2.851587301587301670e+00,-1.817004688680786924e-05,7.232818099118271346e-06
2.852380952380952461e+00,-2.390100798779038149e-05,7.403055582405509744e-06
2.853174603174603252e+00,-2.355196562320463502e-05,8.279913138084346832e-06
2.853968253968254043e+00,-1.771572834186496787e-05,9.718532859263035150e-06
2.854761904761904834e+00,-7.430246850970904674e-06,1.106098273790787364e-05
2.855555555555555625e+00,6.269104101188440466e-06,1.123099988544087560e-05
2.856349206349206415e+00,2.248439579376434699e-05,9.062790765538369199e-06
2.857142857142857206e+00,4.027214953866120844e-05,3.783196172640394739e-06
2.857936507936507997e+00,5.829922009866355694e-05,-4.508803760591594083e-06
2.858730158730158788e+00,7.457454120549951828e-05,-1.456139470540109275e-05
2.859523809523809579e+00,8.646610333544533893e-05,-2.405606176659207303e-05
2.860317460317460370e+00,9.109455153828923421e-05,-3.011069482958945886e-05
2.861111111111111160e+00,8.603312957985756698e-05,-3.007426547185635454e-05
2.861904761904761951e+00,7.009737242619803847e-05,-2.234478491425121477e-05
2.862698412698412742e+00,4.393602875243196148e-05,-6.922514110475757171e-06
2.863492063492063533e+00,1.017716454205625746e-05,1.447528121922411886e-05
2.864285714285714324e+00,-2.696659059651302547e-05,3.874410014504538717e-05
2.865079365079365115e+00,-6.253409208274017690e-05,6.204469550968153588e-05
2.865873015873015905e+00,-9.183932426427326892e-05,8.059782314763723856e-05
2.866666666666666696e+00,-1.113803852084701505e-04,9.142868868183336867e-05
2.867460317460317487e+00,-1.193977886316431662e-04,9.288734555553117712e-05
2.868253968253968278e+00,-1.159857726557862978e-04,8.483250147434195454e-05
2.869047619047619069e+00,-1.028121013059732038e-04,6.847434800031508334e-05
2.869841269841269860e+00,-8.260905010173110808e-05,4.599023434089785428e-05
2.870634920634920650e+00,-5.862350368502529250e-05,2.009004821171981919e-05
2.871428571428571441e+00,-3.415815447628134263e-05,-6.324875911366670999e-06
2.872222222222222232e+00,-1.224169034910150639e-05,-3.037444126742335212e-05
2.873015873015873023e+00,4.611666218683757494e-06,-4.936610758797587637e-05
2.873809523809523814e+00,1.462101352027312851e-05,-6.104889418966921114e-05
2.874603174603174605e+00,1.697587488323921821e-05,-6.403638871056423296e-05
2.875396825396825395e+00,1.205926365748991674e-05,-5.833580799867700903e-05
2.876190476190476186e+00,1.542446455390217388e-06,-4.575392793817610777e-05
2.876984126984126977e+00,-1.179638689948508926e-05,-2.987193001822464888e-05
2.877777777777777768e+00,-2.461186220355582048e-05,-1.538296030664659673e-05
2.878571428571428559e+00,-3.381460702972718263e-05,-6.860939096109626579e-06
2.879365079365079350e+00,-3.743178000447454465e-05,-7.338928041789257379e-06
2.880158730158730140e+00,-3.517563785340169685e-05,-1.723684801594136201e-05
2.880952380952380931e+00,-2.845779035008357550e-05,-3.409490674106083229e-05
2.881746031746031722e+00,-1.979375927730911503e-05,-5.328150966296938708e-05
2.882539682539682513e+00,-1.180748517929792240e-05,-6.947342054391455600e-05
2.883333333333333304e+00,-6.241027456351297291e-06,-7.838682842085741660e-05
2.884126984126984095e+00,-3.387539958407582160e-06,-7.810717625643718263e-05
2.884920634920634885e+00,-2.171574158114508430e-06,-6.951741899583494064e-05
2.885714285714285676e+00,-7.952641270549603986e-07,-5.570897952992548294e-05
2.886507936507936467e+00,2.386847411436641561e-06,-4.067504393889890537e-05
2.887301587301587258e+00,8.180937038132748474e-06,-2.782864933322818979e-05
2.888095238095238049e+00,1.635030631701533290e-05,-1.888776091466978465e-05
2.888888888888888840e+00,2.594348279117359159e-05,-1.348057600676552862e-05
2.889682539682539630e+00,3.595106101611099565e-05,-9.550706008930789762e-06
2.890476190476190421e+00,4.593981159206469371e-05,-4.378328018254828024e-06
2.891269841269841212e+00,5.632319026655376959e-05,4.160351608610411558e-06
2.892063492063492003e+00,6.809291822424583598e-05,1.655726410590115113e-05
2.892857142857142794e+00,8.209445297609812230e-05,3.125985138711149353e-05
2.893650793650793585e+00,9.816920132016773194e-05,4.506625663511219408e-05
2.894444444444444375e+00,1.145884719390879286e-04,5.420977434291541992e-05
2.895238095238095166e+00,1.281090329759771221e-04,5.574269852277964670e-05
2.896031746031745957e+00,1.347324860789990289e-04,4.870621663363950495e-05
2.896825396825396748e+00,1.309660031030371069e-04,3.464818187661709701e-05
2.897619047619047539e+00,1.151695123113081169e-04,1.728325911551473366e-05
2.898412698412698330e+00,8.849701329033334181e-05,1.381440748340406687e-06
2.899206349206349120e+00,5.502253021801889368e-05,-8.767398624581862715e-06
2.899999999999999911e+00,2.087550745151755947e-05,-1.079070434743393040e-05
2.900793650793650702e+00,-7.459321459688868085e-06,-5.022419504489329237e-06
2.901587301587301493e+00,-2.519544372636905544e-05,5.721428893486005974e-06
2.902380952380952284e+00,-3.096376051874632839e-05,1.735621885737134438e-05
2.903174603174603075e+00,-2.752775973456264073e-05,2.625763817946603210e-05
2.903968253968253865e+00,-2.110357258851350349e-05,3.075910099192372826e-05
2.904761904761904656e+00,-1.936636540807877202e-05,3.173711971937614768e-05
2.905555555555555447e+00,-2.872784206869431224e-05,3.198857030518690458e-05
2.906349206349206238e+00,-5.180315464565191417e-05,3.463195090438924085e-05
2.907142857142857029e+00,-8.599500307228166566e-05,4.121846620377444186e-05
2.907936507936507819e+00,-1.237742843750709609e-04,5.043015414444414012e-05
2.908730158730158610e+00,-1.546476139388092131e-04,5.805567814186284693e-05
2.909523809523809401e+00,-1.682006201189453114e-04,5.839792325115669529e-05
2.910317460317460192e+00,-1.572279759723149185e-04,4.660679317750110386e-05
2.911111111111110983e+00,-1.199447754822870980e-04,2.097987099333819378e-05
2.911904761904761774e+00,-6.061428473759941730e-05,-1.574070645975337625e-05
2.912698412698412564e+00,1.150794956498120908e-05,-5.664728992347876051e-05
2.913492063492063355e+00,8.444165782196816220e-05,-9.248787903342321043e-05
2.914285714285714146e+00,1.461430208615967924e-04,-1.144192451562364336e-04
2.915079365079364937e+00,1.867591554864033397e-04,-1.167198760561597088e-04
2.915873015873015728e+00,2.000066119738264276e-04,-9.847605705970691843e-05
2.916666666666666519e+00,1.836361851464271490e-04,-6.363630873679280292e-05
2.917460317460317309e+00,1.392515859455837864e-04,-1.948597738480134186e-05
2.918253968253968100e+00,7.182477522750746815e-05,2.577533381211248999e-05
2.919047619047618891e+00,-1.086317234301915964e-05,6.537547596567875230e-05
2.919841269841269682e+00,-9.881582199516322871e-05,9.540146420655248698e-05
2.920634920634920473e+00,-1.805661774249829143e-04,1.149523310795900739e-04
2.921428571428571264e+00,-2.442473602182529120e-04,1.251758602229938232e-04
2.922222222222222054e+00,-2.790982961824503409e-04,1.277517469944455786e-04
2.923015873015872845e+00,-2.773313005921756265e-04,1.235401040867695037e-04
2.923809523809523636e+00,-2.360444415199221095e-04,1.119966886759114668e-04
2.924603174603174427e+00,-1.586577328888366775e-04,9.160527060227577714e-05
2.925396825396825218e+00,-5.529759441524576018e-05,6.111745548075275564e-05
2.926190476190476009e+00,5.828672421384085820e-05,2.101589763517867210e-05
2.926984126984126799e+00,1.633244707523239870e-04,-2.549841860563885611e-05
2.927777777777777590e+00,2.417070657204003353e-04,-7.250963407499329608e-05
2.928571428571428381e+00,2.798856047162364032e-04,-1.125109957776103712e-04
2.929365079365079172e+00,2.719321579827714075e-04,-1.383447355259192124e-04
2.930158730158729963e+00,2.209000991197389221e-04,-1.453154622663312525e-04
2.930952380952380754e+00,1.381125844453888354e-04,-1.327256782540287201e-04
2.931746031746031544e+00,4.060654650741873684e-05,-1.042686323338489499e-04
2.932539682539682335e+00,-5.256439782958651429e-05,-6.712641918175185770e-05
2.933333333333333126e+00,-1.242450874116183765e-04,-3.007458525242091808e-05
2.934126984126983917e+00,-1.624380041356563819e-04,-1.197508243491007119e-06
2.934920634920634708e+00,-1.622824370373692957e-04,1.412261753285449591e-05
2.935714285714285499e+00,-1.264843969707427670e-04,1.443135808879914511e-05
2.936507936507936289e+00,-6.429034499933313418e-05,2.379858591417295124e-06
2.937301587301587080e+00,1.061778449444816438e-05,-1.614968425036722010e-05
2.938095238095238315e+00,8.277732939202102097e-05,-3.373406262658301620e-05
2.938888888888889106e+00,1.376133860124413837e-04,-4.346081329225869424e-05
2.939682539682539897e+00,1.636944641007177445e-04,-4.075647771400905099e-05
2.940476190476190688e+00,1.543216544647171634e-04,-2.446040175055548785e-05
2.941269841269841478e+00,1.083687015776713548e-04,3.113631875695062360e-06
2.942063492063492269e+00,3.040299490993246911e-05,3.700753722566352494e-05
2.942857142857143060e+00,-6.984630704103366567e-05,7.094008902946683144e-05
2.943650793650793851e+00,-1.786166705069660969e-04,9.867045495576316923e-05
2.944444444444444642e+00,-2.797852004173360528e-04,1.151079006160252323e-04
2.945238095238095433e+00,-3.569971619861734007e-04,1.170715582757101705e-04
2.946031746031746223e+00,-3.960757109936184910e-04,1.037135098480598903e-04
2.946825396825397014e+00,-3.874247587547738911e-04,7.661480628771585551e-05
2.947619047619047805e+00,-3.280294014776132254e-04,3.952769305137783225e-05
2.948412698412698596e+00,-2.226005374426658545e-04,-2.248574203797920359e-06
2.949206349206349387e+00,-8.345338649863953229e-05,-4.279353106592092285e-05
2.950000000000000178e+00,7.110140909863308485e-05,-7.662950170156019344e-05
2.950793650793650968e+00,2.197400155656612343e-04,-9.969035724836938523e-05
2.951587301587301759e+00,3.419576193831702334e-04,-1.099624001399279619e-04
2.952380952380952550e+00,4.218842823346456001e-04,-1.076590259535132444e-04
2.953174603174603341e+00,4.511120739514020090e-04,-9.494674825207084020e-05
2.953968253968254132e+00,4.298034396429913691e-04,-7.537059052647127413e-05
2.954761904761904923e+00,3.658786139052519200e-04,-5.315632460434053554e-05
2.955555555555555713e+00,2.726573198221265613e-04,-3.249849067475791116e-05
2.956349206349206504e+00,1.657131326534330284e-04,-1.685715772917710910e-05
2.957142857142857295e+00,5.978994465174073476e-05,-8.279163200146335731e-06
2.957936507936508086e+00,-3.352642880437840226e-05,-6.857427208695794578e-06
2.958730158730158877e+00,-1.069932632773810401e-04,-1.055618875549339988e-05
2.959523809523809668e+00,-1.577153178486791023e-04,-1.561951688504440683e-05
2.960317460317460458e+00,-1.862356459106648602e-04,-1.758884641002263829e-05
2.961111111111111249e+00,-1.951685760090706399e-04,-1.268220933578368587e-05
2.961904761904762040e+00,-1.878714230367646532e-04,8.943549208668975818e-07
2.962698412698412831e+00,-1.675472343982998288e-04,2.213173989443564205e-05
2.963492063492063622e+00,-1.369576646149333156e-04,4.718443354353042251e-05
2.964285714285714413e+00,-9.867035958458990309e-05,7.020134243585574106e-05
2.965079365079365203e+00,-5.555242575951249072e-05,8.486986305575350850e-05
2.965873015873015994e+00,-1.112840969271529227e-05,8.627122452453613076e-05
2.966666666666666785e+00,3.050288724650521228e-05,7.246252330290393786e-05
2.967460317460317576e+00,6.526757145988380511e-05,4.522166444932357792e-05
2.968253968253968367e+00,9.002098725443593967e-05,9.667578633443779494e-06
2.969047619047619158e+00,1.033528469728159881e-04,-2.710799106729412224e-05
2.969841269841269948e+00,1.058917067748626410e-04,-5.789488326953053955e-05
2.970634920634920739e+00,9.990608117888547446e-05,-7.706535496452204467e-05
2.971428571428571530e+00,8.830028783389703496e-05,-8.161442900879243418e-05
2.972222222222222321e+00,7.337709319793290412e-05,-7.134940889575885653e-05
2.973015873015873112e+00,5.587410314758038248e-05,-4.838091823254859830e-05
2.973809523809523903e+00,3.471545044310005135e-05,-1.627759992472848979e-05
2.974603174603174693e+00,7.668701538006463941e-06,2.075386210163042555e-05
2.975396825396825484e+00,-2.725402192568540560e-05,5.845648979419598240e-05
2.976190476190476275e+00,-7.013485028404051322e-05,9.284860470805388359e-05
2.976984126984127066e+00,-1.178826309918035875e-04,1.203671388155946610e-04
2.977777777777777857e+00,-1.639449172799388422e-04,1.379479581351364967e-04
2.978571428571428648e+00,-1.992774701463923947e-04,1.431595088076662362e-04
2.979365079365079438e+00,-2.144006508418017380e-04,1.344675626111864377e-04
2.980158730158730229e+00,-2.019585249490624839e-04,1.116309318040518462e-04
2.980952380952381020e+00,-1.589923370051955309e-04,7.612790153436732588e-05
2.981746031746031811e+00,-8.822632849011818217e-05,3.143095648002966898e-05
2.982539682539682602e+00,2.010392537357288009e-06,-1.707637416868094672e-05
2.983333333333333393e+00,9.918171710286511017e-05,-6.268825881189416416e-05
2.984126984126984183e+00,1.888640458817957717e-04,-9.847604330997889127e-05
2.984920634920634974e+00,2.574089989682679558e-04,-1.187067807953950119e-04
2.985714285714285765e+00,2.943754222664246123e-04,-1.202095792020494005e-04
2.986507936507936556e+00,2.942790499525518529e-04,-1.032499426763352395e-04
2.987301587301587347e+00,2.573744309290361540e-04,-7.157743679211249846e-05
2.988095238095238138e+00,1.893702837372189800e-04,-3.157625709740344272e-05
2.988888888888888928e+00,1.001924711115397589e-04,9.229258175313387251e-06
2.989682539682539719e+00,2.122018377531152584e-06,4.383082104351683738e-05
2.990476190476190510e+00,-9.223001135329235976e-05,6.704679299830112028e-05
2.991269841269841301e+00,-1.716727913318356902e-04,7.616871788542292111e-05
2.992063492063492092e+00,-2.276567524460835666e-04,7.091937739697589673e-05
2.992857142857142883e+00,-2.549522020609296959e-04,5.295050642810244932e-05
2.993650793650793673e+00,-2.519303102914220412e-04,2.521289537888740889e-05
2.994444444444444464e+00,-2.205907392034982446e-04,-8.538759524903693116e-06
2.995238095238095255e+00,-1.663601099239168382e-04,-4.403207068583260889e-05
2.996031746031746046e+00,-9.755722110369909863e-05,-7.667003017754344361e-05
2.996825396825396837e+00,-2.439050173589414294e-05,-1.018269091323221559e-04
2.997619047619047628e+00,4.253723217105830111e-05,-1.153756296841410505e-04
2.998412698412698418e+00,9.403332843317942853e-05,-1.144136360527548351e-04
2.999206349206349209e+00,1.240421801583549660e-04,-9.799972794979033939e-05
3.000000000000000000e+00,1.308227015905869526e-04,-6.765310564020872290e-05
3.000793650793650791e+00,1.172024471358683366e-04,-2.741898782856996410e-05
3.001587301587301582e+00,8.978706571989641613e-05,1.657642793156811941e-05
3.002380952380952372e+00,5.730579169241982023e-05,5.704157675245053838e-05
3.003174603174603163e+00,2.850832486789581439e-05,8.677721226659809684e-05
3.003968253968253954e+00,1.013000777537355713e-05,1.000768754846471893e-04
3.004761904761904745e+00,5.406449080414154827e-06,9.400811905021446856e-05
3.005555555555555536e+00,1.347613195102502812e-05,6.927897651692363457e-05
3.006349206349206327e+00,2.979971717862436298e-05,3.042847650505997917e-05
3.007142857142857117e+00,4.748854348815196072e-05,-1.480060380326980767e-05
3.007936507936507908e+00,5.921719174339388694e-05,-5.686358159031890114e-05
3.008730158730158699e+00,5.924479577675361938e-05,-8.633901540892093950e-05
3.009523809523809490e+00,4.502795217357814393e-05,-9.595660444322706554e-05
3.010317460317460281e+00,1.799161689832388838e-05,-8.225096642222216262e-05
3.011111111111111072e+00,-1.677696331532043983e-05,-4.645351786197386121e-05
3.011904761904761862e+00,-5.186430256834590364e-05,5.578343870305261063e-06
3.012698412698412653e+00,-7.954429858635885377e-05,6.438811552149687639e-05
3.013492063492063444e+00,-9.388532688406509041e-05,1.187099401315351121e-04
3.014285714285714235e+00,-9.231568421650609773e-05,1.576769529140419307e-04
3.015079365079365026e+00,-7.618908452160617027e-05,1.730107846723865272e-04
3.015873015873015817e+00,-5.023301889229737921e-05,1.607414629552342592e-04
3.016666666666666607e+00,-2.112122876726363663e-05,1.220772167257956793e-04
3.017460317460317398e+00,4.352395678864347811e-06,6.319575368950239031e-05
3.018253968253968189e+00,2.096565583722847492e-05,-6.041847551620934996e-06
3.019047619047618980e+00,2.619239249329126490e-05,-7.418421228051043728e-05
3.019841269841269771e+00,2.051961990694675330e-05,-1.305913762889337386e-04
3.020634920634920562e+00,6.948050171654393303e-06,-1.675434539861314078e-04
3.021428571428571352e+00,-1.011334670456307047e-05,-1.815259010752693660e-04
3.022222222222222143e+00,-2.618748602566126424e-05,-1.734120753256542012e-04
3.023015873015872934e+00,-3.788309653041043129e-05,-1.476208541445201946e-04
3.023809523809523725e+00,-4.353233176366322262e-05,-1.106308117048058711e-04
3.024603174603174516e+00,-4.318872658231770895e-05,-6.934424050900751780e-05
3.025396825396825307e+00,-3.810208534598287364e-05,-2.971306560412162071e-05
3.026190476190476097e+00,-2.995893255135774651e-05,4.130762641236399077e-06
3.026984126984126888e+00,-2.021745756961588073e-05,3.016523949944331488e-05
3.027777777777777679e+00,-9.773698130914473613e-06,4.825069987182208401e-05
3.028571428571428470e+00,9.789800035418957401e-07,5.954947954855805792e-05
3.029365079365079261e+00,1.181624016049164888e-05,6.581036456831608256e-05
3.030158730158730052e+00,2.230392339654939550e-05,6.871944289423699526e-05
3.030952380952380842e+00,3.159434322280856868e-05,6.944322230696244936e-05
3.031746031746031633e+00,3.850519724276399680e-05,6.839958394904400670e-05
3.032539682539682424e+00,4.184073038377480867e-05,6.523946666959225509e-05
3.033333333333333215e+00,4.080940998439956739e-05,5.902111250265427663e-05
3.034126984126984006e+00,3.536717106761021369e-05,4.857014981515015795e-05
3.034920634920634797e+00,2.635911891018484965e-05,3.299076862865019631e-05
3.035714285714285587e+00,1.541109594637641894e-05,1.221926274884038630e-05
3.036507936507936378e+00,4.603367330148332955e-06,-1.255965345365250741e-05
3.037301587301587169e+00,-3.981657770861869838e-06,-3.881877729924263089e-05
3.038095238095237960e+00,-8.720024217902654654e-06,-6.301087698322443845e-05
3.038888888888888751e+00,-8.803913092010440692e-06,-8.124129199323639687e-05
3.039682539682539542e+00,-4.412134205060790664e-06,-9.007712710908014986e-05
3.040476190476190332e+00,3.352203237184707872e-06,-8.723852036723216737e-05
3.041269841269841123e+00,1.275259777222272187e-05,-7.200741261292217224e-05
3.042063492063491914e+00,2.187375909150765781e-05,-4.533867159654893410e-05
3.042857142857142705e+00,2.911803422307396449e-05,-9.760001398950179466e-06
3.043650793650793496e+00,3.359605850066685030e-05,3.085331584107841327e-05
3.044444444444444287e+00,3.528883114247279652e-05,7.161396177107423339e-05
3.045238095238095077e+00,3.492726606622608462e-05,1.071182129343662114e-04
3.046031746031745868e+00,3.362418514663068802e-05,1.321453528424797511e-04
3.046825396825396659e+00,3.237828161495561927e-05,1.425158843287917948e-04
3.047619047619047450e+00,3.162642356706354925e-05,1.359446228685265163e-04
3.048412698412698241e+00,3.102224084027851541e-05,1.126583526665219395e-04
3.049206349206349032e+00,2.954600309561924504e-05,7.557809361164315003e-05
3.049999999999999822e+00,2.591810791696505216e-05,2.996820935377050353e-05
3.050793650793650613e+00,1.915230953026108101e-05,-1.742072940936790641e-05
3.051587301587301404e+00,9.016322536713843773e-06,-5.956636631068743610e-05
3.052380952380952195e+00,-3.791671357494144003e-06,-9.048953229694752084e-05
3.053174603174602986e+00,-1.781045370657398974e-05,-1.063524939807047984e-04
3.053968253968253777e+00,-3.123569265022896319e-05,-1.060604554513755861e-04
3.054761904761904567e+00,-4.240870122915407986e-05,-9.123750542484373581e-05
3.055555555555555358e+00,-5.019456412421840189e-05,-6.565203376972803592e-05
3.056349206349206149e+00,-5.414969781762840796e-05,-3.431662822713223648e-05
3.057142857142856940e+00,-5.447834378571846917e-05,-2.518287404492568438e-06
3.057936507936507731e+00,-5.184781251576262522e-05,2.503281479762013871e-05
3.058730158730158522e+00,-4.715439464173654924e-05,4.484322080345817677e-05
3.059523809523809312e+00,-4.131307462861651456e-05,5.503673238317142899e-05
3.060317460317460103e+00,-3.510522522482556891e-05,5.550505541421577586e-05
3.061111111111110894e+00,-2.908382206703249791e-05,4.778970853405785390e-05
3.061904761904761685e+00,-2.352343066960061002e-05,3.468195482198733342e-05
3.062698412698412920e+00,-1.841236676624971466e-05,1.957379919057253956e-05
3.063492063492063711e+00,-1.349966385798580254e-05,5.671794673011524841e-06
3.064285714285714501e+00,-8.410889739972444179e-06,-4.740855389407230212e-06
3.065079365079365292e+00,-2.826920532410062555e-06,-1.078459840944925155e-05
3.065873015873016083e+00,3.316611180706157435e-06,-1.305396604525033576e-05
3.066666666666666874e+00,9.686110994017923392e-06,-1.325638222748725893e-05
3.067460317460317665e+00,1.554393623798104923e-05,-1.354714472543839270e-05
3.068253968253968456e+00,1.991664190990072924e-05,-1.578761706558878426e-05
3.069047619047619246e+00,2.190204856142148357e-05,-2.096542971670133635e-05
3.069841269841270037e+00,2.101903458702661552e-05,-2.894668528248069454e-05
3.070634920634920828e+00,1.748191728155237874e-05,-3.860791535748213182e-05
3.071428571428571619e+00,1.229577008436362911e-05,-4.825170037078915124e-05
3.072222222222222410e+00,7.109778118742646007e-06,-5.609543246718908498e-05
3.073015873015873201e+00,3.830161379427387374e-06,-6.061011806871644252e-05
3.073809523809523991e+00,4.074987954983900004e-06,-6.061048889226961493e-05
3.074603174603174782e+00,8.623207341304328064e-06,-5.518930641579040155e-05
3.075396825396825573e+00,1.703580049510462912e-05,-4.370653070653112110e-05
3.076190476190476364e+00,2.759310739621593524e-05,-2.599672871878842996e-05
3.076984126984127155e+00,3.760655765024634552e-05,-2.778639350904676692e-06
3.077777777777777946e+00,4.404699051955085969e-05,2.394018162731753347e-05
3.078571428571428736e+00,4.432323919866340165e-05,5.075283903758101518e-05
3.079365079365079527e+00,3.699035582125006496e-05,7.324691787715521916e-05
3.080158730158730318e+00,2.219333516570818493e-05,8.690841256470049014e-05
3.080952380952381109e+00,1.743347991554999726e-06,8.830903811096922564e-05
3.081746031746031900e+00,-2.116902720322681657e-05,7.619806969296257372e-05
3.082539682539682691e+00,-4.254100774762258281e-05,5.211441253152736708e-05
3.083333333333333481e+00,-5.828782643898644517e-05,2.027145370976695394e-05
3.084126984126984272e+00,-6.501156227475502695e-05,-1.330897257264072621e-05
3.084920634920635063e+00,-6.068761709313540403e-05,-4.219518576636639245e-05
3.085714285714285854e+00,-4.515759860992475986e-05,-6.107496390475769304e-05
3.086507936507936645e+00,-2.033410124690991617e-05,-6.696864742912471576e-05
3.087301587301587436e+00,9.954500867123555017e-06,-5.980287492644468334e-05
3.088095238095238226e+00,4.051537718443670678e-05,-4.225044097974644955e-05
3.088888888888889017e+00,6.570593529389185002e-05,-1.895863256952712124e-05
3.089682539682539808e+00,8.056939455450547551e-05,4.588695076749591263e-06
3.090476190476190599e+00,8.193468619476770637e-05,2.330614285197053802e-05
3.091269841269841390e+00,6.917704646665478866e-05,3.359900013494821310e-05
3.092063492063492181e+00,4.440482920766871918e-05,3.411335838422774092e-05
3.092857142857142971e+00,1.200455883389086550e-05,2.599189086843289951e-05
3.093650793650793762e+00,-2.233258241268972326e-05,1.255754783451239747e-05
3.094444444444444553e+00,-5.283825246149385376e-05,-1.538376459585007760e-06
3.095238095238095344e+00,-7.483352668951142824e-05,-1.152820010788011771e-05
3.096031746031746135e+00,-8.556339607912549175e-05,-1.380055686725230229e-05
3.096825396825396925e+00,-8.453952377458883035e-05,-6.882162253754576038e-06
3.097619047619047716e+00,-7.337042086459519231e-05,8.159429920512738135e-06
3.098412698412698507e+00,-5.518412770552704670e-05,2.800584961831507403e-05
3.099206349206349298e+00,-3.382999410877529677e-05,4.796610014405947552e-05
3.100000000000000089e+00,-1.306802730139340096e-05,6.316476064094536495e-05
3.100793650793650880e+00,4.079123786393128462e-06,6.969251703351471232e-05
3.101587301587301670e+00,1.570779666459153176e-05,6.541667561972151681e-05
3.102380952380952461e+00,2.113037155135389205e-05,5.028531660874578922e-05
3.103174603174603252e+00,2.074149305287297434e-05,2.613843060834277515e-05
3.103968253968254043e+00,1.574178363685805129e-05,-3.806078405667460887e-06
3.104761904761904834e+00,7.801761334902809349e-06,-3.556717184944854418e-05
3.105555555555555625e+00,-1.273131385129404572e-06,-6.495852868439550779e-05
3.106349206349206415e+00,-9.824042284270355078e-06,-8.806081412138592730e-05
3.107142857142857206e+00,-1.650928406940972950e-05,-1.016652339877097654e-04
3.107936507936507997e+00,-2.032131138401384681e-05,-1.037269443464460011e-04
3.108730158730158788e+00,-2.046862049963140708e-05,-9.377567068640568011e-05
3.109523809523809579e+00,-1.622459954014708058e-05,-7.315139570466833727e-05
3.110317460317460370e+00,-6.889156404523755068e-06,-4.492952479299827239e-05
3.111111111111111160e+00,8.029750814174234103e-06,-1.347333141153610573e-05
3.111904761904761951e+00,2.841663234727122555e-05,1.634055264232439565e-05
3.112698412698412742e+00,5.306226176171330576e-05,4.007317686159533637e-05
3.113492063492063533e+00,7.931669643185050003e-05,5.462221673927262019e-05
3.114285714285714324e+00,1.031219474063995654e-04,5.881890245507151959e-05
3.115079365079365115e+00,1.195704751818318934e-04,5.354123500962052975e-05
3.115873015873015905e+00,1.239464060732945057e-04,4.131462230636775057e-05
3.116666666666666696e+00,1.129935844958429683e-04,2.554706214470309119e-05
3.117460317460317487e+00,8.601675952502675941e-05,9.660944234617531339e-06
3.118253968253968278e+00,4.542745130229387953e-05,-3.613684345434582624e-06
3.119047619047619069e+00,-3.499354077118802800e-06,-1.261873796177719333e-05
3.119841269841269860e+00,-5.363887356106437026e-05,-1.679815624507831830e-05
3.120634920634920650e+00,-9.752304719472640641e-05,-1.647266703127329878e-05
3.121428571428571441e+00,-1.289007449145748100e-04,-1.249928310262764445e-05
3.122222222222222232e+00,-1.439145094080628018e-04,-5.936233034175282662e-06
3.123015873015873023e+00,-1.416152939345719322e-04,2.210921824419264209e-06
3.123809523809523814e+00,-1.237747033350488637e-04,1.112596739883544424e-05
3.124603174603174605e+00,-9.416726266127209454e-05,2.019500718391148802e-05
3.125396825396825395e+00,-5.760740129022794110e-05,2.891516230232160019e-05
3.126190476190476186e+00,-1.902153366430781945e-05,3.674706311989867720e-05
3.126984126984126977e+00,1.725230194776378268e-05,4.298847514582757924e-05
3.127777777777777768e+00,4.786557328580652527e-05,4.675671603601751756e-05
3.128571428571428559e+00,7.059405861773990264e-05,4.713364021672792302e-05
3.129365079365079350e+00,8.429337133829660641e-05,4.344955185690809526e-05
3.130158730158730140e+00,8.876214730638193773e-05,3.559806624952491607e-05
3.130952380952380931e+00,8.457109041303285534e-05,2.423172147282812419e-05
3.131746031746031722e+00,7.288778684955428519e-05,1.071973003035487454e-05
3.132539682539682513e+00,5.531082068448179569e-05,-3.149626411643929770e-06
3.133333333333333304e+00,3.371911759805379263e-05,-1.561450584072979022e-05
3.134126984126984095e+00,1.013779995350358299e-05,-2.534690907242835158e-05
3.134920634920634885e+00,-1.338205114954833852e-05,-3.165554687230353275e-05
3.135714285714285676e+00,-3.487418612829673370e-05,-3.442799664721335397e-05
3.136507936507936467e+00,-5.256184647096398771e-05,-3.389212656039790398e-05
3.137301587301587258e+00,-6.495638576141561519e-05,-3.036121947524403567e-05
3.138095238095238049e+00,-7.094787904220160196e-05,-2.411668321360080030e-05
3.138888888888888840e+00,-6.989169190942030082e-05,-1.548732880032912927e-05
3.139682539682539630e+00,-6.170870204414021475e-05,-5.060529998402413341e-06
3.140476190476190421e+00,-4.701559761843351627e-05,6.121861761812875797e-06
3.141269841269841212e+00,-2.725879269185695389e-05,1.652907995966534745e-05
3.142063492063492003e+00,-4.757014142671178103e-06,2.434285875220799718e-05
3.142857142857142794e+00,1.747248952083201685e-05,2.787351196549303937e-05
3.143650793650793585e+00,3.616853964964921640e-05,2.608513030317207628e-05
3.144444444444444375e+00,4.849131756061064084e-05,1.906140854222692353e-05
3.145238095238095166e+00,5.269870399881700844e-05,8.219097890884717841e-06
3.146031746031745957e+00,4.859174276252761348e-05,-3.878362836256305684e-06
3.146825396825396748e+00,3.756160969430577241e-05,-1.413154789766919894e-05
3.147619047619047539e+00,2.222285709848760329e-05,-1.980457541976303858e-05
3.148412698412698330e+00,5.771756764706143227e-06,-1.944474461978825194e-05
3.149206349206349120e+00,-8.706341593691596870e-06,-1.350166669040243035e-05
3.149999999999999911e+00,-1.877614166615831454e-05,-4.384021445410811455e-06
3.150793650793650702e+00,-2.294150235964707838e-05,4.142023912717579027e-06
3.151587301587301493e+00,-2.071726366559399504e-05,8.077771924444268980e-06
3.152380952380952284e+00,-1.258652086541319822e-05,4.490481586955716958e-06
3.153174603174603075e+00,7.816944860719394092e-08,-7.463970220146695091e-06
3.153968253968253865e+00,1.513204519227084615e-05,-2.616130313809110166e-05
3.154761904761904656e+00,2.987469589135899125e-05,-4.789611211087373615e-05
3.155555555555555447e+00,4.140877235358084504e-05,-6.787393592374064044e-05
3.156349206349206238e+00,4.710782650778465866e-05,-8.146010403194390334e-05
3.157142857142857029e+00,4.509590588076152479e-05,-8.531868210807236211e-05
3.157936507936507819e+00,3.463688188190408248e-05,-7.817497704471282273e-05
3.158730158730158610e+00,1.637037745376691914e-05,-6.106538407347667538e-05
3.159523809523809401e+00,-7.637244141139089846e-06,-3.705333477144701976e-05
3.160317460317460192e+00,-3.405698474899344295e-05,-1.048940596392025008e-05
3.161111111111110983e+00,-5.870790716103532888e-05,1.401608635957326651e-05
3.161904761904761774e+00,-7.721039057183777153e-05,3.266486909376936767e-05
3.162698412698412564e+00,-8.580102130686604862e-05,4.330965958373568048e-05
3.163492063492063355e+00,-8.214591047284516834e-05,4.582534020018174867e-05
3.164285714285714146e+00,-6.594855971251452201e-05,4.190854284468410648e-05
3.165079365079364937e+00,-3.917624685202134645e-05,3.438431452742129416e-05
3.165873015873015728e+00,-5.818703469029508578e-06,2.625940190441866109e-05
3.166666666666666519e+00,2.878837130575679761e-05,1.983351073442797706e-05
3.167460317460317309e+00,5.893508436014379325e-05,1.613629011087804865e-05
3.168253968253968100e+00,7.959837295299279484e-05,1.482586138651253637e-05
3.169047619047618891e+00,8.737230259541350506e-05,1.452522531548860323e-05
3.169841269841269682e+00,8.108178053563023439e-05,1.344276069425402624e-05
3.170634920634920473e+00,6.196420337946889720e-05,1.005557274664570163e-05
3.171428571428571264e+00,3.339496811481121677e-05,3.642652158022009480e-06
3.172222222222222054e+00,2.264050406321953032e-07,-5.468684322352388078e-06
3.173015873015872845e+00,-3.211717727613919366e-05,-1.596906830092865295e-05
3.173809523809523636e+00,-5.861129383607158866e-05,-2.587838391867973352e-05
3.174603174603174427e+00,-7.549757060205488962e-05,-3.299304065972396763e-05
3.175396825396825218e+00,-8.090012521054476037e-05,-3.536606123327052916e-05
3.176190476190476009e+00,-7.508540624188742322e-05,-3.173667928795936019e-05
3.176984126984126799e+00,-6.030526424022222500e-05,-2.183654178158282209e-05
3.177777777777777590e+00,-4.022563296444861113e-05,-6.506636308517698580e-06
3.178571428571428381e+00,-1.902928917787709932e-05,1.241740238193771964e-05
3.179365079365079172e+00,-3.829217613477318263e-07,3.244354200059003997e-05
3.180158730158729963e+00,1.345887337043471147e-05,5.090985341331183742e-05
3.180952380952380754e+00,2.213048444408444328e-05,6.549032114145111698e-05
3.181746031746031544e+00,2.703320230771890715e-05,7.458555484577143778e-05
3.182539682539682335e+00,3.063408641240301548e-05,7.751450070531147173e-05
3.183333333333333126e+00,3.542308256488438243e-05,7.449811580977532064e-05
3.184126984126983917e+00,4.289671338750616317e-05,6.648185755320089763e-05
3.184920634920634708e+00,5.292098451790910012e-05,5.486345570061851594e-05
3.185714285714285499e+00,6.367927916118202951e-05,4.119011344793802536e-05
3.186507936507936289e+00,7.220148420691778848e-05,2.688489496604536670e-05
3.187301587301587080e+00,7.527944811857932128e-05,1.305698191502036884e-05
3.188095238095238315e+00,7.046472168763893832e-05,4.306775913363199231e-07
3.188888888888889106e+00,5.684327995632041199e-05,-1.061277215342426139e-05
3.189682539682539897e+00,3.537190585729586232e-05,-1.993095011385319430e-05
3.190476190476190688e+00,8.700791327313753043e-06,-2.752112856412018178e-05
3.191269841269841478e+00,-1.944542893037986623e-05,-3.346714464030177356e-05
3.192063492063492269e+00,-4.513416946059737461e-05,-3.792228195334036191e-05
3.192857142857143060e+00,-6.507825861553816693e-05,-4.108631481680221763e-05
3.193650793650793851e+00,-7.723059672152308259e-05,-4.314968590635774256e-05
3.194444444444444642e+00,-8.097892259275486098e-05,-4.422151973532811446e-05
3.195238095238095433e+00,-7.695786959607819888e-05,-4.428604686714017621e-05
3.196031746031746223e+00,-6.663201410229797829e-05,-4.321939282079954376e-05
3.196825396825397014e+00,-5.184840083131714181e-05,-4.086128124869156615e-05
3.197619047619047805e+00,-3.449961209154322502e-05,-3.710667325246632292e-05
3.198412698412698596e+00,-1.633317652577819123e-05,-3.197865751807165769e-05
3.199206349206349387e+00,1.138796735141649659e-06,-2.566015228058045737e-05
3.200000000000000178e+00,1.669734241881381287e-05,-1.848153109239228777e-05
3.200793650793650968e+00,2.948038349647958678e-05,-1.087344836478841959e-05
3.201587301587301759e+00,3.904745037831942406e-05,-3.298646167304742053e-06
3.202380952380952550e+00,4.541177946273925619e-05,3.822149691337312396e-06
3.203174603174603341e+00,4.900127739201022087e-05,1.017333376237215149e-05
3.203968253968254132e+00,5.052438595429903731e-05,1.557799794524285730e-05
3.204761904761904923e+00,5.074792611369899456e-05,1.998660850326348170e-05
3.205555555555555713e+00,5.023750942988942009e-05,2.341537525171479798e-05
3.206349206349206504e+00,4.915041614665688368e-05,2.584281820265992919e-05
3.207142857142857295e+00,4.717610747548028102e-05,2.709089886797459644e-05
3.207936507936508086e+00,4.366903678557961253e-05,2.674183414186246885e-05
3.208730158730158877e+00,3.792816774413668949e-05,2.416109067085930057e-05
3.209523809523809668e+00,2.950308727384087963e-05,1.867775509651537199e-05
3.210317460317460458e+00,1.840142643846300101e-05,9.896938777526183230e-06
3.211111111111111249e+00,5.140975928962756620e-06,-1.977146097089116676e-06
3.211904761904762040e+00,-9.319305347190515382e-06,-1.596701520094206226e-05
3.212698412698412831e+00,-2.369190995824951561e-05,-3.039142376968340082e-05
3.213492063492063622e+00,-3.647478607534055187e-05,-4.314616980441520844e-05
3.214285714285714413e+00,-4.609827895234072355e-05,-5.207390564033193415e-05
3.215079365079365203e+00,-5.116917053671410836e-05,-5.531180842177948326e-05
3.215873015873015994e+00,-5.082300973906092806e-05,-5.158153050667186928e-05
3.216666666666666785e+00,-4.509065344503476616e-05,-4.043626648354945070e-05
3.217460317460317576e+00,-3.510738603762696911e-05,-2.246213752127515240e-05
3.218253968253968367e+00,-2.300639060985462130e-05,6.199294231048612936e-07
3.219047619047619158e+00,-1.145004157002406874e-05,2.603074041510355680e-05
3.219841269841269948e+00,-2.913736227424210156e-06,5.024102888084897467e-05
3.220634920634920739e+00,1.031600273797060158e-06,6.950798929189030734e-05
3.221428571428571530e+00,1.610306658575339690e-07,8.057975963573937753e-05
3.222222222222222321e+00,-4.423255793204692827e-06,8.145729799080092884e-05
3.223015873015873112e+00,-1.077479434499126188e-05,7.205272366193053073e-05
3.223809523809523903e+00,-1.686509665037283344e-05,5.454518710701403947e-05
3.224603174603174693e+00,-2.133314884155458759e-05,3.324815687633142817e-05
3.225396825396825484e+00,-2.395091750778331719e-05,1.389212598937268908e-05
3.226190476190476275e+00,-2.565982379167717654e-05,2.375289458109271938e-06
3.226984126984127066e+00,-2.819019915426688907e-05,3.197418237232414893e-06
3.227777777777777857e+00,-3.339619562297916342e-05,1.793963334341614271e-05
3.228571428571428648e+00,-4.250199548449674073e-05,4.425657194741251766e-05
3.229365079365079438e+00,-5.547498646703836306e-05,7.583441445865408894e-05
3.230158730158730229e+00,-7.072537089293078625e-05,1.035557123240785272e-04
3.230952380952381020e+00,-8.526511584517776105e-05,1.177192122388368185e-04
3.231746031746031811e+00,-9.533116725187260184e-05,1.107467894905834089e-04
3.232539682539682602e+00,-9.731476334269541977e-05,7.956202587584402413e-05
3.233333333333333393e+00,-8.870735484464200833e-05,2.685382006933751566e-05
3.234126984126984183e+00,-6.874731840323868189e-05,-3.925922215179141985e-05
3.234920634920634974e+00,-3.856283156501895274e-05,-1.071554287793798673e-04
3.235714285714285765e+00,-8.165256268991005211e-07,-1.646841389346928900e-04
