Timestamp,Flexor carpi radialis,Extensor digitorum
2.000000000000000000e+00,-5.532628659878185534e-05,1.193568387144734153e-04
2.000793650793650791e+00,-3.754194417614290104e-05,1.164029488687212406e-04
2.001587301587301582e+00,-2.862584162541486585e-05,1.030622049063598480e-04
2.002380952380952372e+00,-2.843087318645562316e-05,8.102066468646913430e-05
2.003174603174603163e+00,-3.306245724652321982e-05,5.256003069552355443e-05
2.003968253968253954e+00,-3.699863429804465116e-05,2.021894954742338172e-05
2.004761904761904745e+00,-3.551433542387761683e-05,-1.337046395754380674e-05
2.005555555555555536e+00,-2.645670529557280829e-05,-4.553377791656474153e-05
2.006349206349206327e+00,-1.078405201477971289e-05,-7.359015671302796284e-05
2.007142857142857117e+00,8.175287115610500958e-06,-9.497972777757553598e-05
2.007936507936507908e+00,2.628601371979220438e-05,-1.075496264771624470e-04
2.008730158730158699e+00,4.027056597847514517e-05,-1.099654977314910544e-04
2.009523809523809490e+00,4.882344432219710078e-05,-1.021023328134877802e-04
2.010317460317460281e+00,5.285309543425138653e-05,-8.521834688828565688e-05
2.011111111111111072e+00,5.493041388180976939e-05,-6.176618227925305675e-05
2.011904761904761862e+00,5.829451726156794370e-05,-3.483035873366601310e-05
2.012698412698412653e+00,6.580954119413972062e-05,-7.345391757804433615e-06
2.013492063492063444e+00,7.912844765206326404e-05,1.862427390927112237e-05
2.014285714285714235e+00,9.814523567377749348e-05,4.224036325169991461e-05
2.015079365079365026e+00,1.207353123159389546e-04,6.370283612635914297e-05
2.015873015873015817e+00,1.428201692121445045e-04,8.357694647978076779e-05
2.016666666666666607e+00,1.588588730738415243e-04,1.019429552454521502e-04
2.017460317460317398e+00,1.628428284089369720e-04,1.177844620122349840e-04
2.018253968253968189e+00,1.497047775166266727e-04,1.289117049043394614e-04
2.019047619047618980e+00,1.168265054842312369e-04,1.324368863190026376e-04
2.019841269841269771e+00,6.518893854651268372e-05,1.255709890749635925e-04
2.020634920634920562e+00,-2.431449886845374921e-07,1.064453545631874597e-04
2.021428571428571352e+00,-7.108204723533411481e-05,7.475319478244954940e-05
2.022222222222222143e+00,-1.369091698047057780e-04,3.211737328536281612e-05
2.023015873015872934e+00,-1.871576222264053800e-04,-1.786623981837001825e-05
2.023809523809523725e+00,-2.130620120640936755e-04,-6.995734519408348994e-05
2.024603174603174516e+00,-2.092960809623548588e-04,-1.179886430262889904e-04
2.025396825396825307e+00,-1.750290623544605104e-04,-1.559017780876484132e-04
2.026190476190476097e+00,-1.142562036897379807e-04,-1.789052756284858104e-04
2.026984126984126888e+00,-3.536556525862977050e-05,-1.844499168681715501e-04
2.027777777777777679e+00,5.002249433072443555e-05,-1.727075621603576779e-04
2.028571428571428470e+00,1.288460151508470002e-04,-1.463756907284707246e-04
2.029365079365079261e+00,1.888335443562244435e-04,-1.098685687470191114e-04
2.030158730158730052e+00,2.208470300386344842e-04,-6.817805990119059898e-05
2.030952380952380842e+00,2.208565514331069007e-04,-2.578087353240959132e-05
2.031746031746031633e+00,1.910026602001423156e-04,1.409288424616057629e-05
2.032539682539682424e+00,1.393052368490949110e-04,4.967109131650927832e-05
2.033333333333333215e+00,7.787852257117672207e-05,8.034207575678543162e-05
2.034126984126984006e+00,1.994907427992300387e-05,1.060073852467316273e-04
2.034920634920634797e+00,-2.359413666968986927e-05,1.263598573747817810e-04
2.035714285714285587e+00,-4.712434747769028926e-05,1.404066575301746872e-04
2.036507936507936378e+00,-5.171514391008628979e-05,1.464773825166669691e-04
2.037301587301587169e+00,-4.450733453248252526e-05,1.427526524067954756e-04
2.038095238095237960e+00,-3.607072104779523422e-05,1.280997551667573413e-04
2.038888888888888751e+00,-3.654537555722640695e-05,1.028392350392102041e-04
2.039682539682539542e+00,-5.184644308029567726e-05,6.909123152728517041e-05
2.040476190476190332e+00,-8.126710078068549335e-05,3.054804856872756446e-05
2.041269841269841123e+00,-1.173714926524689075e-04,-8.240102025702892644e-06
2.042063492063491914e+00,-1.482914739817492423e-04,-4.282383976358404212e-05
2.042857142857142705e+00,-1.617011805322533336e-04,-6.977546383914697069e-05
2.043650793650793496e+00,-1.491335863350401686e-04,-8.732717117877632597e-05
2.044444444444444287e+00,-1.091556580220611638e-04,-9.556778405271907273e-05
2.045238095238095077e+00,-4.830736293421165889e-05,-9.616785671241616688e-05
2.046031746031745868e+00,2.051460928334671342e-05,-9.175186095830998516e-05
2.046825396825396659e+00,8.168796642671224918e-05,-8.514139006966542789e-05
2.047619047619047450e+00,1.213269585762917176e-04,-7.869609925264294936e-05
2.048412698412698241e+00,1.311565329095541342e-04,-7.389092955462471936e-05
2.049206349206349032e+00,1.106098753153964427e-04,-7.115979534640810551e-05
2.049999999999999822e+00,6.657172991143642412e-05,-6.996480032520191309e-05
2.050793650793650613e+00,1.096742107501304486e-05,-6.902643016316611392e-05
2.051587301587301404e+00,-4.292646841701673127e-05,-6.665770518880998396e-05
2.052380952380952195e+00,-8.421702301350959255e-05,-6.116087628426397269e-05
2.053174603174602986e+00,-1.070057510216924636e-04,-5.124779276585778764e-05
2.053968253968253777e+00,-1.111537254034471878e-04,-3.642877659707127508e-05
2.054761904761904567e+00,-1.011562631553833403e-04,-1.729284349696515261e-05
2.055555555555555358e+00,-8.374359997702888895e-05,4.408911405940326869e-06
2.056349206349206149e+00,-6.521334564395920132e-05,2.595361420786626268e-05
2.057142857142856940e+00,-4.946622304467225377e-05,4.413984869571196653e-05
2.057936507936507731e+00,-3.730998933514196545e-05,5.601943020346792870e-05
2.058730158730158522e+00,-2.704061027314087198e-05,5.968651200648647466e-05
2.059523809523809312e+00,-1.585209625028360524e-05,5.486514042396035311e-05
2.060317460317460103e+00,-1.416052836616383859e-06,4.306244940083830177e-05
2.061111111111110894e+00,1.696611783846777371e-05,2.720025587027755201e-05
2.061904761904761685e+00,3.797694839769425769e-05,1.084241801499869257e-05
2.062698412698412920e+00,5.868002946418032984e-05,-2.710432456549435459e-06
2.063492063492063711e+00,7.546053048978729704e-05,-1.116355567724638514e-05
2.064285714285714501e+00,8.513959282409496159e-05,-1.361365044734551757e-05
2.065079365079365292e+00,8.589334296631389004e-05,-1.053593143793169707e-05
2.065873015873016083e+00,7.771018220083738431e-05,-3.460897610904128672e-06
2.066666666666666874e+00,6.228878489906758582e-05,5.507956068720786835e-06
2.067460317460317665e+00,4.246544219836023888e-05,1.419112790290498287e-05
2.068253968253968456e+00,2.140526408985344957e-05,2.074937830290916809e-05
2.069047619047619246e+00,1.850147555538016381e-06,2.397482283451945822e-05
2.069841269841270037e+00,-1.432960946841269989e-05,2.344157258408558487e-05
2.070634920634920828e+00,-2.616864990065844679e-05,1.951289825073655379e-05
2.071428571428571619e+00,-3.329475197495316169e-05,1.321327251453188948e-05
2.072222222222222410e+00,-3.549539190547485389e-05,5.989703755744606947e-06
2.073015873015873201e+00,-3.243173263456061836e-05,-5.968578226978532394e-07
2.073809523809523991e+00,-2.367547478895698647e-05,-5.196048817187091202e-06
2.074603174603174782e+00,-9.062641420632830348e-06,-6.945786882585472680e-06
2.075396825396825573e+00,1.081204288781743023e-05,-5.639733323589162496e-06
2.076190476190476364e+00,3.421647201296626196e-05,-1.735018503783145067e-06
2.076984126984127155e+00,5.823865097845552173e-05,3.815569592126819641e-06
2.077777777777777946e+00,7.917281686456181203e-05,9.869512205204928004e-06
2.078571428571428736e+00,9.326029709481714321e-05,1.544149715359973790e-05
2.079365079365079527e+00,9.757000099667286679e-05,1.995893507278216525e-05
2.080158730158730318e+00,9.073811892256115441e-05,2.331694060637692757e-05
2.080952380952381109e+00,7.332061036199328380e-05,2.571065940737568705e-05
2.081746031746031900e+00,4.763805746509138791e-05,2.733312019096238089e-05
2.082539682539682691e+00,1.717129867656007946e-05,2.809856455843758757e-05
2.083333333333333481e+00,-1.427114198959911423e-05,2.754279801203701359e-05
2.084126984126984272e+00,-4.332296265606796099e-05,2.496607781054126877e-05
2.084920634920635063e+00,-6.753546159988487168e-05,1.976332440613476799e-05
2.085714285714285854e+00,-8.547682775919005556e-05,1.179141604728245051e-05
2.086507936507936645e+00,-9.653113869127271458e-05,1.601121603973056334e-06
2.087301587301587436e+00,-1.005692394188528721e-04,-9.579778575649971635e-06
2.088095238095238226e+00,-9.767834916081488043e-05,-2.011891450615741226e-05
2.088888888888889017e+00,-8.808213481832306488e-05,-2.841106176786818726e-05
2.089682539682539808e+00,-7.228239977413423057e-05,-3.331345575631463680e-05
2.090476190476190599e+00,-5.133910982083601636e-05,-3.442939555448682116e-05
2.091269841269841390e+00,-2.711823882976019509e-05,-3.214317486385938859e-05
2.092063492063492181e+00,-2.321403804743707372e-06,-2.740741022439489966e-05
2.092857142857142971e+00,1.981129211379365466e-05,-2.138409250495354721e-05
2.093650793650793762e+00,3.609435489634826123e-05,-1.509368519058365808e-05
2.094444444444444553e+00,4.412350365984561175e-05,-9.201458922479239147e-06
2.095238095238095344e+00,4.290746523777496865e-05,-3.986223362089993746e-06
2.096031746031746135e+00,3.319311801272696984e-05,5.494743274626156558e-07
2.096825396825396925e+00,1.736011736722725473e-05,4.512859692663071288e-06
2.097619047619047716e+00,-1.103659386117363582e-06,7.980771185337345137e-06
2.098412698412698507e+00,-1.839676064870879904e-05,1.093526671710940998e-05
2.099206349206349298e+00,-3.123786909939591780e-05,1.327959094185361688e-05
2.100000000000000089e+00,-3.751508046062324009e-05,1.490323355849475010e-05
2.100793650793650880e+00,-3.660708784556969614e-05,1.575341445347796929e-05
2.101587301587301670e+00,-2.933750896837697311e-05,1.588053209301144012e-05
2.102380952380952461e+00,-1.761526992080969222e-05,1.544022848048852453e-05
2.103174603174603252e+00,-3.877905981121747599e-06,1.464623205213267529e-05
2.103968253968254043e+00,9.511160314436257037e-06,1.368383287191221434e-05
2.104761904761904834e+00,2.076001094803577336e-05,1.261853972754200048e-05
2.105555555555555625e+00,2.892810498763015317e-05,1.135218727452214893e-05
2.106349206349206415e+00,3.394743057902616112e-05,9.665965528527813090e-06
2.107142857142857206e+00,3.641997435627575497e-05,7.344922719469727744e-06
2.107936507936507997e+00,3.727908301239022895e-05,4.329250156306916699e-06
2.108730158730158788e+00,3.742016679997781905e-05,8.175390250383727207e-07
2.109523809523809579e+00,3.739722608592762270e-05,-2.731764866388199508e-06
2.110317460317460370e+00,3.725763003197996872e-05,-5.706792705288476812e-06
2.111111111111111160e+00,3.655371295574783865e-05,-7.515579050975154844e-06
2.111904761904761951e+00,3.452727101441882291e-05,-7.761333405994333320e-06
2.112698412698412742e+00,3.041645724620582498e-05,-6.360320711488801715e-06
2.113492063492063533e+00,2.379449395345987724e-05,-3.569137408943008997e-06
2.114285714285714324e+00,1.482984192845878558e-05,7.988341365683268230e-08
2.115079365079365115e+00,4.369974845147061649e-06,3.910196824436779925e-06
2.115873015873015905e+00,-6.200155262110519243e-06,7.260179404245748611e-06
2.116666666666666696e+00,-1.529861107647178411e-05,9.629745948326874798e-06
2.117460317460317487e+00,-2.158382284717671765e-05,1.078469935219004077e-05
2.118253968253968278e+00,-2.434288811758035764e-05,1.080243009601116984e-05
2.119047619047619069e+00,-2.369499060554503504e-05,1.004942754032782741e-05
2.119841269841269860e+00,-2.053655201892169406e-05,9.083178052952357390e-06
2.120634920634920650e+00,-1.624512161961708497e-05,8.483002244325159874e-06
2.121428571428571441e+00,-1.224238577607681313e-05,8.644469994793757314e-06
2.122222222222222232e+00,-9.561983666218695365e-06,9.606685287016935955e-06
2.123015873015873023e+00,-8.559330694738037705e-06,1.099452694082853993e-05
2.123809523809523814e+00,-8.845226761213379052e-06,1.213068383748865530e-05
2.124603174603174605e+00,-9.449103039111719828e-06,1.230810926882230732e-05
2.125396825396825395e+00,-9.151401194274368423e-06,1.113613184591212594e-05
2.126190476190476186e+00,-6.885068812111696854e-06,8.817907035271964594e-06
2.126984126984126977e+00,-2.095693656746490105e-06,6.215506709186199569e-06
2.127777777777777768e+00,5.035442379178312920e-06,4.625711377882248030e-06
2.128571428571428559e+00,1.356448558540697478e-05,5.307457851659230602e-06
2.129365079365079350e+00,2.196064765842086118e-05,8.922669885402398306e-06
2.130158730158730140e+00,2.843526731859044181e-05,1.511641444055342474e-05
2.130952380952380931e+00,3.133553169666374505e-05,2.243200692163846180e-05
2.131746031746031722e+00,2.950307488142045307e-05,2.863828460740306027e-05
2.132539682539682513e+00,2.251586640315044328e-05,3.138891534136904456e-05
2.133333333333333304e+00,1.077043080195001994e-05,2.900610130127269501e-05
2.134126984126984095e+00,-4.591911193771404209e-06,2.113695908810796288e-05
2.134920634920634885e+00,-2.187149827745625698e-05,9.078473188400182543e-06
2.135714285714285676e+00,-3.904958051554929176e-05,-4.330681533519278340e-06
2.136507936507936467e+00,-5.403294073278899063e-05,-1.524470934962807139e-05
2.137301587301587258e+00,-6.488462416203287400e-05,-1.967692797409876707e-05
2.138095238095238049e+00,-7.004088955827471156e-05,-1.453410512769197421e-05
2.138888888888888840e+00,-6.851117223494181216e-05,1.401624893613775573e-06
2.139682539682539630e+00,-6.003970887862735990e-05,2.679615260520987370e-05
2.140476190476190421e+00,-4.519465840629798237e-05,5.761965712218745266e-05
2.141269841269841212e+00,-2.535666866778179171e-05,8.765936048839172341e-05
2.142063492063492003e+00,-2.599492295567057171e-06,1.096519644651486254e-04
2.142857142857142794e+00,2.052616310944328960e-05,1.168359641124431348e-04
2.143650793650793585e+00,4.128819835306210610e-05,1.046000483534655540e-04
2.144444444444444375e+00,5.712925082580892934e-05,7.183034107963645327e-05
2.145238095238095166e+00,6.605145318465788608e-05,2.155495199530575170e-05
2.146031746031745957e+00,6.697015222267889705e-05,-3.940103257225164267e-05
2.146825396825396748e+00,5.995346640903471898e-05,-1.017799164740657751e-04
2.147619047619047539e+00,4.627015807926239014e-05,-1.559754212341144127e-04
2.148412698412698330e+00,2.820923965530780289e-05,-1.942708135886904723e-04
2.149206349206349120e+00,8.693091271559086672e-06,-2.125841790999193938e-04
2.149999999999999911e+00,-9.243108885940446711e-06,-2.112278108229036124e-04
2.150793650793650702e+00,-2.300154083623276490e-05,-1.945232360778852349e-04
2.151587301587301493e+00,-3.088570500485692260e-05,-1.694718977313726968e-04
2.152380952380952284e+00,-3.237223000775280132e-05,-1.439038758878535059e-04
2.153174603174603075e+00,-2.812461418218277365e-05,-1.245673995131200572e-04
2.153968253968253865e+00,-1.975287023120765809e-05,-1.155485234594018812e-04
2.154761904761904656e+00,-9.398174069426118484e-06,-1.173100705166370852e-04
2.155555555555555447e+00,7.345916952230150629e-07,-1.265463232912958922e-04
2.156349206349206238e+00,8.780115787797139953e-06,-1.369400632743665949e-04
2.157142857142857029e+00,1.348085375623383904e-05,-1.407351179692430305e-04
2.157936507936507819e+00,1.430475945952078660e-05,-1.308003375607131680e-04
2.158730158730158610e+00,1.143739681220663268e-05,-1.026463851532721561e-04
2.159523809523809401e+00,5.686435191726834481e-06,-5.579513996091736439e-05
2.160317460317460192e+00,-1.673027291101315847e-06,5.929314501575970660e-06
2.161111111111110983e+00,-9.099217514299104125e-06,7.526254083333930702e-05
2.161904761904761774e+00,-1.502145255178762674e-05,1.431999507426506726e-04
2.162698412698412564e+00,-1.809535309857635373e-05,2.009779485770427033e-04
2.163492063492063355e+00,-1.744153258581617187e-05,2.417714499550574253e-04
2.164285714285714146e+00,-1.282576371755773782e-05,2.617286439490184831e-04
2.165079365079364937e+00,-4.738861246488558318e-06,2.602231526338230259e-04
2.165873015873015728e+00,5.656539621520269250e-06,2.394335037848362721e-04
2.166666666666666519e+00,1.672241914948527204e-05,2.035067625051751022e-04
2.167460317460317309e+00,2.665679942881792671e-05,1.576044560101232074e-04
2.168253968253968100e+00,3.385036458568701497e-05,1.070666873833687793e-04
2.169047619047618891e+00,3.719653263299853258e-05,5.680877345702040456e-05
2.169841269841269682e+00,3.627600094121109455e-05,1.095410673951301976e-05
2.170634920634920473e+00,3.137888912949955570e-05,-2.734835154938255742e-05
2.171428571428571264e+00,2.337918001502241054e-05,-5.598022174105755905e-05
2.172222222222222054e+00,1.351627395503842750e-05,-7.383197521399136683e-05
2.173015873015872845e+00,3.153197363689739361e-06,-8.074434873368493970e-05
2.173809523809523636e+00,-6.431329716019680341e-06,-7.744300842226203027e-05
2.174603174603174427e+00,-1.418743484509700982e-05,-6.547222452727383417e-05
2.175396825396825218e+00,-1.937345352157894993e-05,-4.710300076362599866e-05
2.176190476190476009e+00,-2.158803814835720536e-05,-2.517336055465323275e-05
2.176984126984126799e+00,-2.078096405638383363e-05,-2.823584564319526948e-06
2.177777777777777590e+00,-1.726006280516071412e-05,1.688308937693316241e-05
2.178571428571428381e+00,-1.168830792672925442e-05,3.141594648006609846e-05
2.179365079365079172e+00,-5.043404592987995745e-06,3.921241353211701375e-05
2.180158730158729963e+00,1.487461931776369670e-06,3.995915992344293194e-05
2.180952380952380754e+00,6.680279566496544274e-06,3.460017425766733791e-05
2.181746031746031544e+00,9.485933963103678265e-06,2.503459781737704063e-05
2.182539682539682335e+00,9.235259549666866523e-06,1.358145251691963089e-05
2.183333333333333126e+00,5.791495119253132542e-06,2.380125243885475188e-06
2.184126984126983917e+00,-3.861679074886361557e-07,-7.078731285377541611e-06
2.184920634920634708e+00,-8.289589413196072707e-06,-1.414701183052266778e-05
2.185714285714285499e+00,-1.652112822063111025e-05,-1.889685845797672200e-05
2.186507936507936289e+00,-2.354495067821127025e-05,-2.176009532792562567e-05
2.187301587301587080e+00,-2.798918973806966621e-05,-2.309548721059211010e-05
2.188095238095238315e+00,-2.894120676658937079e-05,-2.287216401914996737e-05
2.188888888888889106e+00,-2.616637040667825349e-05,-2.060388578530389657e-05
2.189682539682539897e+00,-2.018192180731320215e-05,-1.556220738156292903e-05
2.190476190476190688e+00,-1.214339006179210785e-05,-7.182828247948863828e-06
2.191269841269841478e+00,-3.554375835660175276e-06,4.496844528884996579e-06
2.192063492063492269e+00,4.123820042128709069e-06,1.854641041103032015e-05
2.192857142857143060e+00,9.838999318224119425e-06,3.312992939702044486e-05
2.193650793650793851e+00,1.316840673338846854e-05,4.581363454281116846e-05
2.194444444444444642e+00,1.432378242228800216e-05,5.412471634526863802e-05
2.195238095238095433e+00,1.395435949624800383e-05,5.619960087456534977e-05
2.196031746031746223e+00,1.283481331355486654e-05,5.132353028148697112e-05
2.196825396825397014e+00,1.156270168834440745e-05,4.019649250226344476e-05
2.197619047619047805e+00,1.037698049448314473e-05,2.484456710377112344e-05
2.198412698412698596e+00,9.150724069244932569e-06,8.194132464420645937e-06
2.199206349206349387e+00,7.536322171947037272e-06,-6.588456339550408591e-06
2.200000000000000178e+00,5.187782917972225565e-06,-1.682768011673451322e-05
2.200793650793650968e+00,1.970802400869381981e-06,-2.094857823283241769e-05
2.201587301587301759e+00,-1.910274616346471609e-06,-1.879969289179233359e-05
2.202380952380952550e+00,-5.904301447605487326e-06,-1.161032033537110737e-05
2.203174603174603341e+00,-9.220426727264809523e-06,-1.621780442746886623e-06
2.203968253968254132e+00,-1.101513495982305522e-05,8.471691587366228041e-06
2.204761904761904923e+00,-1.060855717048286449e-05,1.610602754948331565e-05
2.205555555555555713e+00,-7.680738702576141643e-06,1.932414209379973918e-05
2.206349206349206504e+00,-2.409941660487558867e-06,1.708367638080786772e-05
2.207142857142857295e+00,4.472660413186458890e-06,9.387780647618947227e-06
2.207936507936508086e+00,1.173213779288361519e-05,-2.746036958602833422e-06
2.208730158730158877e+00,1.780178183732895587e-05,-1.746039294617706395e-05
2.209523809523809668e+00,2.108198889041624984e-05,-3.235304351037775525e-05
2.210317460317460458e+00,2.032674328594025816e-05,-4.486492441268029676e-05
2.211111111111111249e+00,1.502049174517200574e-05,-5.273694114243719460e-05
2.211904761904762040e+00,5.616956662615410399e-06,-5.450591294498237583e-05
2.212698412698412831e+00,-6.459999141063352284e-06,-4.996665826752899581e-05
2.213492063492063622e+00,-1.907224755778013232e-05,-4.045750563557602090e-05
2.214285714285714413e+00,-2.980897152907103888e-05,-2.879407492652440238e-05
2.215079365079365203e+00,-3.648991800374366232e-05,-1.873670191434053907e-05
2.215873015873015994e+00,-3.760574826048241400e-05,-1.402625046483624996e-05
2.216666666666666785e+00,-3.260631001320299447e-05,-1.720573852781409434e-05
2.217460317460317576e+00,-2.199369090259551524e-05,-2.858840885245334228e-05
2.218253968253968367e+00,-7.219897721470047166e-06,-4.576706519666279022e-05
2.219047619047619158e+00,9.574179732480109624e-06,-6.393870777602329272e-05
2.219841269841269948e+00,2.591567282421115218e-05,-7.705669058699393713e-05
2.220634920634920739e+00,3.938135865275522806e-05,-7.951342074000678167e-05
2.221428571428571530e+00,4.794338595686618967e-05,-6.783515813148066457e-05
2.222222222222222321e+00,5.023919293950201265e-05,-4.183633829971483790e-05
2.223015873015873112e+00,4.574598215930484354e-05,-4.847240854021058205e-06
2.223809523809523903e+00,3.485473242673589448e-05,3.706989728794487349e-05
2.224603174603174693e+00,1.884584637107136911e-05,7.667093972166815245e-05
2.225396825396825484e+00,-2.343884947373505578e-07,1.073532806788411042e-04
2.226190476190476275e+00,-1.980613383687840822e-05,1.246853003804543997e-04
2.226984126984127066e+00,-3.710191877076810023e-05,1.272057550161489114e-04
2.227777777777777857e+00,-4.959462012026864542e-05,1.163404534850019515e-04
2.228571428571428648e+00,-5.542289888646729330e-05,9.559395304725364182e-05
2.229365079365079438e+00,-5.370427939599489188e-05,6.938238313153973944e-05
2.230158730158730229e+00,-4.465838451858378103e-05,4.191710422502272854e-05
2.230952380952381020e+00,-2.953342755137203604e-05,1.644721279682034642e-05
2.231746031746031811e+00,-1.038831840990090625e-05,-5.011717656691637455e-06
2.232539682539682602e+00,1.020216196851958485e-05,-2.152300312057066971e-05
2.233333333333333393e+00,2.947328587109175954e-05,-3.284348309636765504e-05
2.234126984126984183e+00,4.480898126718245412e-05,-3.904186725663095180e-05
2.234920634920634974e+00,5.408396470813648532e-05,-4.029118327708964230e-05
2.235714285714285765e+00,5.598783905231173114e-05,-3.687962049170735550e-05
2.236507936507936556e+00,5.028538766436470428e-05,-2.936482469751283754e-05
2.237301587301587347e+00,3.794520110156279427e-05,-1.873638188785826537e-05
2.238095238095238138e+00,2.106446555940567688e-05,-6.461932638617002451e-06
2.238888888888888928e+00,2.545858185341266492e-06,5.645537951876212080e-06
2.239682539682539719e+00,-1.445275193753711245e-05,1.572077236839776671e-05
2.240476190476190510e+00,-2.718878580704356832e-05,2.221199813035709119e-05
2.241269841269841301e+00,-3.394598267369921559e-05,2.419698123888559547e-05
2.242063492063492092e+00,-3.439128460586965007e-05,2.154164947827954358e-05
2.242857142857142883e+00,-2.955085640696686089e-05,1.485618304180709360e-05
2.243650793650793673e+00,-2.140975247137920018e-05,5.285484796511235158e-06
2.244444444444444464e+00,-1.227440958738037783e-05,-5.771811236293878130e-06
2.245238095238095255e+00,-4.114166386064604228e-06,-1.691684184693089592e-05
2.246031746031746046e+00,1.910009939168477056e-06,-2.691781771789254044e-05
2.246825396825396837e+00,5.602882403157653984e-06,-3.478763313755012319e-05
2.247619047619047628e+00,7.569394442673193688e-06,-3.981017605543635631e-05
2.248412698412698418e+00,8.823975718155715927e-06,-4.156672405962485344e-05
2.249206349206349209e+00,1.032954275401185320e-05,-3.999363298213398096e-05
2.250000000000000000e+00,1.261745640570786379e-05,-3.545880062823253279e-05
2.250793650793650791e+00,1.559372317905680775e-05,-2.880339659192580556e-05
2.251587301587301582e+00,1.857369302168949385e-05,-2.128598027283575429e-05
2.252380952380952372e+00,2.052158886535564617e-05,-1.439725776630037111e-05
2.253174603174603163e+00,2.041161739921210262e-05,-9.568214999675773072e-06
2.253968253968253954e+00,1.759017865232160042e-05,-7.843639448289460499e-06
2.254761904761904745e+00,1.202094731610039932e-05,-9.614966601070992083e-06
2.255555555555555536e+00,4.339094321926286150e-06,-1.449411401856096757e-05
2.256349206349206327e+00,-4.290146082842291145e-06,-2.137101301980442458e-05
2.257142857142857117e+00,-1.245007988819456804e-05,-2.864627178099012495e-05
2.257936507936507908e+00,-1.879796710415465588e-05,-3.458135775598973594e-05
2.258730158730158699e+00,-2.235249553554785951e-05,-3.767641687445428476e-05
2.259523809523809490e+00,-2.268644878280085811e-05,-3.698283143306060287e-05
2.260317460317460281e+00,-1.999738665985326981e-05,-3.228445162752939198e-05
2.261111111111111072e+00,-1.505224202841976079e-05,-2.412344036361117251e-05
2.261904761904761862e+00,-9.020984267451017413e-06,-1.368489889296926980e-05
2.262698412698412653e+00,-3.231619452885303113e-06,-2.576678629122442548e-06
2.263492063492063444e+00,1.108220777603007116e-06,7.454305395761833419e-06
2.264285714285714235e+00,3.169859339733537224e-06,1.482950813791135773e-05
2.265079365079365026e+00,2.687359573952881662e-06,1.842472921131778235e-05
2.265873015873015817e+00,2.071331238705852960e-08,1.777907067623095760e-05
2.266666666666666607e+00,-3.924266556059908180e-06,1.317374616749167472e-05
2.267460317460317398e+00,-7.908681338621445248e-06,5.554200737267098855e-06
2.268253968253968189e+00,-1.066084514764208913e-05,-3.687399547914702617e-06
2.269047619047618980e+00,-1.119417277498914139e-05,-1.300961967293693800e-05
2.269841269841269771e+00,-9.064599116644158573e-06,-2.101660689105645579e-05
2.270634920634920562e+00,-4.500292227577591553e-06,-2.667659655806931790e-05
2.271428571428571352e+00,1.634614607604588116e-06,-2.942638779176883602e-05
2.272222222222222143e+00,8.036305795147994854e-06,-2.916655494686531808e-05
2.273015873015872934e+00,1.326316854443425489e-05,-2.617928686677716354e-05
2.273809523809523725e+00,1.605751877632324590e-05,-2.100622169532317290e-05
2.274603174603174516e+00,1.560442734597297196e-05,-1.431632901395496416e-05
2.275396825396825307e+00,1.167762356910114003e-05,-6.784916062617764070e-06
2.276190476190476097e+00,4.661546709503396017e-06,1.001763823751881332e-06
2.276984126984126888e+00,-4.534994180194169017e-06,8.607641810247233899e-06
2.277777777777777679e+00,-1.464532714562581832e-05,1.577124094835234344e-05
2.278571428571428470e+00,-2.425645151358385849e-05,2.239595180223765016e-05
2.279365079365079261e+00,-3.202768437956957310e-05,2.851137076416394717e-05
2.280158730158730052e+00,-3.688359805067465568e-05,3.421262985014467969e-05
2.280952380952380842e+00,-3.816033855104048069e-05,3.958823521427329848e-05
2.281746031746031633e+00,-3.569530824469641279e-05,4.465217308903530444e-05
2.282539682539682424e+00,-2.985355876076442716e-05,4.929867954843826017e-05
2.283333333333333215e+00,-2.148193018493245994e-05,5.329374739438731169e-05
2.284126984126984006e+00,-1.178331421181005435e-05,5.630675266023127217e-05
2.284920634920634797e+00,-2.116981760263344370e-06,5.797408049732857442e-05
2.285714285714285587e+00,6.244811406240299003e-06,5.797978150212480195e-05
2.286507936507936378e+00,1.235123133267112215e-05,5.613728427588405017e-05
2.287301587301587169e+00,1.573878881214602133e-05,5.245822902101740612e-05
2.288095238095237960e+00,1.648359327375443836e-05,4.719633727277488058e-05
2.288888888888888751e+00,1.512514515877522991e-05,4.085568164472151698e-05
2.289682539682539542e+00,1.248231944196543674e-05,3.415597240417320201e-05
2.290476190476190332e+00,9.411218386604659747e-06,2.795296659100507744e-05
2.291269841269841123e+00,6.569578492589578207e-06,2.311774357509870301e-05
2.292063492063491914e+00,4.250976045695219939e-06,2.038458653924782831e-05
2.292857142857142705e+00,2.335189665975849497e-06,2.018754386735496551e-05
2.293650793650793496e+00,3.716712694277720628e-07,2.252142953953316040e-05
2.294444444444444287e+00,-2.223249650690349276e-06,2.687517674902922013e-05
2.295238095238095077e+00,-5.909137529300660243e-06,3.227779295141824104e-05
2.296031746031745868e+00,-1.078005250784825872e-05,3.746048289597344265e-05
2.296825396825396659e+00,-1.641690282543759572e-05,4.108858989446921974e-05
2.297619047619047450e+00,-2.189048173946338613e-05,4.199139005531039609e-05
2.298412698412698241e+00,-2.593088385608645165e-05,3.933886183272262076e-05
2.299206349206349032e+00,-2.722676766984191292e-05,3.275875206172191277e-05
2.299999999999999822e+00,-2.477126105822714320e-05,2.240972801251378340e-05
2.300793650793650613e+00,-1.815018226802586154e-05,9.012418119743986807e-06
2.301587301587301404e+00,-7.685284900411530739e-06,-6.187199826255281998e-06
2.302380952380952195e+00,5.603467236010990207e-06,-2.155989745506103615e-05
2.303174603174602986e+00,2.018682784209683407e-05,-3.536128210220056324e-05
2.303968253968253777e+00,3.428543113727048491e-05,-4.609884515507792560e-05
2.304761904761904567e+00,4.610930111597791808e-05,-5.290956283344072658e-05
2.305555555555555358e+00,5.402954924590992324e-05,-5.581512709537704911e-05
2.306349206349206149e+00,5.670192016080088520e-05,-5.572314527793019039e-05
2.307142857142856940e+00,5.321055360654405745e-05,-5.410418755031204803e-05
2.307936507936507731e+00,4.329616926103921251e-05,-5.239367971186017901e-05
2.308730158730158522e+00,2.767432888321541673e-05,-5.131391788923297226e-05
2.309523809523809312e+00,8.362917008419782624e-06,-5.041388384603160056e-05
2.310317460317460103e+00,-1.113809377142743198e-05,-4.809608402550922195e-05
2.311111111111110894e+00,-2.600029815697277964e-05,-4.220948909546571524e-05
2.311904761904761685e+00,-3.069596060887146979e-05,-3.101777043570622404e-05
2.312698412698412920e+00,-2.012506832250103258e-05,-1.415897562241327687e-05
2.313492063492063711e+00,8.907436570842491936e-06,6.795099761665380636e-06
2.314285714285714501e+00,5.618384300971238467e-05,2.841497834011535788e-05
2.315079365079365292e+00,1.169721118234897625e-04,4.613637760352507433e-05
2.315873015873016083e+00,1.817855319253770449e-04,5.542873616376939398e-05
2.316666666666666874e+00,2.373509860806448954e-04,5.305435511763052997e-05
2.317460317460317665e+00,2.688898620564423637e-04,3.801804623156184685e-05
2.318253968253968456e+00,2.634542287259553734e-04,1.190891787920331308e-05
2.319047619047619246e+00,2.136542954594572181e-04,-2.143706911005797272e-05
2.319841269841270037e+00,1.207974136023909860e-04,-5.677307639117372125e-05
2.320634920634920828e+00,-3.611794768828067412e-06,-8.845592633267634290e-05
2.321428571428571619e+00,-1.387924248644628340e-04,-1.113643496703276589e-04
2.322222222222222410e+00,-2.582305621912381961e-04,-1.216021101313839985e-04
2.323015873015873201e+00,-3.353021359166626319e-04,-1.169856958605639192e-04
2.323809523809523991e+00,-3.497490924988556904e-04,-9.733028606482150755e-05
2.324603174603174782e+00,-2.933780456929654793e-04,-6.451137240501099630e-05
2.325396825396825573e+00,-1.733726913190299958e-04,-2.226617246175956102e-05
2.326190476190476364e+00,-1.209277299484081715e-05,2.427339685058464732e-05
2.326984126984127155e+00,1.569285146307436993e-04,6.926991305105387534e-05
2.327777777777777946e+00,2.960891916416398713e-04,1.069776879474278544e-04
2.328571428571428736e+00,3.723390047680685496e-04,1.324822323812176314e-04
2.329365079365079527e+00,3.651816412276863042e-04,1.422329700471350149e-04
2.330158730158730318e+00,2.719158446394401643e-04,1.343273736571369732e-04
2.330952380952381109e+00,1.085981920901089214e-04,1.086381162300613953e-04
2.331746031746031900e+00,-9.364738069525298388e-05,6.691927394456232076e-05
2.332539682539682691e+00,-2.960299596370855155e-04,1.292445406290770941e-05
2.333333333333333481e+00,-4.611885138809933304e-04,-4.761255030203635210e-05
2.334126984126984272e+00,-5.614939681160423419e-04,-1.073872790148280946e-04
2.334920634920635063e+00,-5.843513024351394214e-04,-1.584780615297703835e-04
2.335714285714285854e+00,-5.332834653002196425e-04,-1.937292109591854110e-04
2.336507936507936645e+00,-4.249366663389666956e-04,-2.081935652537958816e-04
2.337301587301587436e+00,-2.833697460044280487e-04,-2.001854674716243123e-04
2.338095238095238226e+00,-1.336272870608294931e-04,-1.716136696110267135e-04
2.338888888888889017e+00,3.527790602017041800e-06,-1.274944445095919725e-04
2.339682539682539808e+00,1.145724538552892342e-04,-7.479590080189275892e-05
2.340476190476190599e+00,1.936824337212722015e-04,-2.094855216233106236e-05
2.341269841269841390e+00,2.413078701591901850e-04,2.759861058308227261e-05
2.342063492063492181e+00,2.618831391748002919e-04,6.649058130543623662e-05
2.342857142857142971e+00,2.616368500544847425e-04,9.409381756721893020e-05
2.343650793650793762e+00,2.470934158912994135e-04,1.115504173867660332e-04
2.344444444444444553e+00,2.243703444819885836e-04,1.221747400596915744e-04
2.345238095238095344e+00,1.989723625612557355e-04,1.301839688193870436e-04
2.346031746031746135e+00,1.756055734331749506e-04,1.390020259692617837e-04
2.346825396825396925e+00,1.576461765470860881e-04,1.496867561918280168e-04
2.347619047619047716e+00,1.462471868372147645e-04,1.601441875085980347e-04
2.348412698412698507e+00,1.394721303216663771e-04,1.655628679560620692e-04
2.349206349206349298e+00,1.320705117069665953e-04,1.600251947113816211e-04
2.350000000000000089e+00,1.163951281246526376e-04,1.387679930217972861e-04
2.350793650793650880e+00,8.452128538109894638e-05,1.002817201664977907e-04
2.351587301587301670e+00,3.106132271739947467e-05,4.746422253336345234e-05
2.352380952380952461e+00,-4.424741450417588149e-05,-1.263494947222553420e-05
2.353174603174603252e+00,-1.351672616121963450e-04,-7.045666490929750644e-05
2.353968253968254043e+00,-2.294655953819783780e-04,-1.164608838783000929e-04
2.354761904761904834e+00,-3.113787125793444476e-04,-1.437318010793117956e-04
2.355555555555555625e+00,-3.654397340213902824e-04,-1.498049993438996426e-04
2.356349206349206415e+00,-3.805544815647552109e-04,-1.371094399544644387e-04
2.357142857142857206e+00,-3.530522665641905550e-04,-1.118915025169910348e-04
2.357936507936507997e+00,-2.877326275445583805e-04,-8.203336552902963034e-05
2.358730158730158788e+00,-1.965731297247818232e-04,-5.458189708257442829e-05
2.359523809523809579e+00,-9.551739238305540999e-05,-3.387757042015426134e-05
2.360317460317460370e+00,-3.546955108714849731e-07,-2.086558425206365433e-05
2.361111111111111160e+00,7.706657953679028547e-05,-1.364774193323345771e-05
2.361904761904761951e+00,1.312326495783069490e-04,-8.872501583099077965e-06
2.362698412698412742e+00,1.634004243793042547e-04,-3.342023485165559684e-06
2.363492063492063533e+00,1.801231054512290712e-04,4.754057845895535125e-06
2.364285714285714324e+00,1.904468633437159206e-04,1.535440808570353403e-05
2.365079365079365115e+00,2.026771615108119515e-04,2.684980718812689593e-05
2.365873015873015905e+00,2.216493696238861638e-04,3.696773668818247570e-05
2.366666666666666696e+00,2.472151927586068300e-04,4.379683666662831837e-05
2.367460317460317487e+00,2.742709550926208375e-04,4.653840143960927722e-05
2.368253968253968278e+00,2.942342946006003051e-04,4.573240941871148683e-05
2.369047619047619069e+00,2.975250444643761727e-04,4.294046460085766941e-05
2.369841269841269860e+00,2.763774949058016837e-04,4.007306295963301151e-05
2.370634920634920650e+00,2.272359436683260732e-04,3.864257297030945668e-05
2.371428571428571441e+00,1.520974614902566172e-04,3.920064647769344417e-05
2.372222222222222232e+00,5.846897822244531104e-05,4.112626545537675449e-05
2.373015873015873023e+00,-4.198264188169597389e-05,4.280955822523376122e-05
2.373809523809523814e+00,-1.356486589578556341e-04,4.215484649138959383e-05
2.374603174603174605e+00,-2.094612361124441368e-04,3.723538641859578242e-05
2.375396825396825395e+00,-2.531022087233748504e-04,2.689883311043490303e-05
2.376190476190476186e+00,-2.606040187923943990e-04,1.115674056014028815e-05
2.376984126984126977e+00,-2.312221659467779964e-04,-8.718592394017629285e-06
2.377777777777777768e+00,-1.695938394669976792e-04,-3.036222793867639555e-05
2.378571428571428559e+00,-8.523620629572424556e-05,-5.065911795902264676e-05
2.379365079365079350e+00,8.590945302367218847e-06,-6.617743352697613181e-05
2.380158730158730140e+00,9.665921667531738822e-05,-7.366017805317036187e-05
2.380952380952380931e+00,1.641129329600602847e-04,-7.057777575710147248e-05
2.381746031746031722e+00,1.991027291969325918e-04,-5.571796849115741784e-05
2.382539682539682513e+00,1.951813208788512951e-04,-2.971046360955662346e-05
2.383333333333333304e+00,1.528041186732267184e-04,4.692190805030304449e-06
2.384126984126984095e+00,7.940972544188285985e-05,4.277026013130470631e-05
2.384920634920634885e+00,-1.207296029126449824e-05,7.853503943373647443e-05
2.385714285714285676e+00,-1.059800840348426544e-04,1.058836589335122218e-04
2.386507936507936467e+00,-1.872305075714225360e-04,1.199011582062508370e-04
2.387301587301587258e+00,-2.443180722233000276e-04,1.178921007167592214e-04
2.388095238095238049e+00,-2.711831711948204000e-04,9.982874976600775001e-05
2.388888888888888840e+00,-2.675430820150930368e-04,6.816036209057671762e-05
2.389682539682539630e+00,-2.377945667551919519e-04,2.716611078331766327e-05
2.390476190476190421e+00,-1.890691446727416026e-04,-1.788038188410387660e-05
2.391269841269841212e+00,-1.292131002071967997e-04,-6.153205700632638302e-05
2.392063492063492003e+00,-6.531981583935222730e-05,-9.888517471005193982e-05
2.392857142857142794e+00,-3.073640380128873987e-06,-1.261656179393898388e-04
2.393650793650793585e+00,5.322595430983428693e-05,-1.411524327148682160e-04
2.394444444444444375e+00,1.003268919136708371e-04,-1.433743632266697024e-04
2.395238095238095166e+00,1.357497142669111378e-04,-1.340106259290481210e-04
2.396031746031745957e+00,1.577857552238221949e-04,-1.154773219219653685e-04
2.396825396825396748e+00,1.657629220677169282e-04,-9.077833175662625717e-05
2.397619047619047539e+00,1.604186033558076252e-04,-6.280014407589648551e-05
2.398412698412698330e+00,1.441638372571862111e-04,-3.376962037370173831e-05
2.399206349206349120e+00,1.210468468266921494e-04,-5.036866336693272612e-06
2.399999999999999911e+00,9.629344156508815858e-05,2.278094400038701382e-05
2.400793650793650702e+00,7.539937232783111066e-05,4.939389337981420414e-05
2.401587301587301493e+00,6.287405226400422206e-05,7.436459591657591328e-05
2.402380952380952284e+00,6.088211505907539686e-05,9.677879664653255573e-05
2.403174603174603075e+00,6.816934902733514105e-05,1.152105750720069038e-04
2.403968253968253865e+00,7.972452451491066907e-05,1.279961465115278031e-04
2.404761904761904656e+00,8.753576004526520380e-05,1.336815775061181183e-04
2.405555555555555447e+00,8.251046019424383108e-05,1.314283113087138361e-04
2.406349206349206238e+00,5.719569163856505462e-05,1.212046527188953587e-04
2.407142857142857029e+00,8.514946307872735257e-06,1.037389572895275298e-04
2.407936507936507819e+00,-6.046108962059364346e-05,8.035054712596389364e-05
2.408730158730158610e+00,-1.404994586512323747e-04,5.279511163289932055e-05
2.409523809523809401e+00,-2.181549118303665279e-04,2.315953734931072111e-05
2.410317460317460192e+00,-2.791509855467758441e-04,-6.271619374487555121e-06
2.411111111111110983e+00,-3.120933851752079129e-04,-3.326945245994775971e-05
2.411904761904761774e+00,-3.112961439241720280e-04,-5.603202744825241954e-05
2.412698412698412564e+00,-2.778686264380118322e-04,-7.355043794451794300e-05
2.413492063492063355e+00,-2.188767674468612516e-04,-8.578688626655868530e-05
2.414285714285714146e+00,-1.450481298675916132e-04,-9.353445949829220158e-05
2.415079365079364937e+00,-6.788628369277652566e-05,-9.797662780530001368e-05
2.415873015873015728e+00,2.893386933075551569e-06,-1.001277846113865619e-04
2.416666666666666519e+00,6.093747353569733087e-05,-1.004134903232029675e-04
2.417460317460317309e+00,1.035714632909938405e-04,-9.858770583654211052e-05
2.418253968253968100e+00,1.310169304192005540e-04,-9.401312920913691598e-05
2.419047619047618891e+00,1.449911592149083148e-04,-8.613996715360951477e-05
2.419841269841269682e+00,1.473109444425988314e-04,-7.491364141063562934e-05
2.420634920634920473e+00,1.390446548087687908e-04,-6.089191297531812511e-05
2.421428571428571264e+00,1.204988157145163978e-04,-4.503617229273077589e-05
2.422222222222222054e+00,9.197449352987550658e-05,-2.834171868802277171e-05
2.423015873015872845e+00,5.489317228963786963e-05,-1.155208265434157268e-05
2.423809523809523636e+00,1.269365183307598159e-05,4.880194354077883771e-06
2.424603174603174427e+00,-2.904893322058287264e-05,2.059648546548290129e-05
2.425396825396825218e+00,-6.351152289071441959e-05,3.505548057882658017e-05
2.426190476190476009e+00,-8.428536344511827684e-05,4.737477944559447045e-05
2.426984126984126799e+00,-8.719971640655417306e-05,5.641314687229134387e-05
2.427777777777777590e+00,-7.159705216423445178e-05,6.107887300471501408e-05
2.428571428571428381e+00,-4.057822310605206911e-05,6.073363293472155023e-05
2.429365079365079172e+00,-1.614251502964075260e-07,5.551920684277823813e-05
2.430158730158729963e+00,4.229743131503448811e-05,4.646422472161229128e-05
2.430952380952380754e+00,7.986729996905110357e-05,3.530566569709257834e-05
2.431746031746031544e+00,1.074625225432449975e-04,2.406589439763522575e-05
2.432539682539682335e+00,1.225910729621088133e-04,1.452571029568492045e-05
2.433333333333333126e+00,1.253482101388987203e-04,7.775401486568104799e-06
2.434126984126983917e+00,1.177916607788492105e-04,3.987667721076800547e-06
2.434920634920634708e+00,1.029798157401825876e-04,2.469297133787211131e-06
2.435714285714285499e+00,8.400537303861019430e-05,1.959355462592501922e-06
2.436507936507936289e+00,6.330788928490508228e-05,1.076447733028212354e-06
2.437301587301587080e+00,4.241906317211761049e-05,-1.217465962211772820e-06
2.438095238095238315e+00,2.212975828285519193e-05,-5.271688519002419370e-06
2.438888888888889106e+00,2.922298843983467609e-06,-1.062088990673359136e-05
2.439682539682539897e+00,-1.456960186923255895e-05,-1.611346139228749791e-05
2.440476190476190688e+00,-2.930062965460142186e-05,-2.025094207416099841e-05
2.441269841269841478e+00,-3.987949317851627036e-05,-2.163506200555821493e-05
2.442063492063492269e+00,-4.493470159501172231e-05,-1.939462723997003400e-05
2.442857142857143060e+00,-4.362248643211543645e-05,-1.347565687880184465e-05
2.443650793650793851e+00,-3.606662527056702923e-05,-4.715930398469260883e-06
2.444444444444444642e+00,-2.356183264026640045e-05,5.318568669483354217e-06
2.445238095238095433e+00,-8.471972449854507016e-06,1.469265298488011347e-05
2.446031746031746223e+00,6.144770233881801886e-06,2.155664781960485641e-05
2.446825396825397014e+00,1.708683334723345624e-05,2.456981003634405990e-05
2.447619047619047805e+00,2.161452134275464540e-05,2.318282849288783940e-05
2.448412698412698596e+00,1.798969611734118582e-05,1.772517376427415603e-05
2.449206349206349387e+00,5.850954062670846689e-06,9.305561966899045633e-06
2.450000000000000178e+00,-1.363617788817306686e-05,-4.289440964765949035e-07
2.450793650793650968e+00,-3.786787294052101091e-05,-9.622516867931916738e-06
2.451587301587301759e+00,-6.311071952077782193e-05,-1.657792300513852762e-05
2.452380952380952550e+00,-8.500692701911496008e-05,-2.010388003702708073e-05
2.453174603174603341e+00,-9.925538264069596781e-05,-1.977366617467250223e-05
2.453968253968254132e+00,-1.024158554127329446e-04,-1.602810876236469441e-05
2.454761904761904923e+00,-9.270187154339860002e-05,-1.008142494548725307e-05
2.455555555555555713e+00,-7.054568300713309282e-05,-3.633759141620425967e-06
2.456349206349206504e+00,-3.871489429177775904e-05,1.552933856636462656e-06
2.457142857142857295e+00,-1.868064667466436270e-06,4.112733448966452545e-06
2.457936507936508086e+00,3.438349516876439621e-05,3.439898765162602749e-06
2.458730158730158877e+00,6.466595622335066893e-05,-1.528858833670404815e-07
2.459523809523809668e+00,8.494931274140275095e-05,-5.532153915563193858e-06
2.460317460317460458e+00,9.326588695373115936e-05,-1.106003544010681150e-05
2.461111111111111249e+00,8.988357269313579996e-05,-1.502366155476359673e-05
2.461904761904762040e+00,7.696484023618933162e-05,-1.605219269407191923e-05
2.462698412698412831e+00,5.788461544018317408e-05,-1.342096863606235778e-05
2.463492063492063622e+00,3.642923613058890442e-05,-7.187198791046236926e-06
2.464285714285714413e+00,1.606760962813097660e-05,1.852683946453653335e-06
2.465079365079365203e+00,-5.801446350512702531e-07,1.235457262002703353e-05
2.465873015873015994e+00,-1.201513721651522543e-05,2.270929195017641855e-05
2.466666666666666785e+00,-1.786643859933955401e-05,3.134716168270878958e-05
2.467460317460317576e+00,-1.867900370295078294e-05,3.700350544534418678e-05
2.468253968253968367e+00,-1.557835159635807213e-05,3.890512759326394482e-05
2.469047619047619158e+00,-9.928843133784134183e-06,3.686086241044047446e-05
2.469841269841269948e+00,-3.079396963250295060e-06,3.125714132173760602e-05
2.470634920634920739e+00,3.766486853390986933e-06,2.297176289774308040e-05
2.471428571428571530e+00,9.579613572512485681e-06,1.322724531821742958e-05
2.472222222222222321e+00,1.349171515513290281e-05,3.408018470490956498e-06
2.473015873015873112e+00,1.479970368297114229e-05,-5.136745588984367559e-06
2.473809523809523903e+00,1.302008525407273657e-05,-1.128471993134425295e-05
2.474603174603174693e+00,7.985897440131066582e-06,-1.430182822631444290e-05
2.475396825396825484e+00,-5.553439323596459455e-08,-1.394150338760293579e-05
2.476190476190476275e+00,-1.039887563031040918e-05,-1.045273598457439589e-05
2.476984126984127066e+00,-2.193366938226795279e-05,-4.491140536380852859e-06
2.477777777777777857e+00,-3.330474668924606315e-05,3.035272512615204054e-06
2.478571428571428648e+00,-4.315162059652988865e-05,1.112583718393167880e-05
2.479365079365079438e+00,-5.036430433581415289e-05,1.879714028380451073e-05
2.480158730158730229e+00,-5.427836810968550597e-05,2.512614938042026456e-05
2.480952380952381020e+00,-5.474746207231178540e-05,2.925867730604688705e-05
2.481746031746031811e+00,-5.207561915578766702e-05,3.044394732475119218e-05
2.482539682539682602e+00,-4.684697927057885735e-05,2.814534371269430854e-05
2.483333333333333393e+00,-3.973067870507806078e-05,2.223056864375592872e-05
2.484126984126984183e+00,-3.134188455116241614e-05,1.318388088694040436e-05
2.484920634920634974e+00,-2.220306060682802183e-05,2.239643785453555255e-06
2.485714285714285765e+00,-1.279253512208279160e-05,-8.664382157858916788e-06
2.486507936507936556e+00,-3.622241535600729132e-06,-1.716651655056365976e-05
2.487301587301587347e+00,4.723622361375963286e-06,-2.096497625660252701e-05
2.488095238095238138e+00,1.163015505654231164e-05,-1.839753779208088774e-05
2.488888888888888928e+00,1.656755812662351316e-05,-8.957133121135863604e-06
2.489682539682539719e+00,1.923414951061307358e-05,6.422975194112982942e-06
2.490476190476190510e+00,1.966415839645887923e-05,2.543205950790214235e-05
2.491269841269841301e+00,1.825112957242897366e-05,4.480897242786369827e-05
2.492063492063492092e+00,1.567020921277664057e-05,6.102727290963183408e-05
2.492857142857142883e+00,1.272223766032640389e-05,7.104605403734474565e-05
2.493650793650793673e+00,1.015575435178737677e-05,7.292504153483406811e-05
2.494444444444444464e+00,8.532535637045635211e-06,6.616114847654000139e-05
2.495238095238095255e+00,8.177600373539216768e-06,5.168682667894501767e-05
2.496031746031746046e+00,9.206773451545003053e-06,3.154900456103174061e-05
2.496825396825396837e+00,1.158434648387343872e-05,8.359054947110101878e-06
2.497619047619047628e+00,1.515700796103999210e-05,-1.533280939643016713e-05
2.498412698412698418e+00,1.963960948391695188e-05,-3.755152087499810177e-05
2.499206349206349209e+00,2.457066342175018346e-05,-5.713578875535124950e-05
2.500000000000000000e+00,2.928385932762299999e-05,-7.363049190251924440e-05
2.500793650793650791e+00,3.294312112386144206e-05,-8.690154056832956049e-05
2.501587301587301582e+00,3.466488300832716829e-05,-9.666895799065874180e-05
2.502380952380952372e+00,3.371329121428719595e-05,-1.021996388150927447e-04
2.503174603174603163e+00,2.971734511308356458e-05,-1.023339899284581733e-04
2.503968253968253954e+00,2.283899792985745632e-05,-9.587149670448405232e-05
2.504761904761904745e+00,1.382687384455048428e-05,-8.217950106594021820e-05
2.505555555555555536e+00,3.920290981013327824e-06,-6.178191855561211698e-05
2.506349206349206327e+00,-5.386848252765929487e-06,-3.666942116102749126e-05
2.507142857142857117e+00,-1.266705729041440589e-05,-1.016371117072902713e-05
2.507936507936507908e+00,-1.687895368258958152e-05,1.366094571016025095e-05
2.508730158730158699e+00,-1.759593369880491805e-05,3.082590744106746206e-05
2.509523809523809490e+00,-1.508138216365824108e-05,3.831071611961512247e-05
2.510317460317460281e+00,-1.019633063265995667e-05,3.470138807952043565e-05
2.511111111111111072e+00,-4.176676804841538558e-06,2.048666403319203947e-05
2.511904761904761862e+00,1.647265536840625155e-06,-2.030504195686050896e-06
2.512698412698412653e+00,6.107978177699139872e-06,-2.914551092305204150e-05
2.513492063492063444e+00,8.375642293093298041e-06,-5.636445434503170143e-05
2.514285714285714235e+00,8.033628916054745339e-06,-7.907524477685954570e-05
2.515079365079365026e+00,5.077164410534696886e-06,-9.316697083011116242e-05
2.515873015873015817e+00,-1.278930111412421940e-07,-9.554487398733841209e-05
2.516666666666666607e+00,-6.903738342143486566e-06,-8.454174394414549316e-05
2.517460317460317398e+00,-1.433740423954300314e-05,-6.024259402895520645e-05
2.518253968253968189e+00,-2.138534929195599126e-05,-2.470009431647888297e-05
2.519047619047618980e+00,-2.700710535391217951e-05,1.805547812391990713e-05
2.519841269841269771e+00,-3.031543522990553507e-05,6.235290100861578199e-05
2.520634920634920562e+00,-3.072179130570512406e-05,1.016577188020976292e-04
2.521428571428571352e+00,-2.805284734962116555e-05,1.297415958654104834e-04
2.522222222222222143e+00,-2.261210216978585898e-05,1.420156482356217849e-04
2.523015873015872934e+00,-1.515941805102809567e-05,1.366750314385973598e-04
2.523809523809523725e+00,-6.787431429573560730e-06,1.152931941528341318e-04
2.524603174603174516e+00,1.304248426240861710e-06,8.262834666374753543e-05
2.525396825396825307e+00,8.097458765522004597e-06,4.562988472863825081e-05
2.526190476190476097e+00,1.302546875554085627e-05,1.188403901864952428e-05
2.526984126984126888e+00,1.612437421782051924e-05,-1.207895790238015841e-05
2.527777777777777679e+00,1.799040535521609398e-05,-2.215399841424745597e-05
2.528571428571428470e+00,1.953550673282856832e-05,-1.736463299287205174e-05
2.529365079365079261e+00,2.161557896979458428e-05,2.119428667541132983e-07
2.530158730158730052e+00,2.466024333276324517e-05,2.617111543919525531e-05
2.530952380952380842e+00,2.843426273830549001e-05,5.487253727923615577e-05
2.531746031746031633e+00,3.201469018739291694e-05,8.057624993841364341e-05
2.532539682539682424e+00,3.399975479931729788e-05,9.837180931275619935e-05
2.533333333333333215e+00,3.289872062721657295e-05,1.047743606306548791e-04
2.534126984126984006e+00,2.760015064941955115e-05,9.798764855851882917e-05
2.534920634920634797e+00,1.778784508806330073e-05,7.791282303065507112e-05
2.535714285714285587e+00,4.176017588783957130e-06,4.599568120210587502e-05
2.536507936507936378e+00,-1.152716610497971410e-05,4.977075983374640108e-06
2.537301587301587169e+00,-2.694601320099840921e-05,-4.142187360903094981e-05
2.538095238095237960e+00,-3.958012366425423543e-05,-8.887016043921826106e-05
2.538888888888888751e+00,-4.741509367680245252e-05,-1.328528854461532823e-04
2.539682539682539542e+00,-4.943046213115904358e-05,-1.691440757930319581e-04
2.540476190476190332e+00,-4.586877992343621989e-05,-1.942865419896096083e-04
2.541269841269841123e+00,-3.819411352849574117e-05,-2.060043310753634151e-04
2.542063492063491914e+00,-2.873914076836252621e-05,-2.034672160150904810e-04
2.542857142857142705e+00,-2.011362082060088574e-05,-1.873598613865647036e-04
2.543650793650793496e+00,-1.451907224104285736e-05,-1.597557104049558403e-04
2.544444444444444287e+00,-1.315952516432739705e-05,-1.238247858786932021e-04
2.545238095238095077e+00,-1.592336787922380806e-05,-8.340951618685363723e-05
2.546031746031745868e+00,-2.142914048695100884e-05,-4.250407162819827111e-05
2.546825396825396659e+00,-2.741059037010324420e-05,-4.692753798952094358e-06
2.547619047619047450e+00,-3.131466159980841792e-05,2.735667491598345259e-05
2.548412698412698241e+00,-3.093744835793493168e-05,5.221466720514993961e-05
2.549206349206349032e+00,-2.493438432119620402e-05,6.971225861710975526e-05
2.549999999999999822e+00,-1.309625893912887998e-05,8.064098240631772713e-05
2.550793650793650613e+00,3.642904098605599896e-06,8.624124710442407046e-05
2.551587301587301404e+00,2.343094068914745160e-05,8.768585147792764699e-05
2.552380952380952195e+00,4.387228208369928369e-05,8.576066902198478984e-05
2.553174603174602986e+00,6.244710827990559738e-05,8.084676919714185836e-05
2.553968253968253777e+00,7.687700237942062431e-05,7.317131301030122589e-05
2.554761904761904567e+00,8.537760382188015697e-05,6.317301398731865443e-05
2.555555555555555358e+00,8.679710238867063756e-05,5.176828416679454982e-05
2.556349206349206149e+00,8.068850152590976120e-05,4.034487959737875095e-05
2.557142857142856940e+00,6.737231410337055613e-05,3.044855250655102249e-05
2.557936507936507731e+00,4.800587526703557870e-05,2.329740583821356424e-05
2.558730158730158522e+00,2.461091910947651521e-05,1.936238195685102044e-05
2.559523809523809312e+00,-3.065340630589786931e-08,1.823210453341844500e-05
2.560317460317460103e+00,-2.268537651799920659e-05,1.884756031245286257e-05
2.561111111111110894e+00,-4.017931148962371575e-05,2.001484402554321084e-05
2.561904761904761685e+00,-5.001828941638986883e-05,2.096963324385917298e-05
2.562698412698412920e+00,-5.096343619627416194e-05,2.173945065308708558e-05
2.563492063492063711e+00,-4.340334584541366564e-05,2.313918381710652154e-05
2.564285714285714501e+00,-2.940816386166814468e-05,2.639327031980648273e-05
2.565079365079365292e+00,-1.241923004713119172e-05,3.252662508119048948e-05
2.565873015873016083e+00,3.397333469649873567e-06,4.174671447070964230e-05
2.566666666666666874e+00,1.402707670408415623e-05,5.303911386396401170e-05
2.567460317460317665e+00,1.653326069690663728e-05,6.413757866843573232e-05
2.568253968253968456e+00,9.807904729418782664e-06,7.192547021741325138e-05
2.569047619047619246e+00,-5.057468197421486990e-06,7.319258935238551081e-05
2.569841269841270037e+00,-2.489865170154625511e-05,6.554168741417374842e-05
2.570634920634920828e+00,-4.509291907734370514e-05,4.816425446041720966e-05
2.571428571428571619e+00,-6.052644182387243989e-05,2.222794542683147683e-05
2.572222222222222410e+00,-6.669855643820809578e-05,-9.262399791760664617e-06
2.573015873015873201e+00,-6.072609930176424761e-05,-4.209802079020287475e-05
2.573809523809523991e+00,-4.204469568676770047e-05,-7.180623610194361583e-05
2.574603174603174782e+00,-1.266448267653427269e-05,-9.462202316739896479e-05
2.575396825396825573e+00,2.309025885810092003e-05,-1.082184919918098949e-04
2.576190476190476364e+00,5.933678930746016700e-05,-1.120059806348380716e-04
2.576984126984127155e+00,8.975118509856906939e-05,-1.069432340942717136e-04
2.577777777777777946e+00,1.088104020121228877e-04,-9.495624028193579071e-05
2.578571428571428736e+00,1.128778400017249129e-04,-7.819173686282078484e-05
2.579365079365079527e+00,1.008902385754892572e-04,-5.839269088390715794e-05
2.580158730158730318e+00,7.451084975244865296e-05,-3.662970086295572262e-05
2.580952380952381109e+00,3.774658208914222121e-05,-1.346134246084192666e-05
2.581746031746031900e+00,-3.859226627066958340e-06,1.060037225390921979e-05
2.582539682539682691e+00,-4.427436805288903872e-05,3.457790121413659943e-05
2.583333333333333481e+00,-7.804717507991262414e-05,5.674030907068073286e-05
2.584126984126984272e+00,-1.011777749150855337e-04,7.470642141700908976e-05
2.584920634920635063e+00,-1.116167998658761800e-04,8.593551412545902604e-05
2.585714285714285854e+00,-1.093212593216983845e-04,8.843244984253538314e-05
2.586507936507936645e+00,-9.593124216881984180e-05,8.139548576813925755e-05
2.587301587301587436e+00,-7.423294573753256155e-05,6.555666023809944283e-05
2.588095238095238226e+00,-4.759529094182541486e-05,4.309649388157108565e-05
2.588888888888889017e+00,-1.950977846289709595e-05,1.718251199637512222e-05
2.589682539682539808e+00,6.731696940494858437e-06,-8.700061883920937253e-06
2.590476190476190599e+00,2.826660032366721815e-05,-3.142513793032260456e-05
2.591269841269841390e+00,4.287514306611955769e-05,-4.874889711938496580e-05
2.592063492063492181e+00,4.922627600892062673e-05,-5.958960739121775410e-05
2.592857142857142971e+00,4.713778490988310106e-05,-6.404565303395631131e-05
2.593650793650793762e+00,3.776067201853819958e-05,-6.318775973809626306e-05
2.594444444444444553e+00,2.356567897377878689e-05,-5.869678587796938482e-05
2.595238095238095344e+00,8.042071011593461381e-06,-5.243480660617810335e-05
2.596031746031746135e+00,-4.894009656441550172e-06,-4.603232098144547274e-05
2.596825396825396925e+00,-1.168083730139535235e-05,-4.055418149436841488e-05
2.597619047619047716e+00,-9.904903722204065882e-06,-3.628829958105085288e-05
2.598412698412698507e+00,1.091401846834630656e-06,-3.269382288025036288e-05
2.599206349206349298e+00,1.994947583789137224e-05,-2.853832165607674690e-05
2.600000000000000089e+00,4.346276372502583919e-05,-2.222869417784198022e-05
2.600793650793650880e+00,6.715506544131851874e-05,-1.229189644938521633e-05
2.601587301587301670e+00,8.615102752062050301e-05,2.100628358632659930e-06
2.602380952380952461e+00,9.614604906489706713e-05,2.072074898569090001e-05
2.603174603174603252e+00,9.426140625069306326e-05,4.214059437618187842e-05
2.603968253968254043e+00,7.961312272051727240e-05,6.394486576092029393e-05
2.604761904761904834e+00,5.350365045194824980e-05,8.325977056119470972e-05
2.605555555555555625e+00,1.922249206775263652e-05,9.743641996000000996e-05
2.606349206349206415e+00,-1.850215834552776384e-05,1.046666698047227033e-04
2.607142857142857206e+00,-5.431180223574079169e-05,1.043441248643302088e-04
2.607936507936507997e+00,-8.314722673403514730e-05,9.709150117655346020e-05
2.608730158730158788e+00,-1.011212036093806269e-04,8.449635527466650968e-05
2.609523809523809579e+00,-1.061577143167514401e-04,6.867235085031216405e-05
2.610317460317460370e+00,-9.827665734892718208e-05,5.177742443053778279e-05
2.611111111111111160e+00,-7.949061564948379848e-05,3.559676569126444412e-05
2.611904761904761951e+00,-5.336202823897823514e-05,2.126518713607914511e-05
2.612698412698412742e+00,-2.432318364632103446e-05,9.170303724736344014e-06
2.613492063492063533e+00,3.110141972988416599e-06,-9.574786668746606736e-07
2.614285714285714324e+00,2.508922039117686580e-05,-9.800687101024579772e-06
2.615079365079365115e+00,3.901051157972327301e-05,-1.812424972553004093e-05
2.615873015873015905e+00,4.381550174957313671e-05,-2.644963449626624424e-05
2.616666666666666696e+00,3.996806372197701633e-05,-3.482677654944855262e-05
2.617460317460317487e+00,2.914916580171946923e-05,-4.277517228306528544e-05
2.618253968253968278e+00,1.378625412220477176e-05,-4.942192406968323309e-05
2.619047619047619069e+00,-3.430429998365893232e-06,-5.380584421497793722e-05
2.619841269841269860e+00,-1.991973923789205781e-05,-5.525657550823329420e-05
2.620634920634920650e+00,-3.342279084992228562e-05,-5.371780116573201007e-05
2.621428571428571441e+00,-4.209908672428108148e-05,-4.988690087988715811e-05
2.622222222222222232e+00,-4.459913625287838273e-05,-4.509919231684803053e-05
2.623015873015873023e+00,-4.019499345375642202e-05,-4.097629495636530338e-05
2.623809523809523814e+00,-2.898346812490026005e-05,-3.894620742052636844e-05
2.624603174603174605e+00,-1.209416270020646341e-05,-3.979026386897956715e-05
2.625396825396825395e+00,8.221683757875605740e-06,-4.336516324235599581e-05
2.626190476190476186e+00,2.874841681057304881e-05,-4.859465078410392261e-05
2.626984126984126977e+00,4.577673902789256287e-05,-5.374328097392129104e-05
2.627777777777777768e+00,5.584314586604530357e-05,-5.689715987291866291e-05
2.628571428571428559e+00,5.656441734211820987e-05,-5.650960086441242196e-05
2.629365079365079350e+00,4.731029931486817813e-05,-5.184537704407659312e-05
2.630158730158730140e+00,2.947375750043328040e-05,-4.318661610419968376e-05
2.630952380952380931e+00,6.220164673784216386e-06,-3.174134421560555620e-05
2.631746031746031722e+00,-1.822620190891081942e-05,-1.929810291334212828e-05
2.632539682539682513e+00,-3.954735443168761854e-05,-7.755490172330538554e-06
2.633333333333333304e+00,-5.427285919353529999e-05,1.316594840655826000e-06
2.634126984126984095e+00,-6.045895206859737018e-05,6.966347143957450600e-06
2.634920634920634885e+00,-5.797090572338946550e-05,8.957827194975090130e-06
2.635714285714285676e+00,-4.835014454693296551e-05,7.702502043669903374e-06
2.636507936507936467e+00,-3.433900577857166317e-05,4.085238787715802621e-06
2.637301587301587258e+00,-1.919272615635316242e-05,-7.511587091230690562e-07
2.638095238095238049e+00,-5.935321143307190781e-06,-5.615161357431885525e-06
2.638888888888888840e+00,3.281335550114136661e-06,-9.444736213384458449e-06
2.639682539682539630e+00,7.577842420200373091e-06,-1.144798271559562806e-05
2.640476190476190421e+00,7.418665582566907814e-06,-1.120571771492980227e-05
2.641269841269841212e+00,4.341588756794623996e-06,-8.730001776613366141e-06
2.642063492063492003e+00,4.220170566530932968e-07,-4.463279942051275545e-06
2.642857142857142794e+00,-2.372751856472042803e-06,7.992976628132114574e-07
2.643650793650793585e+00,-2.747934396714292113e-06,6.069231732300901435e-06
2.644444444444444375e+00,-3.971126032961186483e-07,1.038472080218029662e-05
2.645238095238095166e+00,4.016983362456473925e-06,1.304189718735861224e-05
2.646031746031745957e+00,9.190744452360222617e-06,1.377112539131309350e-05
2.646825396825396748e+00,1.368596447591958376e-05,1.279973093051168223e-05
2.647619047619047539e+00,1.642702584112064931e-05,1.077807600542743853e-05
2.648412698412698330e+00,1.701866388382650909e-05,8.597554544499961119e-06
2.649206349206349120e+00,1.579446909132483368e-05,7.167984059997142969e-06
2.649999999999999911e+00,1.361224134804792549e-05,7.223093615822377254e-06
2.650793650793650702e+00,1.149869150937105308e-05,9.193526578385513286e-06
2.651587301587301493e+00,1.028352728492353799e-05,1.315851932223098746e-05
2.652380952380952284e+00,1.034678019624670124e-05,1.887482379056354141e-05
2.653174603174603075e+00,1.154901239061201194e-05,2.586851149224128277e-05
2.653968253968253865e+00,1.334788777313746174e-05,3.354903997419813932e-05
2.654761904761904656e+00,1.504853902423722439e-05,4.128372998697470126e-05
2.655555555555555447e+00,1.609780450809198958e-05,4.838678813739594328e-05
2.656349206349206238e+00,1.631623642168409730e-05,5.403474285267062348e-05
2.657142857142857029e+00,1.597476779459262722e-05,5.718277645773347926e-05
2.657936507936507819e+00,1.567192975315537175e-05,5.657877132919789310e-05
2.658730158730158610e+00,1.604197413447882548e-05,5.093974657664264465e-05
2.659523809523809401e+00,1.739625439341693317e-05,3.928822670391970940e-05
2.660317460317460192e+00,1.944110749679933670e-05,2.137356673325560758e-05
2.661111111111110983e+00,2.120882349315000075e-05,-1.952217390413080924e-06
2.661904761904761774e+00,2.128103286991404400e-05,-2.855742489422353903e-05
2.662698412698412564e+00,1.828517439536071686e-05,-5.518010751129607980e-05
2.663492063492063355e+00,1.153088842889283790e-05,-7.794460928661739972e-05
2.664285714285714146e+00,1.569148102163080460e-06,-9.314550259441458984e-05
2.665079365079364937e+00,-9.553106608149359333e-06,-9.805381339860953945e-05
2.665873015873015728e+00,-1.849490003806706476e-05,-9.143989096062480660e-05
2.666666666666666519e+00,-2.130163196204484701e-05,-7.361387664518895095e-05
2.667460317460317309e+00,-1.444609896859789781e-05,-4.603520273984838313e-05
2.668253968253968100e+00,4.003169060287725290e-06,-1.077381588147902211e-05
2.669047619047618891e+00,3.338936463529362033e-05,2.985793182787333880e-05
2.669841269841269682e+00,6.996062477384352855e-05,7.336207889988131828e-05
2.670634920634920473e+00,1.070893012945130652e-04,1.169051999552354133e-04
2.671428571428571264e+00,1.363087429844149826e-04,1.572027204974827785e-04
2.672222222222222054e+00,1.490487871137362091e-04,1.906280785599418143e-04
2.673015873015872845e+00,1.387243240533099920e-04,2.135592057352536145e-04
2.673809523809523636e+00,1.026568053102193623e-04,2.228161739309815991e-04
2.674603174603174427e+00,4.326139072244040263e-05,2.160308236788622345e-04
2.675396825396825218e+00,-3.193564554074749650e-05,1.919124696704771536e-04
2.676190476190476009e+00,-1.115778675203407531e-04,1.504922729241946460e-04
2.676984126984126799e+00,-1.827857211122210486e-04,9.341689219157779352e-05
2.677777777777777590e+00,-2.338668080251051862e-04,2.423750516858040024e-05
2.678571428571428381e+00,-2.566600321434374605e-04,-5.147856467512274551e-05
2.679365079365079172e+00,-2.478831714361484921e-04,-1.264142441819599569e-04
2.680158730158729963e+00,-2.092242391297454796e-04,-1.922778230521294369e-04
2.680952380952380754e+00,-1.463504434055969139e-04,-2.410726283263759805e-04
2.681746031746031544e+00,-6.731931458242767705e-05,-2.666554307629100161e-04
2.682539682539682335e+00,1.903841087395681230e-05,-2.661985698387225830e-04
2.683333333333333126e+00,1.043255635192295584e-04,-2.410955549442938411e-04
2.684126984126983917e+00,1.811908743400722857e-04,-1.969470873900222444e-04
2.684920634920634708e+00,2.434210476872878878e-04,-1.425191213166473699e-04
2.685714285714285499e+00,2.857598291501216759e-04,-8.787446360355999353e-05
2.686507936507936289e+00,3.037635175155963202e-04,-4.212118432489813730e-05
2.687301587301587080e+00,2.939703206572825251e-04,-1.133060709213987001e-05
2.688095238095238315e+00,2.545419076658775727e-04,2.839957384991336776e-06
2.688888888888889106e+00,1.863199197454676152e-04,3.418065884689481278e-06
2.689682539682539897e+00,9.396043585611373494e-05,-2.858966154192194219e-06
2.690476190476190688e+00,-1.341840763865038504e-05,-7.543339116486597840e-06
2.691269841269841478e+00,-1.226654940939588814e-04,-2.944906995891154075e-06
2.692063492063492269e+00,-2.184313691560331038e-04,1.563899244964663568e-05
2.692857142857143060e+00,-2.862391654703990828e-04,4.854937345566132572e-05
2.693650793650793851e+00,-3.160603553541476980e-04,9.158922884739663318e-05
2.694444444444444642e+00,-3.052764389126579503e-04,1.370321073374547731e-04
2.695238095238095433e+00,-2.599073490375409254e-04,1.754752640209627493e-04
2.696031746031746223e+00,-1.934513883008871055e-04,1.979967635685458548e-04
2.696825396825397014e+00,-1.234806641946492622e-04,1.980689996699853018e-04
2.697619047619047805e+00,-6.696112817389726158e-05,1.728547593543660710e-04
2.698412698412698596e+00,-3.575963159675128652e-05,1.237658917731866454e-04
2.699206349206349387e+00,-3.373573431795149187e-05,5.635886453303249564e-05
2.700000000000000178e+00,-5.622796123699769531e-05,-2.031788714619057020e-05
2.700793650793650968e+00,-9.190788263926125286e-05,-9.489067709710517144e-05
2.701587301587301759e+00,-1.262418226363646537e-04,-1.553577979937239531e-04
2.702380952380952550e+00,-1.454176938878941176e-04,-1.912166955074548719e-04
2.703174603174603341e+00,-1.396316195398339096e-04,-1.956641504931111528e-04
2.703968253968254132e+00,-1.049948108258934651e-04,-1.673053103875901941e-04
2.704761904761904923e+00,-4.383655720128655357e-05,-1.108227959701899913e-04
2.705555555555555713e+00,3.634072856400886748e-05,-3.630526444935913818e-05
2.706349206349206504e+00,1.246913659916350724e-04,4.270571628044184527e-05
2.707142857142857295e+00,2.090204643234390468e-04,1.120442489570787207e-04
2.707936507936508086e+00,2.775103815063373900e-04,1.599507354417316687e-04
2.708730158730158877e+00,3.200710622873775726e-04,1.795078581171959543e-04
2.709523809523809668e+00,3.294668418337901700e-04,1.698036839779786932e-04
2.710317460317460458e+00,3.024028316347089694e-04,1.355463578602264030e-04
2.711111111111111249e+00,2.405368766598784682e-04,8.539858687514130964e-05
2.711904761904762040e+00,1.510776747169383571e-04,2.970245385152460075e-05
2.712698412698412831e+00,4.647000332844340395e-05,-2.167453453923569941e-05
2.713492063492063622e+00,-5.719515911604723261e-05,-6.089588388193843742e-05
2.714285714285714413e+00,-1.430057740337128340e-04,-8.300897211300013896e-05
2.715079365079365203e+00,-1.967616166266695880e-04,-8.625395790732575557e-05
2.715873015873015994e+00,-2.103204950072755451e-04,-7.203924224113626804e-05
2.716666666666666785e+00,-1.837624573178617683e-04,-4.467592317647473368e-05
2.717460317460317576e+00,-1.256095178179782981e-04,-1.081459345631429470e-05
2.718253968253968367e+00,-5.087718668539966359e-05,2.152890666520935580e-05
2.719047619047619158e+00,2.258611580466415747e-05,4.438341462656012810e-05
2.719841269841269948e+00,7.846133365628433002e-05,5.148759064055460303e-05
2.720634920634920739e+00,1.058084418981997550e-04,3.981944929550307072e-05
2.721428571428571530e+00,1.013899143643066020e-04,1.052348194562050771e-05
2.722222222222222321e+00,6.994011084050966067e-05,-3.110704838541732142e-05
2.723015873015873112e+00,2.242999152054466603e-05,-7.666482036725711410e-05
2.723809523809523903e+00,-2.711971097047912029e-05,-1.164562944881902194e-04
2.724603174603174693e+00,-6.539322306131235677e-05,-1.416807387487913192e-04
2.725396825396825484e+00,-8.311454468979484554e-05,-1.464257670370980844e-04
2.726190476190476275e+00,-7.712111929077346262e-05,-1.289797945221834638e-04
2.726984126984127066e+00,-5.070788126585990913e-05,-9.212091441789004628e-05
2.727777777777777857e+00,-1.226938156195388290e-05,-4.231589146725838114e-05
2.728571428571428648e+00,2.727076048573664463e-05,1.191345236851793053e-05
2.729365079365079438e+00,5.746450600977424001e-05,6.195317307651337501e-05
2.730158730158730229e+00,7.094411161436678707e-05,1.008209500656880546e-04
2.730952380952381020e+00,6.496568739717710136e-05,1.242154326514922718e-04
2.731746031746031811e+00,4.158457814236318024e-05,1.307363017406362510e-04
2.732539682539682602e+00,6.595683545832841055e-06,1.214391233556814373e-04
2.733333333333333393e+00,-3.225426550138122897e-05,9.909027764307757051e-05
2.734126984126984183e+00,-6.712410253433105862e-05,6.746057602568961164e-05
2.734920634920634974e+00,-9.147695450378581447e-05,3.079305959976801375e-05
2.735714285714285765e+00,-1.008078837887744898e-04,-6.615662275058550817e-06
2.736507936507936556e+00,-9.280346303852204763e-05,-4.082214237164825347e-05
2.737301587301587347e+00,-6.720815555309623960e-05,-6.863518913424219926e-05
2.738095238095238138e+00,-2.567160930514729328e-05,-8.791979229616371766e-05
2.738888888888888928e+00,2.827483327148419621e-05,-9.773405377737148184e-05
2.739682539682539719e+00,8.914904069107919174e-05,-9.830269890960317391e-05
2.740476190476190510e+00,1.495656351969598045e-04,-9.085765984817412123e-05
2.741269841269841301e+00,2.006922399851199744e-04,-7.734594625220832915e-05
2.742063492063492092e+00,2.333398947731224536e-04,-6.001013946416425320e-05
2.742857142857142883e+00,2.396880065131890220e-04,-4.093017526874654049e-05
2.743650793650793673e+00,2.153236965348146468e-04,-2.169135660411650185e-05
2.744444444444444464e+00,1.609942021217566932e-04,-3.307937303457034014e-06
2.745238095238095255e+00,8.338778536224888689e-05,1.360605158270254095e-05
2.746031746031746046e+00,-5.539473601573771990e-06,2.856380539247288164e-05
2.746825396825396837e+00,-9.073852072160538593e-05,4.102661803350783100e-05
2.747619047619047628e+00,-1.572838850960423071e-04,5.045838503979836840e-05
2.748412698412698418e+00,-1.937793950966663372e-04,5.661197062291527731e-05
2.749206349206349209e+00,-1.949776970019502563e-04,5.987551763144122169e-05
2.750000000000000000e+00,-1.628583378317671640e-04,6.139936155892717923e-05
2.750793650793650791e+00,-1.059031808364091395e-04,6.277138947227991984e-05
2.751587301587301582e+00,-3.687150538068710099e-05,6.523237475005900263e-05
2.752380952380952372e+00,3.021260177857988351e-05,6.872396638313417276e-05
2.753174603174603163e+00,8.301216366521383869e-05,7.125979483915662700e-05
2.753968253968253954e+00,1.130574079536988020e-04,6.906370793925478420e-05
2.754761904761904745e+00,1.167700481228567416e-04,5.762495668219102954e-05
2.755555555555555536e+00,9.533556693344415460e-05,3.340760064910186104e-05
2.756349206349206327e+00,5.373749860563014252e-05,-4.389991621967006160e-06
2.757142857142857117e+00,-5.990544702965427636e-07,-5.273498306419932666e-05
2.757936507936507908e+00,-5.917178124860117785e-05,-1.048353633838693632e-04
2.758730158730158699e+00,-1.135791140648826253e-04,-1.514905245051951371e-04
2.759523809523809490e+00,-1.564952215596382423e-04,-1.833477144673407771e-04
2.760317460317460281e+00,-1.824836703802713627e-04,-1.933517552720963556e-04
2.761111111111111072e+00,-1.886288889501750376e-04,-1.785887440616479391e-04
2.761904761904761862e+00,-1.748777956216891771e-04,-1.409432896795952887e-04
2.762698412698412653e+00,-1.439712707324693555e-04,-8.643831204132354073e-05
2.763492063492063444e+00,-1.009239770281158375e-04,-2.360590817558880068e-05
2.764285714285714235e+00,-5.212663972350888909e-05,3.847596129393402137e-05
2.765079365079365026e+00,-4.238383834069216525e-06,9.185763764611169140e-05
2.765873015873015817e+00,3.691677329924570661e-05,1.307281571610693005e-04
2.766666666666666607e+00,6.723755156092873207e-05,1.517181872347727028e-04
2.767460317460317398e+00,8.485187236371184445e-05,1.537136235404187444e-04
2.768253968253968189e+00,9.015853861647759053e-05,1.375012790086149554e-04
2.769047619047618980e+00,8.542230106651527448e-05,1.055007239309137262e-04
2.769841269841269771e+00,7.403860888486480795e-05,6.165390999781343194e-05
2.770634920634920562e+00,5.965258793342224735e-05,1.134583659977739176e-05
2.771428571428571352e+00,4.534082493796950692e-05,-3.887708736726613906e-05
2.772222222222222143e+00,3.304410339156319839e-05,-8.196902570048675632e-05
2.773015873015872934e+00,2.337795797817982877e-05,-1.114094923948950162e-04
2.773809523809523725e+00,1.585295898686226490e-05,-1.223609415757732021e-04
2.774603174603174516e+00,9.424155133509592912e-06,-1.126345690014766927e-04
2.775396825396825307e+00,3.181458519165906579e-06,-8.319494747902655475e-05
2.776190476190476097e+00,-3.078038809044132184e-06,-3.807177737233289575e-05
2.776984126984126888e+00,-8.642743451052830746e-06,1.630715807552036027e-05
2.777777777777777679e+00,-1.216613368737148090e-05,7.222799725527747380e-05
2.778571428571428470e+00,-1.234785413227458439e-05,1.220289026858083898e-04
2.779365079365079261e+00,-8.731039224984429221e-06,1.593968001053020704e-04
2.780158730158730052e+00,-2.236986903039366661e-06,1.803511143559189756e-04
2.780952380952380842e+00,4.870077673963847235e-06,1.836989073559910576e-04
2.781746031746031633e+00,9.668917843068477013e-06,1.708660762177045790e-04
2.782539682539682424e+00,9.704227642419097807e-06,1.451715355019735304e-04
2.783333333333333215e+00,4.105996912054295628e-06,1.107709303464903965e-04
2.784126984126984006e+00,-5.777358895544363956e-06,7.159560141865448297e-05
2.784920634920634797e+00,-1.654194791688140187e-05,3.060453405803199698e-05
2.785714285714285587e+00,-2.368812515708253397e-05,-1.044816494856076682e-05
2.786507936507936378e+00,-2.307288565308844987e-05,-5.070163097385124658e-05
2.787301587301587169e+00,-1.237396091786239222e-05,-8.947882820504087030e-05
2.788095238095237960e+00,7.914372289282929062e-06,-1.254605192971493168e-04
2.788888888888888751e+00,3.428244008185199720e-05,-1.560832194683436480e-04
2.789682539682539542e+00,6.089621214284576497e-05,-1.774556235414362045e-04
2.790476190476190332e+00,8.101509240255747111e-05,-1.849371859388044279e-04
2.791269841269841123e+00,8.875379382315133246e-05,-1.743091096414789887e-04
2.792063492063491914e+00,8.068554667557440124e-05,-1.432499039742637947e-04
2.792857142857142705e+00,5.681752554913567906e-05,-9.266206135617303279e-05
2.793650793650793496e+00,2.066197616359045539e-05,-2.734835646943643725e-05
2.794444444444444287e+00,-2.158594159356581703e-05,4.433498316525162354e-05
2.795238095238095077e+00,-6.248228132964243225e-05,1.119140920755363902e-04
2.796031746031745868e+00,-9.495437799555504885e-05,1.649974081554802315e-04
2.796825396825396659e+00,-1.137033248521406492e-04,1.956069024635681195e-04
2.797619047619047450e+00,-1.161228097721530835e-04,1.999338964449518918e-04
2.798412698412698241e+00,-1.026235305408131825e-04,1.790088082679840414e-04
2.799206349206349032e+00,-7.636609393658956601e-05,1.381406417287828268e-04
2.799999999999999822e+00,-4.248547743189405178e-05,8.536667757891986102e-05
2.800793650793650613e+00,-6.969560329881013927e-06,2.943214445159518826e-05
2.801587301587301404e+00,2.456587703532704572e-05,-2.208521430388108770e-05
2.802380952380952195e+00,4.792385788958513753e-05,-6.400691096301388161e-05
2.803174603174602986e+00,6.095656014546827525e-05,-9.391920267126175129e-05
2.803968253968253777e+00,6.366721021215151750e-05,-1.117664390391280240e-04
2.804761904761904567e+00,5.782986101880240352e-05,-1.189988004922739765e-04
2.805555555555555358e+00,4.630037089392350470e-05,-1.176753145001052669e-04
2.806349206349206149e+00,3.224599546749067248e-05,-1.098344722914101966e-04
2.807142857142856940e+00,1.849605011624047999e-05,-9.725166812747838580e-05
2.807936507936507731e+00,7.133503814953056951e-06,-8.150402727450238344e-05
2.808730158730158522e+00,-6.548929421941592095e-07,-6.415025085272239771e-05
2.809523809523809312e+00,-4.530245283894352753e-06,-4.683978926208927498e-05
2.810317460317460103e+00,-4.839782768896220977e-06,-3.125723049351527460e-05
2.811111111111110894e+00,-2.407114405448054440e-06,-1.891390757763747714e-05
2.811904761904761685e+00,1.686497879288608798e-06,-1.086407816444683685e-05
2.812698412698412920e+00,6.301125879589439293e-06,-7.438453873927888893e-06
2.813492063492063711e+00,1.039265245765517602e-05,-8.077740166304797165e-06
2.814285714285714501e+00,1.311083027887488830e-05,-1.133349158452940995e-05
2.815079365079365292e+00,1.384841886738819794e-05,-1.508082545032280456e-05
2.815873015873016083e+00,1.226309642177974126e-05,-1.694463237205568951e-05
2.816666666666666874e+00,8.295701052453714939e-06,-1.487303118029928360e-05
2.817460317460317665e+00,2.197181937448551297e-06,-7.715427266131971417e-06
2.818253968253968456e+00,-5.443507182771611929e-06,4.380661132178379504e-06
2.819047619047619246e+00,-1.369845296945037184e-05,1.990699369539320778e-05
2.819841269841270037e+00,-2.136237563887357954e-05,3.630958325341309008e-05
2.820634920634920828e+00,-2.709849112218442493e-05,5.059160241884988864e-05
2.821428571428571619e+00,-2.965751183505524948e-05,6.002413898741742061e-05
2.822222222222222410e+00,-2.812310323573724151e-05,6.276677881610903133e-05
2.823015873015873201e+00,-2.211833504584145399e-05,5.824434365157623726e-05
2.823809523809523991e+00,-1.191524160036564125e-05,4.720915521377525823e-05
2.824603174603174782e+00,1.581126179979785437e-06,3.151277352887480945e-05
2.825396825396825573e+00,1.696626780842803856e-05,1.368253244659884217e-05
2.826190476190476364e+00,3.255128948057511791e-05,-3.578688515604299230e-06
2.826984126984127155e+00,4.661049728300937660e-05,-1.786781547380826167e-05
2.827777777777777946e+00,5.761196636940112798e-05,-2.745711668746168648e-05
2.828571428571428736e+00,6.438868807217289528e-05,-3.151585875760090410e-05
2.829365079365079527e+00,6.622450610593947360e-05,-3.014863995798542506e-05
2.830158730158730318e+00,6.285644156242058903e-05,-2.426003060520235085e-05
2.830952380952381109e+00,5.442374134815611243e-05,-1.529845315547191905e-05
2.831746031746031900e+00,4.140658310442637332e-05,-4.955476186414321127e-06
2.832539682539682691e+00,2.458405593827000092e-05,5.114354653218553391e-06
2.833333333333333481e+00,5.011730275486786066e-06,1.352212152398912096e-05
2.834126984126984272e+00,-1.600381449708236501e-05,1.931980222414864804e-05
2.834920634920635063e+00,-3.695943588443403904e-05,2.212469007339180779e-05
2.835714285714285854e+00,-5.625444341502969708e-05,2.217632562253922599e-05
2.836507936507936645e+00,-7.233712291983364947e-05,2.028608282460440544e-05
2.837301587301587436e+00,-8.388789764314371299e-05,1.764022140235350626e-05
2.838095238095238226e+00,-9.001016446198091309e-05,1.546273478146901575e-05
2.838888888888889017e+00,-9.038246558820881818e-05,1.462253279204976374e-05
2.839682539682539808e+00,-8.531981132058878323e-05,1.532817523389609510e-05
2.840476190476190599e+00,-7.570567536113071577e-05,1.703946463310066479e-05
2.841269841269841390e+00,-6.279178581420238024e-05,1.863803031007620263e-05
2.842063492063492181e+00,-4.791391820192629649e-05,1.879409607971717014e-05
2.842857142857142971e+00,-3.221824546176058621e-05,1.640242424005761403e-05
2.843650793650793762e+00,-1.650507806277614476e-05,1.095355741861141289e-05
2.844444444444444553e+00,-1.255365402609616118e-06,2.739971774387066866e-06
2.845238095238095344e+00,1.317990128564048408e-05,-7.151076582818356637e-06
2.846031746031746135e+00,2.633420421589528158e-05,-1.705221253853202683e-05
2.846825396825396925e+00,3.746807456154093639e-05,-2.508828188855638920e-05
2.847619047619047716e+00,4.560511440756899107e-05,-2.962521096169527172e-05
2.848412698412698507e+00,4.976984219007565770e-05,-2.969253810148296118e-05
2.849206349206349298e+00,4.933189773287313944e-05,-2.526820395427719271e-05
2.850000000000000089e+00,4.430376360592177268e-05,-1.733168943510834178e-05
2.850793650793650880e+00,3.545361930700791927e-05,-7.643978094069012375e-06
2.851587301587301670e+00,2.417008821412822286e-05,1.709160407704205756e-06
2.852380952380952461e+00,1.211690373826878112e-05,8.895137128973705639e-06
2.853174603174603252e+00,8.030573106266239913e-07,1.286491276744811399e-05
2.853968253968254043e+00,-8.765957098718352153e-06,1.365905312850081969e-05
2.854761904761904834e+00,-1.621663655360772223e-05,1.236253167881800655e-05
2.855555555555555625e+00,-2.166443853866332112e-05,1.068700132896109533e-05
2.856349206349206415e+00,-2.536492623227438054e-05,1.029611165836016278e-05
2.857142857142857206e+00,-2.732112403229110909e-05,1.210862820046329929e-05
2.857936507936507997e+00,-2.703973901410340486e-05,1.585647363124712217e-05
2.858730158730158788e+00,-2.357584402421847701e-05,2.010116286672669974e-05
2.859523809523809579e+00,-1.588767500055439524e-05,2.273654658909139511e-05
2.860317460317460370e+00,-3.387758150134169604e-06,2.180270238014107441e-05
2.861111111111111160e+00,1.352073801695175485e-05,1.630328556134203515e-05
2.861904761904761951e+00,3.315130276406150390e-05,6.719443004114012461e-06
2.862698412698412742e+00,5.264119025855121611e-05,-4.960902061327034310e-06
2.863492063492063533e+00,6.847669073063170824e-05,-1.569587781441188261e-05
2.864285714285714324e+00,7.730487768127367780e-05,-2.216229877383850679e-05
2.865079365079365115e+00,7.679495503689303098e-05,-2.160619092443599287e-05
2.865873015873015905e+00,6.628953799302308460e-05,-1.254120966478093621e-05
2.866666666666666696e+00,4.705118499402475180e-05,4.858279761984855681e-06
2.867460317460317487e+00,2.203431436691613126e-05,2.872146159003822067e-05
2.868253968253968278e+00,-4.751426598448256689e-06,5.576313873985500757e-05
2.869047619047619069e+00,-2.911752657909158571e-05,8.178577711803053374e-05
2.869841269841269860e+00,-4.759538211666169787e-05,1.022903499828421302e-04
2.870634920634920650e+00,-5.814545505182418397e-05,1.131086601318199774e-04
2.871428571428571441e+00,-6.051438675718848735e-05,1.110030302522417730e-04
2.872222222222222232e+00,-5.616048942495066506e-05,9.419510332204209966e-05
2.873015873015873023e+00,-4.777081887385384843e-05,6.278214658881980069e-05
2.873809523809523814e+00,-3.849521588379644521e-05,1.899069604016404589e-05
2.874603174603174605e+00,-3.109604941275589154e-05,-3.279666849072454987e-05
2.875396825396825395e+00,-2.723116876462832399e-05,-8.633346059891263628e-05
2.876190476190476186e+00,-2.704388514803283044e-05,-1.342257588962394662e-04
2.876984126984126977e+00,-2.914496606671296880e-05,-1.691113120769491903e-04
2.877777777777777768e+00,-3.097199970673681160e-05,-1.851634656102533853e-04
2.878571428571428559e+00,-2.943285412021076836e-05,-1.795678708543460437e-04
2.879365079365079350e+00,-2.169402225066241553e-05,-1.534987664451577878e-04
2.880158730158730140e+00,-5.953740853259442087e-06,-1.121879326326048808e-04
2.880952380952380931e+00,1.796341700065451387e-05,-6.393524179572980439e-05
2.881746031746031722e+00,4.833150950141330393e-05,-1.826740409839053221e-05
2.882539682539682513e+00,8.164948143138561927e-05,1.624080339353603752e-05
2.883333333333333304e+00,1.131610514574593428e-04,3.386274732237297966e-05
2.884126984126984095e+00,1.376699012808387651e-04,3.285491754167054547e-05
2.884920634920634885e+00,1.504906828636966363e-04,1.563366385584027848e-05
2.885714285714285676e+00,1.483565369934807562e-04,-1.194407377347552108e-05
2.886507936507936467e+00,1.301157389032282731e-04,-4.197625307109512566e-05
2.887301587301587258e+00,9.708017336371174504e-05,-6.628414156899787549e-05
2.888095238095238049e+00,5.293601665485870152e-05,-7.819675838870661952e-05
2.888888888888888840e+00,3.199869800668952940e-06,-7.397872628560431892e-05
2.889682539682539630e+00,-4.570211847926286281e-05,-5.358737537217515671e-05
2.890476190476190421e+00,-8.756191559837341553e-05,-2.058846958639305537e-05
2.891269841269841212e+00,-1.174930706764364184e-04,1.873943559067641450e-05
2.892063492063492003e+00,-1.327715355216181321e-04,5.687673542463171059e-05
2.892857142857142794e+00,-1.332267443703604500e-04,8.673063694401381292e-05
2.893650793650793585e+00,-1.210966954354326637e-04,1.030914210764840032e-04
2.894444444444444375e+00,-1.003897678698761810e-04,1.035707046197543345e-04
2.895238095238095166e+00,-7.592162957062461681e-05,8.889715244390302719e-05
2.896031746031745957e+00,-5.227889889384474456e-05,6.262469807871809705e-05
2.896825396825396748e+00,-3.296742103223638290e-05,3.041766313021812966e-05
2.897619047619047539e+00,-1.992447205646504465e-05,-9.062217179941020131e-07
2.898412698412698330e+00,-1.344504698417756626e-05,-2.445008539836930603e-05
2.899206349206349120e+00,-1.245093483305297272e-05,-3.438178608785454705e-05
2.899999999999999911e+00,-1.496233310996938052e-05,-2.711791624865433176e-05
2.900793650793650702e+00,-1.862572039743165181e-05,-2.410182835498152689e-06
2.901587301587301493e+00,-2.119094540853970845e-05,3.600297125097312606e-05
2.902380952380952284e+00,-2.088422201215765962e-05,8.062749981005480648e-05
2.903174603174603075e+00,-1.666267022365035933e-05,1.215981384576547892e-04
2.903968253968253865e+00,-8.347743633306599584e-06,1.490205898762737553e-04
2.904761904761904656e+00,3.370826837163678347e-06,1.555876855317340536e-04
2.905555555555555447e+00,1.707157577231975827e-05,1.385945553062843216e-04
2.906349206349206238e+00,3.087438826355506477e-05,1.006853221998937344e-04
2.907142857142857029e+00,4.281369419349288270e-05,4.911832507646839504e-05
2.907936507936507819e+00,5.124021089596776700e-05,-6.187321054365168150e-06
2.908730158730158610e+00,5.516289676238220489e-05,-5.521878070647751892e-05
2.909523809523809401e+00,5.445350471323342801e-05,-9.030957793904956904e-05
2.910317460317460192e+00,4.986341697741061472e-05,-1.078000571884043125e-04
2.911111111111110983e+00,4.283305650620393282e-05,-1.085325169330519977e-04
2.911904761904761774e+00,3.511284080344567168e-05,-9.714199065568645478e-05
2.912698412698412564e+00,2.827195004955748497e-05,-8.042236061762045155e-05
2.913492063492063355e+00,2.323269009758449540e-05,-6.526408305968375509e-05
2.914285714285714146e+00,1.999246421019830735e-05,-5.673801064510952723e-05
2.915079365079364937e+00,1.765010302469963372e-05,-5.683058280948859989e-05
2.915873015873015728e+00,1.474807141941884939e-05,-6.413747163532686169e-05
2.916666666666666519e+00,9.823189316607254038e-06,-7.454623270467952841e-05
2.917460317460317309e+00,1.978152942176269402e-06,-8.265963141628345802e-05
2.918253968253968100e+00,-8.724227434144389933e-06,-8.351059825866419825e-05
2.919047619047618891e+00,-2.118044277300569264e-05,-7.405591715944360163e-05
2.919841269841269682e+00,-3.350609593898676330e-05,-5.402474043260911555e-05
2.920634920634920473e+00,-4.354766640707000434e-05,-2.590708277972338477e-05
2.921428571428571264e+00,-4.948068074287719604e-05,5.869553127865894254e-06
2.922222222222222054e+00,-5.031217096700291321e-05,3.628348041878295987e-05
2.923015873015872845e+00,-4.614314567800819196e-05,6.113238622298445852e-05
2.923809523809523636e+00,-3.811913472399678212e-05,7.805325524479832613e-05
2.924603174603174427e+00,-2.808424600615718793e-05,8.683784803458500091e-05
2.925396825396825218e+00,-1.803703697262468947e-05,8.900513939204650880e-05
2.926190476190476009e+00,-9.543821912723441389e-06,8.686819806606281417e-05
2.926984126984126799e+00,-3.281138486303620944e-06,8.249443594835171808e-05
2.927777777777777590e+00,1.150804847828353715e-06,7.695018114304804421e-05
2.928571428571428381e+00,5.071973409487727810e-06,7.006961731386691743e-05
2.929365079365079172e+00,1.024731847538789907e-05,6.077117642192636190e-05
2.930158730158729963e+00,1.821540729861141053e-05,4.774475164288960097e-05
2.930952380952380754e+00,2.962131682918062427e-05,3.021510009212678103e-05
2.931746031746031544e+00,4.378158556312786604e-05,8.487343841233839685e-06
2.932539682539682335e+00,5.866031885567312445e-05,-1.590544129939311667e-05
2.933333333333333126e+00,7.130818515362346037e-05,-4.046168044596546018e-05
2.934126984126983917e+00,7.864902133879327984e-05,-6.224258443331270331e-05
2.934920634920634708e+00,7.836296857067686164e-05,-7.847995071112723320e-05
2.935714285714285499e+00,6.957433443578994237e-05,-8.709003474833880377e-05
2.936507936507936289e+00,5.312420015147337936e-05,-8.699263431770015514e-05
2.937301587301587080e+00,3.135579354341170682e-05,-7.820808441309873792e-05
2.938095238095238315e+00,7.502043719395593403e-06,-6.176393349565334706e-05
2.938888888888889106e+00,-1.511681117892764713e-05,-3.948086993891012850e-05
2.939682539682539897e+00,-3.383619008502119536e-05,-1.371360695922597126e-05
2.940476190476190688e+00,-4.712370733150462283e-05,1.290562446988010564e-05
2.941269841269841478e+00,-5.468813049401996350e-05,3.771278502959549530e-05
2.942063492063492269e+00,-5.724910204386014453e-05,5.825712202524245103e-05
2.942857142857143060e+00,-5.610186245406110009e-05,7.254454009335711102e-05
2.943650793650793851e+00,-5.265306723811902917e-05,7.925633720729362438e-05
2.944444444444444642e+00,-4.806951409980849706e-05,7.790716487548260871e-05
2.945238095238095433e+00,-4.310004931657014594e-05,6.890413791056315359e-05
2.946031746031746223e+00,-3.805204003412250915e-05,5.347777360243356694e-05
2.946825396825397014e+00,-3.286284307711525253e-05,3.348239755820359755e-05
2.947619047619047805e+00,-2.720907500247616364e-05,1.110947384987120092e-05
2.948412698412698596e+00,-2.062553557930115041e-05,-1.140278496364124046e-05
2.949206349206349387e+00,-1.263473172506412560e-05,-3.198253882710535006e-05
2.950000000000000178e+00,-2.894329877945757001e-06,-4.883287359554373298e-05
2.950793650793650968e+00,8.649161151796041060e-06,-6.047808243315683035e-05
2.951587301587301759e+00,2.163592031787197524e-05,-6.582347854616968775e-05
2.952380952380952550e+00,3.523702072833440155e-05,-6.427681207051607606e-05
2.953174603174603341e+00,4.818821998729609337e-05,-5.591055514163380540e-05
2.953968253968254132e+00,5.891296242849139556e-05,-4.158294776385670368e-05
2.954761904761904923e+00,6.572574674888782148e-05,-2.292271010680632534e-05
2.955555555555555713e+00,6.710307418306320020e-05,-2.125678525727935201e-06
2.956349206349206504e+00,6.199311331156645663e-05,1.841163444752717907e-05
2.957142857142857295e+00,5.010783399725982936e-05,3.652459073038854008e-05
2.957936507936508086e+00,3.212110502924181367e-05,5.065258588610542766e-05
2.958730158730158877e+00,9.699927527457294970e-06,6.005248757515944643e-05
2.959523809523809668e+00,-1.467220683382819960e-05,6.481760818966139301e-05
2.960317460317460458e+00,-3.806796601786823701e-05,6.572052898931127229e-05
2.961111111111111249e+00,-5.761409792859935336e-05,6.392387244658923409e-05
2.961904761904762040e+00,-7.099850842731225513e-05,6.061790740706344166e-05
2.962698412698412831e+00,-7.685726751519657198e-05,5.666798761701390456e-05
2.963492063492063622e+00,-7.494283040463303844e-05,5.237602463549327912e-05
2.964285714285714413e+00,-6.604359383607595255e-05,4.744481897234121870e-05
2.965079365079365203e+00,-5.170534204188958344e-05,4.116934486300262121e-05
2.965873015873015994e+00,-3.386113074260107831e-05,3.279235619280443902e-05
2.966666666666666785e+00,-1.448550189800214506e-05,2.189831097683224296e-05
2.967460317460317576e+00,4.643997112198042689e-06,8.709733674846826892e-06
2.968253968253968367e+00,2.204739107267397039e-05,-5.807212495245950598e-06
2.969047619047619158e+00,3.652393539994408219e-05,-2.005257762578768275e-05
2.969841269841269948e+00,4.707051873059814350e-05,-3.208066137224250576e-05
2.970634920634920739e+00,5.281347563990295612e-05,-3.999295948246747576e-05
2.971428571428571530e+00,5.302876703777747221e-05,-4.235249845799851339e-05
2.972222222222222321e+00,4.728986859346812722e-05,-3.854069960301539872e-05
2.973015873015873112e+00,3.571463149646704732e-05,-2.898820052339194588e-05
2.973809523809523903e+00,1.921024605068020078e-05,-1.522619958246723478e-05
2.974603174603174693e+00,-4.175181329085649634e-07,2.715605932267516314e-07
2.975396825396825484e+00,-2.059317104629735922e-05,1.445453384205405425e-05
2.976190476190476275e+00,-3.835718514044039870e-05,2.422997875442130223e-05
2.976984126984127066e+00,-5.092968666574565988e-05,2.708280234728785850e-05
2.977777777777777857e+00,-5.630249684349244521e-05,2.164963730300462872e-05
2.978571428571428648e+00,-5.369189077491895348e-05,8.092266442268862271e-06
2.979365079365079438e+00,-4.372298537989868848e-05,-1.185373259821373986e-05
2.980158730158730229e+00,-2.829377473523351469e-05,-3.519238024388422867e-05
2.980952380952381020e+00,-1.015462277744765361e-05,-5.827307398650090201e-05
2.981746031746031811e+00,7.687475013151748892e-06,-7.753742556627492787e-05
2.982539682539682602e+00,2.258913142280732925e-05,-9.022459890805606506e-05
2.983333333333333393e+00,3.276490001970933384e-05,-9.487281742728015670e-05
2.984126984126984183e+00,3.754521986635020404e-05,-9.151425234169202128e-05
2.984920634920634974e+00,3.735362548110724931e-05,-8.154143630614676724e-05
2.985714285714285765e+00,3.343383599546723205e-05,-6.730432747431185959e-05
2.986507936507936556e+00,2.742325059614602893e-05,-5.155673066149823650e-05
2.987301587301587347e+00,2.090646610719753957e-05,-3.689228339856700904e-05
2.988095238095238138e+00,1.507503681400210023e-05,-2.528913954257955976e-05
2.988888888888888928e+00,1.056896692192164270e-05,-1.783321456770993368e-05
2.989682539682539719e+00,7.503379721698202105e-06,-1.463895134811376252e-05
2.990476190476190510e+00,5.622118282896698686e-06,-1.495195794983075211e-05
2.991269841269841301e+00,4.492152303243473099e-06,-1.739690486104384496e-05
2.992063492063492092e+00,3.663106453962542546e-06,-2.031585214627846167e-05
2.992857142857142883e+00,2.753112608901828301e-06,-2.212678146272120487e-05
2.993650793650793673e+00,1.466137120732381115e-06,-2.163089826580053574e-05
2.994444444444444464e+00,-4.224699597748947583e-07,-1.821606863339435736e-05
2.995238095238095255e+00,-3.068907758489548134e-06,-1.193330942812799478e-05
2.996031746031746046e+00,-6.527834710473091103e-06,-3.449317756132390600e-06
2.996825396825396837e+00,-1.069109673236517159e-05,6.104702020471342806e-06
2.997619047619047628e+00,-1.523460328356244423e-05,1.535622638361149270e-05
2.998412698412698418e+00,-1.961904727297192379e-05,2.294753865102323561e-05
2.999206349206349209e+00,-2.317369481468620063e-05,2.778393449750579742e-05
3.000000000000000000e+00,-2.525568896538725835e-05,2.923723807134789160e-05
3.000793650793650791e+00,-2.543687756915913778e-05,2.727546328322225287e-05
3.001587301587301582e+00,-2.364743498027091438e-05,2.249858299071446759e-05
3.002380952380952372e+00,-2.021558729085022404e-05,1.607083609234440655e-05
3.003174603174603163e+00,-1.578320229706433480e-05,9.552391186610339135e-06
3.003968253968253954e+00,-1.112681407873733663e-05,4.647706650903445947e-06
3.004761904761904745e+00,-6.947040525717541178e-06,2.903648206489185444e-06
3.005555555555555536e+00,-3.693805395980933488e-06,5.404803933052897297e-06
3.006349206349206327e+00,-1.476416476769413399e-06,1.252254881694351001e-05
3.007142857142857117e+00,-8.041864283168329282e-08,2.377370569044711567e-05
3.007936507936507908e+00,9.151033561883113387e-07,3.783015621870899128e-05
3.008730158730158699e+00,1.955982921951154661e-06,5.269138639708882552e-05
3.009523809523809490e+00,3.331256961099790037e-06,6.599315167194709974e-05
3.010317460317460281e+00,5.064850327931180915e-06,7.539130513063764549e-05
3.011111111111111072e+00,6.928360847273392144e-06,7.894697435897808950e-05
3.011904761904761862e+00,8.565725311580553011e-06,7.545184861576022955e-05
3.012698412698412653e+00,9.663560699382054163e-06,6.465445348646389702e-05
3.013492063492063444e+00,1.008050154078094358e-05,4.736031012887631557e-05
3.014285714285714235e+00,9.878216458598918274e-06,2.538150728454308339e-05
3.015079365079365026e+00,9.255428031610837041e-06,1.323350833607717505e-06
3.015873015873015817e+00,8.436088499828800033e-06,-2.177260802276612543e-05
3.016666666666666607e+00,7.576448635642640009e-06,-4.087316515248077512e-05
3.017460317460317398e+00,6.732586279827527915e-06,-5.341316423432331006e-05
3.018253968253968189e+00,5.890166443868902791e-06,-5.771149756302774986e-05
3.019047619047618980e+00,5.024558845223112535e-06,-5.330873646384707854e-05
3.019841269841269771e+00,4.146817475579690520e-06,-4.119117748778754136e-05
3.020634920634920562e+00,3.305848304355419751e-06,-2.383109116767780363e-05
3.021428571428571352e+00,2.552490248210004781e-06,-4.943962444633861164e-06
3.022222222222222143e+00,1.902270227840024255e-06,1.110173316935581597e-05
3.023015873015872934e+00,1.334320892666608212e-06,2.017702874372791119e-05
3.023809523809523725e+00,8.350173965436658200e-07,1.941215704089923924e-05
3.024603174603174516e+00,4.628780355670396341e-07,8.087960004040392961e-06
3.025396825396825307e+00,3.991213542531630912e-07,-1.185985375863744896e-05
3.026190476190476097e+00,9.564569571969907492e-07,-3.592018692051525479e-05
3.026984126984126888e+00,2.535022283613346637e-06,-5.774821139566740648e-05
3.027777777777777679e+00,5.531110456121408721e-06,-7.047983248265995613e-05
3.028571428571428470e+00,1.022091068893705102e-05,-6.834955667961460158e-05
3.029365079365079261e+00,1.665563329101649257e-05,-4.821881971347147602e-05
3.030158730158730052e+00,2.460739439435616959e-05,-1.060789145959513313e-05
3.030952380952380842e+00,3.358925798259374961e-05,4.007167044838578362e-05
3.031746031746031633e+00,4.294146359619755782e-05,9.619104527791621020e-05
3.032539682539682424e+00,5.194475300933544407e-05,1.483495443819643782e-04
3.033333333333333215e+00,5.990849980376722399e-05,1.872330870789820471e-04
3.034126984126984006e+00,6.619437947328002544e-05,2.054023473186073422e-04
3.034920634920634797e+00,7.017082674202556149e-05,1.985699804973620967e-04
3.035714285714285587e+00,7.113622143631723107e-05,1.661420701190855962e-04
3.036507936507936378e+00,6.828176034615395060e-05,1.110804316046565152e-04
3.037301587301587169e+00,6.076573836178363898e-05,3.932580281993597120e-05
3.038095238095237960e+00,4.792285512321930427e-05,-4.097618947467879409e-05
3.038888888888888751e+00,2.955066247376893690e-05,-1.203250921873892843e-04
3.039682539682539542e+00,6.155138696522749268e-06,-1.887908091276413935e-04
3.040476190476190332e+00,-2.095051271035594287e-05,-2.370579974118024462e-04
3.041269841269841123e+00,-4.972504995026763878e-05,-2.576064686731941258e-04
3.042063492063491914e+00,-7.761626069356342649e-05,-2.459697920570937568e-04
3.042857142857142705e+00,-1.018598530128736625e-04,-2.018949362013808930e-04
3.043650793650793496e+00,-1.198288006208690453e-04,-1.300840543743211365e-04
3.044444444444444287e+00,-1.294120474816116333e-04,-4.013175396297761463e-05
3.045238095238095077e+00,-1.293683769964908408e-04,5.460760886629439242e-05
3.046031746031745868e+00,-1.195509297771008028e-04,1.391684354581550827e-04
3.046825396825396659e+00,-1.008847712372212135e-04,1.997089074028190277e-04
3.047619047619047450e+00,-7.504338521697015874e-05,2.261743913571456039e-04
3.048412698412698241e+00,-4.390431585432905880e-05,2.142510141565761314e-04
3.049206349206349032e+00,-9.009364681459485492e-06,1.661824880510311912e-04
3.049999999999999822e+00,2.867904587022213178e-05,9.030836467754741338e-05
3.050793650793650613e+00,6.850898423624731499e-05,-5.320846038270098350e-07
3.051587301587301404e+00,1.093508880014736518e-04,-9.134731589178644775e-05
3.052380952380952195e+00,1.485593646640914972e-04,-1.675822232019999556e-04
3.053174603174602986e+00,1.811933546938445652e-04,-2.174609693543390614e-04
3.053968253968253777e+00,2.000806945246498634e-04,-2.337306053057517567e-04
3.054761904761904567e+00,1.971167675249303048e-04,-2.146101598512309189e-04
3.055555555555555358e+00,1.657066464643754957e-04,-1.638729234727620109e-04
3.056349206349206149e+00,1.036641030547705706e-04,-9.008531114686885166e-05
3.057142857142856940e+00,1.546884511483244279e-05,-5.133418186812089830e-06
3.057936507936507731e+00,-8.718911007694554608e-05,7.770936825929637280e-05
3.058730158730158522e+00,-1.871402510010355762e-04,1.458380673850595500e-04
3.059523809523809312e+00,-2.655076708064060321e-04,1.891715679800450717e-04
3.060317460317460103e+00,-3.065124926870933211e-04,2.015778379615547572e-04
3.061111111111110894e+00,-3.018407651263180398e-04,1.817399267617686616e-04
3.061904761904761685e+00,-2.531319795201944197e-04,1.333846670228149207e-04
3.062698412698412920e+00,-1.717120551914174884e-04,6.481286984288935624e-05
3.063492063492063711e+00,-7.562309630723279563e-05,-1.228687519733537906e-05
3.064285714285714501e+00,1.505970545803875948e-05,-8.465854534984532131e-05
3.065079365079365292e+00,8.309660217676017582e-05,-1.397138922598903713e-04
3.065873015873016083e+00,1.176971051543370691e-04,-1.678208866489464316e-04
3.066666666666666874e+00,1.160516002343674218e-04,-1.641701334715342216e-04
3.067460317460317665e+00,8.275540234438165073e-05,-1.297264607681192000e-04
3.068253968253968456e+00,2.773143036231866054e-05,-7.093188505341846818e-05
3.069047619047619246e+00,-3.648443944177010739e-05,1.833449081018685068e-06
3.069841269841270037e+00,-9.733243604922161500e-05,7.662441003514796939e-05
3.070634920634920828e+00,-1.442266033874949819e-04,1.424512583739067782e-04
3.071428571428571619e+00,-1.698060702418700395e-04,1.912340676951058472e-04
3.072222222222222410e+00,-1.704937290729653524e-04,2.187123368643681626e-04
3.073015873015873201e+00,-1.464932828376499022e-04,2.242223594835757151e-04
3.073809523809523991e+00,-1.013451327703103840e-04,2.096452187977683446e-04
3.074603174603174782e+00,-4.114415679247967968e-05,1.780730545997808605e-04
3.075396825396825573e+00,2.645746107231387122e-05,1.327607339296240751e-04
3.076190476190476364e+00,9.331231636986730559e-05,7.672567742524503075e-05
3.076984126984127155e+00,1.517735866336746735e-04,1.301152606892761624e-05
3.077777777777777946e+00,1.955544583889905208e-04,-5.470333678540680126e-05
3.078571428571428736e+00,2.204273022539456766e-04,-1.216209272967602294e-04
3.079365079365079527e+00,2.247297035615008435e-04,-1.818273536587319578e-04
3.080158730158730318e+00,2.096003609837646076e-04,-2.288907972504723308e-04
3.080952380952381109e+00,1.788419176533429119e-04,-2.569077169431581735e-04
3.081746031746031900e+00,1.383366175978768906e-04,-2.617000008715119740e-04
3.082539682539682691e+00,9.502960418153649422e-05,-2.418259285271588709e-04
3.083333333333333481e+00,5.562603900620820166e-05,-1.991235083038756860e-04
3.084126984126984272e+00,2.527838980421540297e-05,-1.386297965936807792e-04
3.084920634920635063e+00,6.603213993930219191e-06,-6.787328042483026724e-05
3.085714285714285854e+00,-6.879185398759282347e-07,4.319333254787662731e-06
3.086507936507936645e+00,5.743751183839190707e-07,6.925049587689685235e-05
3.087301587301587436e+00,6.010065234046312532e-06,1.197115430938281756e-04
3.088095238095238226e+00,1.101878392819320186e-05,1.510050433640066758e-04
3.088888888888889017e+00,1.205766763461477640e-05,1.614689778607344224e-04
3.089682539682539808e+00,7.517550518967873314e-06,1.524823564225515017e-04
3.090476190476190599e+00,-2.005797569751390113e-06,1.280386869729291139e-04
3.091269841269841390e+00,-1.405310903036453599e-05,9.400438444241537817e-05
3.092063492063492181e+00,-2.508564022956048608e-05,5.715133881924178957e-05
3.092857142857142971e+00,-3.143415882177533595e-05,2.403681818311814117e-05
3.093650793650793762e+00,-3.013542424860776329e-05,-1.445269940362590312e-07
3.094444444444444553e+00,-1.948781325906628618e-05,-1.252621418345836671e-05
3.095238095238095344e+00,6.840753999611359690e-07,-1.312458560786564615e-05
3.096031746031746135e+00,2.895498047883707129e-05,-4.840321320218162122e-06
3.096825396825396925e+00,6.231394357325742200e-05,7.132216471902064055e-06
3.097619047619047716e+00,9.626295127790468194e-05,1.647481768424590679e-05
3.098412698412698507e+00,1.250999565466389242e-04,1.739475331622592353e-05
3.099206349206349298e+00,1.425146738863175143e-04,6.423730234439716182e-06
3.100000000000000089e+00,1.425425380934985020e-04,-1.623156089412207986e-05
3.100793650793650880e+00,1.207749072734704828e-04,-4.641075011249219207e-05
3.101587301587301670e+00,7.559191283425168416e-05,-7.706027218746684454e-05
3.102380952380952461e+00,9.116253804555133532e-06,-1.003456090652398005e-04
3.103174603174603252e+00,-7.241343155693711741e-05,-1.101014409056961033e-04
3.103968253968254043e+00,-1.590799945180911023e-04,-1.038010148295576574e-04
3.104761904761904834e+00,-2.386139040626719069e-04,-8.342322802292399234e-05
3.105555555555555625e+00,-2.984671719196367438e-04,-5.496171126285989315e-05
3.106349206349206415e+00,-3.282633614062118398e-04,-2.671678181875569702e-05
3.107142857142857206e+00,-3.220781106090055720e-04,-6.841643067557676658e-06
3.107936507936507997e+00,-2.799562307167933681e-04,-8.202673620892152128e-07
3.108730158730158788e+00,-2.082033803416932923e-04,-9.600220109349464617e-06
3.109523809523809579e+00,-1.182954709818872439e-04,-2.897005190869566337e-05
3.110317460317460370e+00,-2.462646754774387931e-05,-5.046582391857199146e-05
3.111111111111111160e+00,5.837653359294721654e-05,-6.366954150835882711e-05
3.111904761904761951e+00,1.190973925318353796e-04,-5.932948805916564666e-05
3.112698412698412742e+00,1.508945278797626025e-04,-3.241853646298934046e-05
3.113492063492063533e+00,1.531197756608716147e-04,1.583019943013279731e-05
3.114285714285714324e+00,1.307922379908233281e-04,7.763627291404825341e-05
3.115079365079365115e+00,9.303102801450671396e-05,1.403406726646610613e-04
3.115873015873015905e+00,5.064866120233324877e-05,1.896090687149782402e-04
3.116666666666666696e+00,1.353476619439360729e-05,2.132565837944085595e-04
3.117460317460317487e+00,-1.146294971220810318e-05,2.045933241159945796e-04
3.118253968253968278e+00,-2.158614986357201493e-05,1.643281946265189378e-04
3.119047619047619069e+00,-1.790594520268650773e-05,1.004721846747684208e-04
3.119841269841269860e+00,-3.979828461040417241e-06,2.625546327223652991e-05
3.120634920634920650e+00,1.593740495473663072e-05,-4.333559548615711329e-05
3.121428571428571441e+00,3.833450813982941074e-05,-9.538127993222373681e-05
3.122222222222222232e+00,6.096006591723478408e-05,-1.221073551026929526e-04
3.123015873015873023e+00,8.234166988071886474e-05,-1.223842316222155066e-04
3.123809523809523814e+00,1.007597067890253392e-04,-1.013218422666397218e-04
3.124603174603174605e+00,1.133975167120505190e-04,-6.821478160313903009e-05
3.125396825396825395e+00,1.162835376266093535e-04,-3.356452090946622280e-05
3.126190476190476186e+00,1.052373646976232654e-04,-6.132149923269499686e-06
3.126984126984126977e+00,7.753277719748130116e-05,9.112605238458041908e-06
3.127777777777777768e+00,3.360651584181819084e-05,1.164555717520200732e-05
3.128571428571428559e+00,-2.197506849142809727e-05,4.639964820953553600e-06
3.129365079365079350e+00,-8.085991952116768349e-05,-6.758114157607393921e-06
3.130158730158730140e+00,-1.326393256944693479e-04,-1.746892510344004955e-05
3.130952380952380931e+00,-1.674740499825320863e-04,-2.414999908874345023e-05
3.131746031746031722e+00,-1.787527174406329836e-04,-2.598043360125408248e-05
3.132539682539682513e+00,-1.648871477661355994e-04,-2.436044616902268759e-05
3.133333333333333304e+00,-1.296603786909870991e-04,-2.174423455415136383e-05
3.134126984126984095e+00,-8.105276940129066735e-05,-2.017885303575211447e-05
3.134920634920634885e+00,-2.897372809156219825e-05,-2.021544308235274500e-05
3.135714285714285676e+00,1.735901780927264621e-05,-2.062421653103232931e-05
3.136507936507936467e+00,5.160684448263792558e-05,-1.893828157007337621e-05
3.137301587301587258e+00,7.147649793516463589e-05,-1.251758447838154857e-05
3.138095238095238049e+00,7.862050659726141702e-05,3.097068157591375285e-07
3.138888888888888840e+00,7.740606615567887326e-05,1.942713038944045788e-05
3.139682539682539630e+00,7.300875363469226632e-05,4.267943384628461088e-05
3.140476190476190421e+00,6.947667658158638031e-05,6.624466225497100725e-05
3.141269841269841212e+00,6.840440637440174416e-05,8.550337810710885282e-05
3.142063492063492003e+00,6.863112022902796022e-05,9.616855472731751205e-05
3.142857142857142794e+00,6.699697290401161948e-05,9.539812384127697911e-05
3.143650793650793585e+00,5.980591378661773784e-05,8.261076187966910492e-05
3.144444444444444375e+00,4.441456072089504761e-05,5.976826818707833350e-05
3.145238095238095166e+00,2.037982295626164503e-05,3.100934018560523142e-05
3.146031746031745957e+00,-1.017886221005741274e-05,1.709311205082302567e-06
3.146825396825396748e+00,-4.303312558805800543e-05,-2.277796272086822374e-05
3.147619047619047539e+00,-7.288060785300098617e-05,-3.834532267961308422e-05
3.148412698412698330e+00,-9.459941212343258242e-05,-4.299656497222800402e-05
3.149206349206349120e+00,-1.043765339749381371e-04,-3.714522339015007143e-05
3.149999999999999911e+00,-1.004705180210534806e-04,-2.331998226593633548e-05
3.150793650793650702e+00,-8.350000488663768142e-05,-5.414092453885176549e-06
3.151587301587301493e+00,-5.626575688227022145e-05,1.228306734174277694e-05
3.152380952380952284e+00,-2.319641045881878862e-05,2.601608496399457297e-05
3.153174603174603075e+00,1.044635661292102657e-05,3.324991353907698599e-05
3.153968253968253865e+00,3.945519303602350027e-05,3.299909809610238130e-05
3.154761904761904656e+00,5.952158811796988012e-05,2.578958692254764847e-05
3.155555555555555447e+00,6.792917803120295894e-05,1.333023681532680829e-05
3.156349206349206238e+00,6.401513210463012150e-05,-1.978572021341779952e-06
3.157142857142857029e+00,4.933679962328403303e-05,-1.756686092175593742e-05
3.157936507936507819e+00,2.749322421858170582e-05,-3.114596041874553026e-05
3.158730158730158610e+00,3.577369261341982383e-06,-4.103097008889121394e-05
3.159523809523809401e+00,-1.670723231345065679e-05,-4.631444976748326422e-05
3.160317460317460192e+00,-2.814564563138976345e-05,-4.689424564247139253e-05
3.161111111111110983e+00,-2.712190178567002965e-05,-4.337258679309656626e-05
3.161904761904761774e+00,-1.249225455177273694e-05,-3.685504759849507001e-05
3.162698412698412564e+00,1.400132378015764677e-05,-2.868758191619809436e-05
3.163492063492063355e+00,4.790430726169631162e-05,-2.017646502266594433e-05
3.164285714285714146e+00,8.280097890315912779e-05,-1.234126904971653457e-05
3.165079365079364937e+00,1.115086741635057317e-04,-5.754857613234590043e-06
3.165873015873015728e+00,1.274963877551025496e-04,-5.171760053200833646e-07
3.166666666666666519e+00,1.262690096278543475e-04,3.621971490847841790e-06
3.167460317460317309e+00,1.064398834642349032e-04,7.029977396438471038e-06
3.168253968253968100e+00,7.021813755533165178e-05,9.938415503846034736e-06
3.169047619047618891e+00,2.310452620369486592e-05,1.227696775655400346e-05
3.169841269841269682e+00,-2.723783364398837785e-05,1.366905189566512734e-05
3.170634920634920473e+00,-7.271631018982811442e-05,1.359299701481319365e-05
3.171428571428571264e+00,-1.066914746258543374e-04,1.163456174088184354e-05
3.172222222222222054e+00,-1.254722266426328372e-04,7.711218121304891997e-06
3.173015873015872845e+00,-1.290029162533115267e-04,2.161574380234492183e-06
3.173809523809523636e+00,-1.205821981239188739e-04,-4.341712031535313382e-06
3.174603174603174427e+00,-1.057389012779240336e-04,-1.101335351581154515e-05
3.175396825396825218e+00,-9.060228952788697363e-05,-1.720661046974709439e-05
3.176190476190476009e+00,-8.020165522514069174e-05,-2.257858723579818253e-05
3.176984126984126799e+00,-7.712023864580042087e-05,-2.710022405147138427e-05
3.177777777777777590e+00,-8.083528429915388806e-05,-3.092032455036361656e-05
3.178571428571428381e+00,-8.791821427725054604e-05,-3.416102495154156571e-05
3.179365079365079172e+00,-9.306315416649589404e-05,-3.674532769249123974e-05
3.180158730158729963e+00,-9.069150186844976880e-05,-3.833092457893748681e-05
3.180952380952380754e+00,-7.669830086230738789e-05,-3.837127228459862483e-05
3.181746031746031544e+00,-4.982459156426159524e-05,-3.627537780219527725e-05
3.182539682539682335e+00,-1.221152562070572506e-05,-3.161003740613649440e-05
3.183333333333333126e+00,3.106874908770916756e-05,-2.428263097543145873e-05
3.184126984126983917e+00,7.336474013002608485e-05,-1.465109314900265019e-05
3.184920634920634708e+00,1.082242358315040233e-04,-3.524656456488439345e-06
3.185714285714285499e+00,1.310062644206760548e-04,7.956250759887194331e-06
3.186507936507936289e+00,1.398338406086848339e-04,1.853943424442454395e-05
3.187301587301587080e+00,1.356759168187390418e-04,2.712230190724976181e-05
3.188095238095238315e+00,1.216685634820942243e-04,3.297468460076904539e-05
3.188888888888889106e+00,1.020100468796941853e-04,3.585005760240141587e-05
3.189682539682539897e+00,8.082388217612874581e-05,3.595389963579247666e-05
3.190476190476190688e+00,6.129830144398764550e-05,3.379513384586777685e-05
3.191269841269841478e+00,4.525478731712234925e-05,2.998854298554775807e-05
3.192063492063492269e+00,3.314679907686881232e-05,2.508309878110259449e-05
3.192857142857143060e+00,2.438334228087088288e-05,1.946703513535712963e-05
3.193650793650793851e+00,1.782024946767927050e-05,1.336418636528116441e-05
3.194444444444444642e+00,1.225936172488337782e-05,6.904963173455360770e-06
3.195238095238095433e+00,6.829927394925774490e-06,2.360741288091884826e-07
3.196031746031746223e+00,1.180974455404473036e-06,-6.374950472036423122e-06
3.196825396825397014e+00,-4.528638972987274136e-06,-1.248171309595782150e-05
3.197619047619047805e+00,-9.806054274932417207e-06,-1.747386940310129304e-05
3.198412698412698596e+00,-1.409292444665122280e-05,-2.066637432272729283e-05
3.199206349206349387e+00,-1.703295215807671716e-05,-2.143818660995952064e-05
3.200000000000000178e+00,-1.864813880922987276e-05,-1.938092007183068170e-05
3.200793650793650968e+00,-1.936650330436741506e-05,-1.441999936246421219e-05
3.201587301587301759e+00,-1.989928827396739074e-05,-6.881585313542106889e-06
3.202380952380952550e+00,-2.102099199823308142e-05,2.513237406719332021e-06
3.203174603174603341e+00,-2.333691125330945182e-05,1.273875411526413156e-05
3.203968253968254132e+00,-2.711814376389731204e-05,2.263469514335905404e-05
3.204761904761904923e+00,-3.224836148059778788e-05,3.112279629486169836e-05
3.205555555555555713e+00,-3.827885466294331056e-05,3.741123595551541222e-05
3.206349206349206504e+00,-4.455045379088500804e-05,4.112507864636011877e-05
3.207142857142857295e+00,-5.032683579640134591e-05,4.232304175239294639e-05
3.207936507936508086e+00,-5.489405880924582348e-05,4.139710999782322473e-05
3.208730158730158877e+00,-5.760786183444948792e-05,3.888865859920184487e-05
3.209523809523809668e+00,-5.790237596846384272e-05,3.528328813476227306e-05
3.210317460317460458e+00,-5.529778609360823280e-05,3.085708875668621105e-05
3.211111111111111249e+00,-4.944543704090487493e-05,2.563187067853322070e-05
3.211904761904762040e+00,-4.022219514420818823e-05,1.945847281353117487e-05
3.212698412698412831e+00,-2.784622181032018313e-05,1.220050580688623830e-05
3.213492063492063622e+00,-1.295887397554664273e-05,3.953973884349015998e-06
3.214285714285714413e+00,3.381963312244881759e-06,-4.777880983205084224e-06
3.215079365079365203e+00,1.982505499220591915e-05,-1.302786013968281079e-05
3.215873015873015994e+00,3.495184014260084516e-05,-1.946963827364850636e-05
3.216666666666666785e+00,4.754749983971259949e-05,-2.267864062775399580e-05
3.217460317460317576e+00,5.682789481182657379e-05,-2.148803343861654204e-05
3.218253968253968367e+00,6.253456477904466607e-05,-1.533977196646640453e-05
3.219047619047619158e+00,6.485595690092788176e-05,-4.528232649299931261e-06
3.219841269841269948e+00,6.420862081262158514e-05,9.731411659411063139e-06
3.220634920634920739e+00,6.097686887051642889e-05,2.542875833985930997e-05
3.221428571428571530e+00,5.532646597871725358e-05,4.005865794890021156e-05
3.222222222222222321e+00,4.717156757065995795e-05,5.105606896130332944e-05
3.223015873015873112e+00,3.630761553500595762e-05,5.630324176137941581e-05
3.223809523809523903e+00,2.265630953895960014e-05,5.461705676004891354e-05
3.224603174603174693e+00,6.525415285445070595e-06,4.610217396505355788e-05
3.225396825396825484e+00,-1.121942984570297239e-05,3.226496533626933686e-05
3.226190476190476275e+00,-2.914085025087216919e-05,1.582778568971864432e-05
3.226984126984127066e+00,-4.538892185440028993e-05,2.463790273287659164e-07
3.227777777777777857e+00,-5.799529605897563042e-05,-1.100332345123501502e-05
3.228571428571428648e+00,-6.522828713634152469e-05,-1.524684456888517417e-05
3.229365079365079438e+00,-6.592244754527419310e-05,-1.137167082913687021e-05
3.230158730158730229e+00,-5.970809405786191369e-05,-3.268861048488012738e-07
3.230952380952381020e+00,-4.709801086671338107e-05,1.482669235135958471e-05
3.231746031746031811e+00,-2.942712965757596395e-05,2.942794854079594524e-05
3.232539682539682602e+00,-8.671435201590658732e-06,3.825934519735150525e-05
3.233333333333333393e+00,1.281184294858714400e-05,3.692080850872011665e-05
3.234126984126984183e+00,3.257719628018968926e-05,2.317850809182484990e-05
3.234920634920634974e+00,4.837646350416176109e-05,-2.138977982777570467e-06
3.235714285714285765e+00,5.840787180292170171e-05,-3.506314879256237709e-05
