Timestamp,Flexor carpi radialis,Extensor digitorum
2.000000000000000000e+00,6.301392078431649799e-05,6.232724270439613282e-05
2.000793650793650791e+00,6.483694931524798023e-05,5.018332686476615348e-05
2.001587301587301582e+00,5.146633686589094727e-05,3.784636419189220955e-05
2.002380952380952372e+00,2.395575328508005826e-05,2.897649530085618153e-05
2.003174603174603163e+00,-1.312911424808068436e-05,2.554431960952034233e-05
2.003968253968253954e+00,-5.271897498002159582e-05,2.740443217383702808e-05
2.004761904761904745e+00,-8.701598566372665622e-05,3.253067954624643768e-05
2.005555555555555536e+00,-1.094737378527689694e-04,3.777703937979951860e-05
2.006349206349206327e+00,-1.163633489501369171e-04,3.987697284771064946e-05
2.007142857142857117e+00,-1.074835961555915137e-04,3.636125887872807862e-05
2.007936507936507908e+00,-8.588777540025367544e-05,2.615648161083673323e-05
2.008730158730158699e+00,-5.681636959953167060e-05,9.767399211343070012e-06
2.009523809523809490e+00,-2.623201575674857948e-05,-1.092138229544659557e-05
2.010317460317460281e+00,5.974781063214410483e-07,-3.310516600527861760e-05
2.011111111111111072e+00,2.011520037361381566e-05,-5.363115388924112809e-05
2.011904761904761862e+00,3.091261285581866329e-05,-6.954697551840668295e-05
2.012698412698412653e+00,3.359764685116134263e-05,-7.853419817672889676e-05
2.013492063492063444e+00,3.024617376535329046e-05,-7.919491133809965840e-05
2.014285714285714235e+00,2.365955945183572336e-05,-7.121274324431447773e-05
2.015079365079365026e+00,1.664117029937169326e-05,-5.543077975657420645e-05
2.015873015873015817e+00,1.143463150537037533e-05,-3.386364647129542496e-05
2.016666666666666607e+00,9.379506594614986297e-06,-9.605806608497149726e-06
2.017460317460317398e+00,1.078002535870259689e-05,1.344201981895759606e-05
2.018253968253968189e+00,1.496332146379268052e-05,3.109048042190758047e-05
2.019047619047618980e+00,2.050419563159289771e-05,3.960957435035091613e-05
2.019841269841269771e+00,2.558642810213191863e-05,3.658926152987990394e-05
2.020634920634920562e+00,2.845001980491350448e-05,2.170576588784055760e-05
2.021428571428571352e+00,2.785218613697885035e-05,-2.848938026139148487e-06
2.022222222222222143e+00,2.345861498993935976e-05,-3.247259411521186465e-05
2.023015873015872934e+00,1.607970005468222570e-05,-6.086698964667574180e-05
2.023809523809523725e+00,7.670793834439554803e-06,-8.126615188235633254e-05
2.024603174603174516e+00,1.033890370213045483e-06,-8.792733675679241458e-05
2.025396825396825307e+00,-7.916409799204926914e-07,-7.754262086583363627e-05
2.026190476190476097e+00,4.627688750028862463e-06,-5.022819831194390045e-05
2.026984126984126888e+00,1.822526320177974681e-05,-9.832912193550619686e-06
2.027777777777777679e+00,3.874940944683355931e-05,3.654769672946334250e-05
2.028571428571428470e+00,6.255540602680035678e-05,7.979193478310478611e-05
2.029365079365079261e+00,8.406392624267448985e-05,1.104804916015623951e-04
2.030158730158730052e+00,9.691981522294530011e-05,1.207884198972245578e-04
2.030952380952380842e+00,9.567552460173280341e-05,1.061620419495036761e-04
2.031746031746031633e+00,7.760085122449422788e-05,6.645666827183954685e-05
2.032539682539682424e+00,4.405773821507351086e-05,6.321783374769250140e-06
2.033333333333333215e+00,8.736264356612079544e-07,-6.525568284892242375e-05
2.034126984126984006e+00,-4.263487658710528338e-05,-1.362253467660472369e-04
2.034920634920634797e+00,-7.592492397091328950e-05,-1.934294773379604258e-04
2.035714285714285587e+00,-9.023886966642921529e-05,-2.249812142278879447e-04
2.036507936507936378e+00,-8.146096963948993945e-05,-2.226683354595245282e-04
2.037301587301587169e+00,-5.182030727058790221e-05,-1.838797752521021170e-04
2.038095238095237960e+00,-9.709099525754513025e-06,-1.125440097121306344e-04
2.038888888888888751e+00,3.251098009384635764e-05,-1.871575948085556511e-05
2.039682539682539542e+00,6.209475205723203337e-05,8.324252681264351710e-05
2.040476190476190332e+00,6.969740411897982341e-05,1.775357213203489508e-04
2.041269841269841123e+00,5.205152841111486558e-05,2.501662603701895098e-04
2.042063492063491914e+00,1.266487496935551816e-05,2.916706980489173931e-04
2.042857142857142705e+00,-3.956534785640617390e-05,2.986554375111443848e-04
2.043650793650793496e+00,-9.318448463435392284e-05,2.738122849019791923e-04
2.044444444444444287e+00,-1.374055481067641346e-04,2.245718442077600826e-04
2.045238095238095077e+00,-1.646860616664666262e-04,1.609289435517317977e-04
2.046031746031745868e+00,-1.719778036568065456e-04,9.311999625319316947e-05
2.046825396825396659e+00,-1.605081495125513895e-04,2.973438804813534922e-05
2.047619047619047450e+00,-1.344582824015802080e-04,-2.341161347255456875e-05
2.048412698412698241e+00,-9.920255730851840203e-05,-6.359255980038571745e-05
2.049206349206349032e+00,-5.978349836398104411e-05,-9.084412381250393657e-05
2.049999999999999822e+00,-2.006344408379018176e-05,-1.072313814791576607e-04
2.050793650793650613e+00,1.735236123938714380e-05,-1.159427682873474873e-04
2.051587301587301404e+00,5.064522077781259039e-05,-1.203798969339518277e-04
2.052380952380952195e+00,7.818226414491591934e-05,-1.233674866266827835e-04
2.053174603174602986e+00,9.822250546107933269e-05,-1.265795894319356424e-04
2.053968253968253777e+00,1.092037348208802009e-04,-1.302483690360293730e-04
2.054761904761904567e+00,1.105756192523268705e-04,-1.331821566883453767e-04
2.055555555555555358e+00,1.037980701150365232e-04,-1.330785197035218238e-04
2.056349206349206149e+00,9.290815329708291225e-05,-1.270792520690429330e-04
2.057142857142856940e+00,8.411466465447585406e-05,-1.124738750734702341e-04
2.057936507936507731e+00,8.422292722214447702e-05,-8.742029632921092500e-05
2.058730158730158522e+00,9.819911746110182550e-05,-5.153341853979328689e-05
2.059523809523809312e+00,1.266530597698258161e-04,-6.216737067223277053e-06
2.060317460317460103e+00,1.642534315201534326e-04,4.531750089400486903e-05
2.061111111111110894e+00,1.999574280356683617e-04,9.831294828328032654e-05
2.061904761904761685e+00,2.194127568049556375e-04,1.469605173076268996e-04
2.062698412698412920e+00,2.090861182766245616e-04,1.850956708790324240e-04
2.063492063492063711e+00,1.608674379229417279e-04,2.071198422766164476e-04
2.064285714285714501e+00,7.548765398764103692e-05,2.091046608276124345e-04
2.065079365079365292e+00,-3.663121764334165137e-05,1.898651800261519438e-04
2.065873015873016083e+00,-1.575512326169919899e-04,1.516239414251391337e-04
2.066666666666666874e+00,-2.663323994034586407e-04,9.989550718886244676e-05
2.067460317460317665e+00,-3.443686934423950382e-04,4.246081195751479038e-05
2.068253968253968456e+00,-3.798442101027469449e-04,-1.233151231534290890e-05
2.069047619047619246e+00,-3.700597428349089836e-04,-5.740322926629559040e-05
2.069841269841270037e+00,-3.212003054274405016e-04,-8.833022142781765359e-05
2.070634920634920828e+00,-2.459459267923994074e-04,-1.038810181680607282e-04
2.071428571428571619e+00,-1.598873230220579367e-04,-1.056652587230300457e-04
2.072222222222222410e+00,-7.786574758188410700e-05,-9.715817758836662688e-05
2.073015873015873201e+00,-1.114597336564865395e-05,-8.251696565346138923e-05
2.073809523809523991e+00,3.409454016398099751e-05,-6.556881470579408583e-05
2.074603174603174782e+00,5.692436130144597483e-05,-4.918760941184175187e-05
2.075396825396825573e+00,6.074908451352744660e-05,-3.508263728524699460e-05
2.076190476190476364e+00,5.176416136204317419e-05,-2.388568313283921237e-05
2.076984126984127155e+00,3.720462565881472631e-05,-1.538672248565130029e-05
2.077777777777777946e+00,2.375412226014571930e-05,-8.818834129408196809e-06
2.078571428571428736e+00,1.636878846696069732e-05,-3.169636753135097864e-06
2.079365079365079527e+00,1.765063878976335968e-05,2.467205592866442098e-06
2.080158730158730318e+00,2.778191590734712440e-05,8.520305775998132468e-06
2.080952380952381109e+00,4.492457292332216587e-05,1.464587201315935299e-05
2.081746031746031900e+00,6.592029465423660342e-05,1.966504930395150810e-05
2.082539682539682691e+00,8.710687675387509697e-05,2.186292296240801027e-05
2.083333333333333481e+00,1.050877973111806658e-04,1.964555423759899069e-05
2.084126984126984272e+00,1.173378610376860207e-04,1.235404565411844953e-05
2.084920634920635063e+00,1.225858119674197932e-04,8.791030140637506692e-07
2.085714285714285854e+00,1.209678695053044905e-04,-1.228154124551541496e-05
2.086507936507936645e+00,1.139718571053342810e-04,-2.368364593285042012e-05
2.087301587301587436e+00,1.041804961358665704e-04,-3.014936671774833666e-05
2.088095238095238226e+00,9.479589264395299291e-05,-3.006859604264923829e-05
2.088888888888889017e+00,8.892889441309787880e-05,-2.421838851608557608e-05
2.089682539682539808e+00,8.870083426006441997e-05,-1.568896687196103410e-05
2.090476190476190599e+00,9.432596888549356611e-05,-8.864874969262709567e-06
2.091269841269841390e+00,1.034705187450613348e-04,-7.807237523963369782e-06
2.092063492063492181e+00,1.112408604617816322e-04,-1.464061045490175220e-05
2.092857142857142971e+00,1.110605665078775794e-04,-2.855510858162147071e-05
2.093650793650793762e+00,9.641570481820132480e-05,-4.579545445843537948e-05
2.094444444444444553e+00,6.304700869127184497e-05,-6.064097511897933258e-05
2.095238095238095344e+00,1.084349315726178155e-05,-6.704808212563234356e-05
2.096031746031746135e+00,-5.533265805536641507e-05,-6.044233759872711260e-05
2.096825396825396925e+00,-1.263191273723958960e-04,-3.913320609080554003e-05
2.097619047619047716e+00,-1.907020583517117051e-04,-4.951285341876887902e-06
2.098412698412698507e+00,-2.376151388238973046e-04,3.706392379040109579e-05
2.099206349206349298e+00,-2.594129346854174320e-04,7.982092821384797891e-05
2.100000000000000089e+00,-2.534151533301614461e-04,1.158291219623018488e-04
2.100793650793650880e+00,-2.222643054747697048e-04,1.388724202912685387e-04
2.101587301587301670e+00,-1.729147029056568347e-04,1.452611349135274159e-04
2.102380952380952461e+00,-1.146900142067601864e-04,1.343884449154656498e-04
2.103174603174603252e+00,-5.705865303404109658e-05,1.085490777677692957e-04
2.103968253968254043e+00,-7.737408442354093386e-06,7.218205305389602819e-05
2.104761904761904834e+00,2.848406597053236165e-05,3.081279043805232147e-05
2.105555555555555625e+00,5.007813263403327020e-05,-1.002020306967587916e-05
2.106349206349206415e+00,5.838115516414020572e-05,-4.563381030063818738e-05
2.107142857142857206e+00,5.670680795487944849e-05,-7.274315895409316519e-05
2.107936507936507997e+00,4.925883657110542751e-05,-8.965857103452581824e-05
2.108730158730158788e+00,4.010405005001914310e-05,-9.619365281465117816e-05
2.109523809523809579e+00,3.239623039106018568e-05,-9.338157576225516662e-05
2.110317460317460370e+00,2.795428830786070258e-05,-8.309865941804441610e-05
2.111111111111111160e+00,2.721075513437110513e-05,-6.767132306516046244e-05
2.111904761904761951e+00,2.947056072966020427e-05,-4.951366344866772658e-05
2.112698412698412742e+00,3.336515564146775513e-05,-3.082373303215460864e-05
2.113492063492063533e+00,3.736332433703874739e-05,-1.336125860823686521e-05
2.114285714285714324e+00,4.021046749275685703e-05,1.669532947678650889e-06
2.115079365079365115e+00,4.120507647027203902e-05,1.361494543594462601e-05
2.115873015873015905e+00,4.027222164706407536e-05,2.225136305680382572e-05
2.116666666666666696e+00,3.784794872934135664e-05,2.759265794273507998e-05
2.117460317460317487e+00,3.463459792558868744e-05,2.970093640305388285e-05
2.118253968253968278e+00,3.131437880730831436e-05,2.858264828023372302e-05
2.119047619047619069e+00,2.831119780017933270e-05,2.422189034213707707e-05
2.119841269841269860e+00,2.567022111284937057e-05,1.674407538341012369e-05
2.120634920634920650e+00,2.308636506828272485e-05,6.641464975643565855e-06
2.121428571428571441e+00,2.006447531819377696e-05,-5.044032010976571577e-06
2.122222222222222232e+00,1.614834422489458914e-05,-1.667983994773248203e-05
2.123015873015873023e+00,1.113114650714632692e-05,-2.619860814846125909e-05
2.123809523809523814e+00,5.169970868520705289e-06,-3.144162354043177765e-05
2.124603174603174605e+00,-1.231344634676633518e-06,-3.061673385411748142e-05
2.125396825396825395e+00,-7.354066548260947788e-06,-2.275395563800140393e-05
2.126190476190476186e+00,-1.245425240147417830e-05,-8.033001101949885269e-06
2.126984126984126977e+00,-1.594217717411754447e-05,1.211112393279932378e-05
2.127777777777777768e+00,-1.750175292257064862e-05,3.513635750145495694e-05
2.128571428571428559e+00,-1.713358322406039247e-05,5.776088130346513798e-05
2.129365079365079350e+00,-1.513228334439670585e-05,7.646993298166839242e-05
2.130158730158730140e+00,-1.201715334305162894e-05,8.807300440029917129e-05
2.130952380952380931e+00,-8.430645933626677201e-06,9.023824665856336491e-05
2.131746031746031722e+00,-5.015840703837812421e-06,8.194576815587061990e-05
2.132539682539682513e+00,-2.290429912048852838e-06,6.379597819788493851e-05
2.133333333333333304e+00,-5.448568871574566025e-07,3.809137414018155544e-05
2.134126984126984095e+00,2.061149460219751637e-07,8.610926123272181338e-06
2.134920634920634885e+00,2.018937417151446049e-07,-1.995733027318193710e-05
2.135714285714285676e+00,-1.498714403307596033e-07,-4.287021939960667858e-05
2.136507936507936467e+00,-3.974843586617054364e-07,-5.631518913162464660e-05
2.137301587301587258e+00,-1.713141928700968103e-07,-5.830314593047886964e-05
2.138095238095238049e+00,7.210878783953196324e-07,-4.922724604872631677e-05
2.138888888888888840e+00,2.250439070474928979e-06,-3.189602522804643910e-05
2.139682539682539630e+00,4.175146451665904373e-06,-1.096733349410701474e-05
2.140476190476190421e+00,6.094932779449250479e-06,8.122327568989776831e-06
2.141269841269841212e+00,7.531671331944964892e-06,2.047055834837695532e-05
2.142063492063492003e+00,8.019633064154294599e-06,2.290357825351573652e-05
2.142857142857142794e+00,7.191152077941042149e-06,1.471673729149258769e-05
2.143650793650793585e+00,4.848600704983845344e-06,-2.231344885100211839e-06
2.144444444444444375e+00,1.015818502166829987e-06,-2.406286444946595932e-05
2.145238095238095166e+00,-4.039978660027687342e-06,-4.587780580161646035e-05
2.146031746031745957e+00,-9.828248880681835739e-06,-6.291962493449130688e-05
2.146825396825396748e+00,-1.570682768232711010e-05,-7.161709270560899304e-05
2.147619047619047539e+00,-2.100058086364214063e-05,-7.026967209243349275e-05
2.148412698412698330e+00,-2.514037691571425302e-05,-5.924186316342438694e-05
2.149206349206349120e+00,-2.777917461757867308e-05,-4.065531555531605847e-05
2.149999999999999911e+00,-2.884321327652587672e-05,-1.770997280872379674e-05
2.150793650793650702e+00,-2.849794762685826133e-05,6.113550001126851235e-06
2.151587301587301493e+00,-2.704165219033385402e-05,2.769392977367403111e-05
2.152380952380952284e+00,-2.476972364888877686e-05,4.458609866185518481e-05
2.153174603174603075e+00,-2.186621407651219721e-05,5.503921730029739782e-05
2.153968253968253865e+00,-1.836917896267124391e-05,5.788778279606342648e-05
2.154761904761904656e+00,-1.422524111584507370e-05,5.250380271290743743e-05
2.155555555555555447e+00,-9.407710141608777814e-06,3.888754711801472734e-05
2.156349206349206238e+00,-4.039798944654966781e-06,1.783685217213083101e-05
2.157142857142857029e+00,1.541305585768865572e-06,-8.925661244442226121e-06
2.157936507936507819e+00,6.814967093354596719e-06,-3.875694703557600393e-05
2.158730158730158610e+00,1.118868109987643289e-05,-6.825943540177160115e-05
2.159523809523809401e+00,1.413889359158715689e-05,-9.360302518166571748e-05
2.160317460317460192e+00,1.532519010126588176e-05,-1.109854866010460598e-04
2.161111111111110983e+00,1.464843531235831653e-05,-1.171988142814363038e-04
2.161904761904761774e+00,1.225556166030681933e-05,-1.102349879324721868e-04
2.162698412698412564e+00,8.510287021348155847e-06,-8.981637254105141548e-05
2.163492063492063355e+00,3.947983755649942550e-06,-5.770145968263986881e-05
2.164285714285714146e+00,-7.756642121253303082e-07,-1.762915349957306830e-05
2.165079365079364937e+00,-4.941011534574403022e-06,2.516331093541345677e-05
2.165873015873015728e+00,-7.831146790968686338e-06,6.479862905042886470e-05
2.166666666666666519e+00,-8.817125826450777508e-06,9.582103392296532408e-05
2.167460317460317309e+00,-7.465126219999173862e-06,1.142079494628516964e-04
2.168253968253968100e+00,-3.654983605883732215e-06,1.180863769010934454e-04
2.169047619047618891e+00,2.318622799244831414e-06,1.080076166415049727e-04
2.169841269841269682e+00,9.703950106847631618e-06,8.676832352056882119e-05
2.170634920634920473e+00,1.734849973221877197e-05,5.886775001104223553e-05
2.171428571428571264e+00,2.387185035639611665e-05,2.973249737229374736e-05
2.172222222222222054e+00,2.793609987264499318e-05,4.837156106582717005e-06
2.173015873015872845e+00,2.855542064252391564e-05,-1.116794800700487427e-05
2.173809523809523636e+00,2.535992091023326600e-05,-1.522141415285687817e-05
2.174603174603174427e+00,1.872864286199091936e-05,-6.408015401672824273e-06
2.175396825396825218e+00,9.737501108241214382e-06,1.379118997994631575e-05
2.176190476190476009e+00,-7.553254942995044056e-08,4.164167941830206494e-05
2.176984126984126799e+00,-9.064091906542248717e-06,7.173383948562921759e-05
2.177777777777777590e+00,-1.584354785138119453e-05,9.795597029348155434e-05
2.178571428571428381e+00,-1.957696612819214083e-05,1.147059553643355007e-04
2.179365079365079172e+00,-2.011131178664936957e-05,1.180787900638386281e-04
2.180158730158729963e+00,-1.794456534376700555e-05,1.067234444704043712e-04
2.180952380952380754e+00,-1.404420148970525736e-05,8.211883913692735900e-05
2.181746031746031544e+00,-9.566619412116507398e-06,4.817057346801283758e-05
2.182539682539682335e+00,-5.547582741586718559e-06,1.023101597987349384e-05
2.183333333333333126e+00,-2.643469346148678584e-06,-2.617646650324011536e-05
2.184126984126983917e+00,-9.951496179047003277e-07,-5.656322672761826125e-05
2.184920634920634708e+00,-2.558410344791307895e-07,-7.828810333782952461e-05
2.185714285714285499e+00,2.243806546129237260e-07,-9.080268184395110789e-05
2.186507936507936289e+00,1.117049381843829619e-06,-9.533942052116901021e-05
2.187301587301587080e+00,2.832495194479935349e-06,-9.420427147962466378e-05
2.188095238095238315e+00,5.335318264518439805e-06,-8.991824393137485714e-05
2.188888888888889106e+00,8.125538126543809536e-06,-8.446363571821047570e-05
2.189682539682539897e+00,1.039559038843195410e-05,-7.883527978380690791e-05
2.190476190476190688e+00,1.131198838891916552e-05,-7.298686008107074449e-05
2.191269841269841478e+00,1.032705946730033609e-05,-6.612993477882716912e-05
2.192063492063492269e+00,7.415152764031358778e-06,-5.723610640893668744e-05
2.192857142857143060e+00,3.151093730580910560e-06,-4.554907006957734485e-05
2.193650793650793851e+00,-1.402508870215816485e-06,-3.094489272737878334e-05
2.194444444444444642e+00,-4.973255012022535481e-06,-1.406364188046834378e-05
2.195238095238095433e+00,-6.443759471453985180e-06,3.774345349142393949e-06
2.196031746031746223e+00,-5.194265687804573848e-06,2.080027913812545326e-05
2.196825396825397014e+00,-1.316054538467115833e-06,3.509984027685706412e-05
2.197619047619047805e+00,4.374493627445865510e-06,4.492648765162488781e-05
2.198412698412698596e+00,1.052825860124117455e-05,4.898599241055069604e-05
2.199206349206349387e+00,1.560175735548798739e-05,4.666761443173123480e-05
2.200000000000000178e+00,1.823763453322424128e-05,3.820065826613956820e-05
2.200793650793650968e+00,1.758161578515574260e-05,2.471050632194164096e-05
2.201587301587301759e+00,1.346460065126111542e-05,8.143696396837375614e-06
2.202380952380952550e+00,6.426198770512122866e-06,-8.964543742296267518e-06
2.203174603174603341e+00,-2.404848337719382270e-06,-2.388747639519370671e-05
2.203968253968254132e+00,-1.153609816907884945e-05,-3.423467967796208974e-05
2.204761904761904923e+00,-1.939697135241582479e-05,-3.851518646262819473e-05
2.205555555555555713e+00,-2.463485562379408056e-05,-3.658238528051551585e-05
2.206349206349206504e+00,-2.636909627639796755e-05,-2.979205185862667841e-05
2.207142857142857295e+00,-2.435298235134763974e-05,-2.075817094964346225e-05
2.207936507936508086e+00,-1.900922751482959477e-05,-1.270130256520182480e-05
2.208730158730158877e+00,-1.133134631036105108e-05,-8.517918304707340822e-06
2.209523809523809668e+00,-2.672512069939711356e-06,-9.820213631651345906e-06
2.210317460317460458e+00,5.533861951271425156e-06,-1.626117205348902219e-05
2.211111111111111249e+00,1.206403514639498019e-05,-2.542191491410027363e-05
2.211904761904762040e+00,1.614133527690722014e-05,-3.338044361082983499e-05
2.212698412698412831e+00,1.756329424561024259e-05,-3.584852626936451238e-05
2.213492063492063622e+00,1.668271876495627589e-05,-2.955071432454192036e-05
2.214285714285714413e+00,1.424799555210400269e-05,-1.341167624416344397e-05
2.215079365079365203e+00,1.115677853908211458e-05,1.085006173947120264e-05
2.215873015873015994e+00,8.208572048996332557e-06,3.896273864590806674e-05
2.216666666666666785e+00,5.934518405015933804e-06,6.516306729212235384e-05
2.217460317460317576e+00,4.540987913996592608e-06,8.378510081612711906e-05
2.218253968253968367e+00,3.954312508690219662e-06,9.087666833803271864e-05
2.219047619047619158e+00,3.922542757704597706e-06,8.531288243160573155e-05
2.219841269841269948e+00,4.124059582790737613e-06,6.905051762655236376e-05
2.220634920634920739e+00,4.247219563759587483e-06,4.647410516182987614e-05
2.221428571428571530e+00,4.030187344072648122e-06,2.308867749826280639e-05
2.222222222222222321e+00,3.272324226720493841e-06,3.997975472864477223e-06
2.223015873015873112e+00,1.836646625343322105e-06,-7.372760657799249978e-06
2.223809523809523903e+00,-3.423374814480282320e-07,-9.969499211538154554e-06
2.224603174603174693e+00,-3.239118172530656714e-06,-5.083126205666944174e-06
2.225396825396825484e+00,-6.704345376311476652e-06,4.301059552657755829e-06
2.226190476190476275e+00,-1.042266348663180025e-05,1.450160482306549557e-05
2.226984126984127066e+00,-1.387734555173846774e-05,2.214175989366976463e-05
2.227777777777777857e+00,-1.635190816884774114e-05,2.487352628721611211e-05
2.228571428571428648e+00,-1.700183732821026946e-05,2.170105514425234845e-05
2.229365079365079438e+00,-1.501209519724811804e-05,1.293949403158911353e-05
2.230158730158730229e+00,-9.822343750679166745e-06,-6.120056798121242657e-08
2.230952380952381020e+00,-1.367302078934914245e-06,-1.528884217003361400e-05
2.231746031746031811e+00,9.739857246007094577e-06,-3.044512573137000131e-05
2.232539682539682602e+00,2.215131225750429958e-05,-4.329001862344267302e-05
2.233333333333333393e+00,3.390560568237580344e-05,-5.195705630316526600e-05
2.234126984126984183e+00,4.274147001738997460e-05,-5.524600657120905738e-05
2.234920634920634974e+00,4.657213095417530647e-05,-5.287221303160777368e-05
2.235714285714285765e+00,4.402885445344830259e-05,-4.561424248030059611e-05
2.236507936507936556e+00,3.492687571470904441e-05,-3.528175205633527389e-05
2.237301587301587347e+00,2.048379462351974191e-05,-2.444292593987513196e-05
2.238095238095238138e+00,3.162064115936633076e-06,-1.590583035375620701e-05
2.238888888888888928e+00,-1.387924121821625794e-05,-1.202680764348714101e-05
2.239682539682539719e+00,-2.758967881680977590e-05,-1.400043586449152422e-05
2.240476190476190510e+00,-3.584055540152231509e-05,-2.134115820453183623e-05
2.241269841269841301e+00,-3.797304021097922390e-05,-3.176188431049013983e-05
2.242063492063492092e+00,-3.489290328603619664e-05,-4.156633213354140824e-05
2.242857142857142883e+00,-2.868456323961055907e-05,-4.651476663037797663e-05
2.243650793650793673e+00,-2.189009940678458081e-05,-4.295576129763278118e-05
2.244444444444444464e+00,-1.671275369749138960e-05,-2.890894114723250268e-05
2.245238095238095255e+00,-1.441419699310279887e-05,-4.775431575404434439e-06
2.246031746031746046e+00,-1.508346678180341178e-05,2.655572507589892486e-05
2.246825396825396837e+00,-1.780803696397589625e-05,6.027082380002489747e-05
2.247619047619047628e+00,-2.113423233721658877e-05,9.072921659142710370e-05
2.248412698412698418e+00,-2.361662832251501488e-05,1.127822734162981254e-04
2.249206349206349209e+00,-2.425255911620513786e-05,1.229175725351143455e-04
2.250000000000000000e+00,-2.267284216635547417e-05,1.198967051873667852e-04
2.250793650793650791e+00,-1.907368528502725996e-05,1.047487784397229267e-04
2.251587301587301582e+00,-1.397480562346187455e-05,8.021355244419311971e-05
2.252380952380952372e+00,-7.937922762825763988e-06,4.989335642913515355e-05
2.253174603174603163e+00,-1.369054639745840925e-06,1.741678210917650224e-05
2.253968253968253954e+00,5.527961170306530019e-06,-1.415055834154429581e-05
2.254761904761904745e+00,1.265193188981478375e-05,-4.254364559597703036e-05
2.255555555555555536e+00,1.982252990135795559e-05,-6.621768619215304564e-05
2.256349206349206327e+00,2.660626078887368671e-05,-8.408613461109465826e-05
2.257142857142857117e+00,3.223378131554716010e-05,-9.525563273304737532e-05
2.257936507936507908e+00,3.566176253516986378e-05,-9.891051493341509451e-05
2.258730158730158699e+00,3.578585956406984140e-05,-9.441754527028169976e-05
2.259523809523809490e+00,3.175767182846039790e-05,-8.161472825045044401e-05
2.260317460317460281e+00,2.331378186730738048e-05,-6.115714114084335417e-05
2.261111111111111072e+00,1.100727155257494117e-05,-3.475114864573492835e-05
2.261904761904761862e+00,-3.748803565038626945e-06,-5.130513450631975228e-06
2.262698412698412653e+00,-1.886542099879301340e-05,2.428979187752173673e-05
2.263492063492063444e+00,-3.196216589423688854e-05,5.002357181603392725e-05
2.264285714285714235e+00,-4.086528236938906996e-05,6.920919420428878004e-05
2.265079365079365026e+00,-4.409594027859495903e-05,8.015990950927200283e-05
2.265873015873015817e+00,-4.122196819994643538e-05,8.259150294866047094e-05
2.266666666666666607e+00,-3.297567781540039391e-05,7.748593666381222084e-05
2.267460317460317398e+00,-2.109797654628213704e-05,6.668796955442531842e-05
2.268253968253968189e+00,-7.944024807977055443e-06,5.240280252836905376e-05
2.269047619047618980e+00,4.043440516231682272e-06,3.675150151414830591e-05
2.269841269841269771e+00,1.284908163522802372e-05,2.147842585794877869e-05
2.270634920634920562e+00,1.725754478699487830e-05,7.831902817915870342e-06
2.271428571428571352e+00,1.701002803031260684e-05,-3.419205998690449343e-06
2.272222222222222143e+00,1.274339484514798139e-05,-1.190336380940901499e-05
2.273015873015872934e+00,5.768153660154209264e-06,-1.756681240276121748e-05
2.273809523809523725e+00,-2.231142275033032855e-06,-2.062760363650584271e-05
2.274603174603174516e+00,-9.495221921510266577e-06,-2.154710807872611963e-05
2.275396825396825307e+00,-1.444199841823327959e-05,-2.098176485979561393e-05
2.276190476190476097e+00,-1.586093488082650462e-05,-1.969437206252427818e-05
2.276984126984126888e+00,-1.306020273673642282e-05,-1.843733642601404747e-05
2.277777777777777679e+00,-5.971968019067905665e-06,-1.784124144981234723e-05
2.278571428571428470e+00,4.795535701739111516e-06,-1.833883337377618998e-05
2.279365079365079261e+00,1.798038783365773724e-05,-2.013458129662054334e-05
2.280158730158730052e+00,3.178454249016587289e-05,-2.320913567786267001e-05
2.280952380952380842e+00,4.410067590714298024e-05,-2.733850947963528005e-05
2.281746031746031633e+00,5.284527824533032011e-05,-3.211252975793294905e-05
2.282539682539682424e+00,5.635829987012234987e-05,-3.695074690902572093e-05
2.283333333333333215e+00,5.377975317485238221e-05,-4.112811218028475201e-05
2.284126984126984006e+00,4.528003265513864375e-05,-4.383034746695654615e-05
2.284920634920634797e+00,3.203974597347750451e-05,-4.425628675832662918e-05
2.285714285714285587e+00,1.595871379479214865e-05,-4.177100380489672942e-05
2.286507936507936378e+00,-8.113134028526009012e-07,-3.609137068397742033e-05
2.287301587301587169e+00,-1.633672456164042325e-05,-2.746021950243801674e-05
2.288095238095237960e+00,-2.921086311863684465e-05,-1.674677870003112818e-05
2.288888888888888751e+00,-3.863033771211795580e-05,-5.412029602050342174e-06
2.289682539682539542e+00,-4.428506339595304509e-05,4.695998645012721242e-06
2.290476190476190332e+00,-4.618291328770719886e-05,1.170622438792703298e-05
2.291269841269841123e+00,-4.452766565478858925e-05,1.418479997534252374e-05
2.292063492063491914e+00,-3.970275697848081402e-05,1.158298657023282997e-05
2.292857142857142705e+00,-3.232911720237487531e-05,4.538258852043943698e-06
2.293650793650793496e+00,-2.331256034709709501e-05,-5.095794952240847772e-06
2.294444444444444287e+00,-1.379944636975836165e-05,-1.455953433570456268e-05
2.295238095238095077e+00,-5.009201496266750755e-06,-2.081205420310990609e-05
2.296031746031745868e+00,2.023054172583193559e-06,-2.134079386111254395e-05
2.296825396825396659e+00,6.716290605853757629e-06,-1.494621732916172888e-05
2.297619047619047450e+00,9.143777258618939578e-06,-2.265337879847706355e-06
2.298412698412698241e+00,1.010701855922511854e-05,1.415974760757153859e-05
2.299206349206349032e+00,1.105260382132358782e-05,3.035182267080000732e-05
2.299999999999999822e+00,1.381227293601382269e-05,4.183741328219834629e-05
2.300793650793650613e+00,2.016005382178076235e-05,4.483864823865184383e-05
2.301587301587301404e+00,3.122418699302093921e-05,3.741484464841659602e-05
2.302380952380952195e+00,4.686925141061108773e-05,2.024572409184058133e-05
2.303174603174602986e+00,6.524629610565811882e-05,-3.185235606185700752e-06
2.303968253968253777e+00,8.274804476797836101e-05,-2.712969689204719308e-05
2.304761904761904567e+00,9.455042006690191135e-05,-4.479211757401905711e-05
2.305555555555555358e+00,9.574193840791538328e-05,-4.998377026757669025e-05
2.306349206349206149e+00,8.278277866281202543e-05,-3.879549572205570021e-05
2.307142857142856940e+00,5.482437719580689222e-05,-1.080805174282610401e-05
2.307936507936507731e+00,1.439247746939964387e-05,3.053667034722160024e-05
2.308730158730158522e+00,-3.287278471111513114e-05,7.853466135538026793e-05
2.309523809523809312e+00,-7.939889566748072188e-05,1.246289511764191497e-04
2.310317460317460103e+00,-1.174368129351457593e-04,1.602385632939244372e-04
2.311111111111110894e+00,-1.408386841270324315e-04,1.785194389968299390e-04
2.311904761904761685e+00,-1.462987156405747956e-04,1.756276819501577250e-04
2.312698412698412920e+00,-1.336952103504201333e-04,1.512415885844200917e-04
2.313492063492063711e+00,-1.055106444948430711e-04,1.083399626655804639e-04
2.314285714285714501e+00,-6.566641132503291719e-05,5.243591662083224402e-05
2.315079365079365292e+00,-1.833422225842316051e-05,-9.445836692665995703e-06
2.315873015873016083e+00,3.274570017261078692e-05,-6.979876205886757280e-05
2.316666666666666874e+00,8.420319199551404429e-05,-1.215366257303952021e-04
2.317460317460317665e+00,1.324131288608654537e-04,-1.587435944347108266e-04
2.318253968253968456e+00,1.728146751872981638e-04,-1.772971487347489163e-04
2.319047619047619246e+00,1.997588618540278903e-04,-1.753702796362027261e-04
2.319841269841270037e+00,2.072529467091932987e-04,-1.537639399027048586e-04
2.320634920634920828e+00,1.905506171325764564e-04,-1.159681650217615805e-04
2.321428571428571619e+00,1.480841830729307169e-04,-6.783676264946924466e-05
2.322222222222222410e+00,8.294817697836300095e-05,-1.681282271215551652e-05
2.323015873015873201e+00,3.186136319429110712e-06,2.923830995844583239e-05
2.323809523809523991e+00,-7.946589915624090378e-05,6.338717969143021428e-05
2.324603174603174782e+00,-1.521214324896637813e-04,8.088782381189820142e-05
2.325396825396825573e+00,-2.037795398586483332e-04,8.000999562177827143e-05
2.326190476190476364e+00,-2.278414759756618548e-04,6.224719489784279408e-05
2.326984126984127155e+00,-2.232844098716434329e-04,3.184870974545490983e-05
2.327777777777777946e+00,-1.941885981001629613e-04,-5.205433300907031096e-06
2.328571428571428736e+00,-1.479324938730514560e-04,-4.252425674675321305e-05
2.329365079365079527e+00,-9.282218893806865447e-05,-7.457885286872380812e-05
2.330158730158730318e+00,-3.604239601278915540e-05,-9.760178035040121625e-05
2.330952380952381109e+00,1.740822817619537257e-05,-1.098995370400334824e-04
2.331746031746031900e+00,6.459541990382084841e-05,-1.115475327501656323e-04
2.332539682539682691e+00,1.036476645678773782e-04,-1.036333509362847541e-04
2.333333333333333481e+00,1.325285319872604526e-04,-8.736285718071702623e-05
2.334126984126984272e+00,1.482905011944009007e-04,-6.339554786905350842e-05
2.334920634920635063e+00,1.472810232622067241e-04,-3.170255110600417737e-05
2.335714285714285854e+00,1.263506263272892759e-04,7.955324026331652787e-06
2.336507936507936645e+00,8.464631321826190339e-05,5.510088781738078088e-05
2.337301587301587436e+00,2.521955273705165873e-05,1.075693202834117167e-04
2.338095238095238226e+00,-4.438805265245663635e-05,1.609697310249526042e-04
2.338888888888889017e+00,-1.130978013967384851e-04,2.089190543455593128e-04
2.339682539682539808e+00,-1.686918052737946421e-04,2.440995323058870402e-04
2.340476190476190599e+00,-2.009398558424659834e-04,2.598766312715763299e-04
2.341269841269841390e+00,-2.044003623488917308e-04,2.519895872678388940e-04
2.342063492063492181e+00,-1.799302948180306046e-04,2.197703301178617217e-04
2.342857142857142971e+00,-1.343966857543490360e-04,1.664884719009783183e-04
2.343650793650793762e+00,-7.870073920355493639e-05,9.871623859452439498e-05
2.344444444444444553e+00,-2.477021211026603242e-05,2.493764963056091849e-05
2.345238095238095344e+00,1.752604078317283011e-05,-4.614735766937175785e-05
2.346031746031746135e+00,4.261657691691686072e-05,-1.071328707584923054e-04
2.346825396825396925e+00,5.002996569719795326e-05,-1.528777022343750266e-04
2.347619047619047716e+00,4.368467346703193562e-05,-1.808174153983229987e-04
2.348412698412698507e+00,3.007615142152222375e-05,-1.907218002237456985e-04
2.349206349206349298e+00,1.605554227645882535e-05,-1.841373242857184656e-04
2.350000000000000089e+00,6.909737985762645736e-06,-1.637774568925215522e-04
2.350793650793650880e+00,5.246417894775049733e-06,-1.330536852288096762e-04
2.351587301587301670e+00,1.086501288691539158e-05,-9.581614851349514069e-05
2.352380952380952461e+00,2.146629308024077513e-05,-5.624652432464131811e-05
2.353174603174603252e+00,3.381790432439018429e-05,-1.877017045522892628e-05
2.353968253968254043e+00,4.491909286947834429e-05,1.214185441621748797e-05
2.354761904761904834e+00,5.280356069419109776e-05,3.234472310223564863e-05
2.355555555555555625e+00,5.682246173547718360e-05,3.854979773201265596e-05
2.356349206349206415e+00,5.745937886969862797e-05,2.893810213691160236e-05
2.357142857142857206e+00,5.586333809133797664e-05,3.746148508037887154e-06
2.357936507936507997e+00,5.331789705164237739e-05,-3.431639223784557129e-05
2.358730158730158788e+00,5.081862021983299139e-05,-7.997880183106577661e-05
2.359523809523809579e+00,4.885063917359060305e-05,-1.258018071411078943e-04
2.360317460317460370e+00,4.737655756400824367e-05,-1.631300016998258186e-04
2.361111111111111160e+00,4.598332942983850732e-05,-1.835458888399435062e-04
2.361904761904761951e+00,4.410617055843112853e-05,-1.805908449617063744e-04
2.362698412698412742e+00,4.124888185292163424e-05,-1.513643117015497940e-04
2.363492063492063533e+00,3.714317418267744353e-05,-9.755329696612361357e-05
2.364285714285714324e+00,3.182062610352902484e-05,-2.552750995134244627e-05
2.365079365079365115e+00,2.559886415634137866e-05,5.464425817583593514e-05
2.365873015873015905e+00,1.900242976080163782e-05,1.311038136952973206e-04
2.366666666666666696e+00,1.264705308693022839e-05,1.926066642536349851e-04
2.367460317460317487e+00,7.115987416344959481e-06,2.308175171642193226e-04
2.368253968253968278e+00,2.852436805923362469e-06,2.419013110079783907e-04
2.369047619047619069e+00,8.562959041318423485e-08,2.269990561693827026e-04
2.369841269841269860e+00,-1.199273587970166875e-06,1.915011010156964942e-04
2.370634920634920650e+00,-1.245547721744821664e-06,1.433940670521959384e-04
2.371428571428571441e+00,-4.703345198072425536e-07,9.123085516398512238e-05
2.372222222222222232e+00,6.155150458782983303e-07,4.234329578117958264e-05
2.373015873015873023e+00,1.497924324924273694e-06,1.754653595682487291e-06
2.373809523809523814e+00,1.746862445268331979e-06,-2.806545154588746939e-05
2.374603174603174605e+00,1.088579112541002146e-06,-4.677831457854097623e-05
2.375396825396825395e+00,-5.483072844165936324e-07,-5.544330746038433216e-05
2.376190476190476186e+00,-3.021353358038569636e-06,-5.582710218475699993e-05
2.376984126984126977e+00,-5.999725002542136853e-06,-4.995671542504266774e-05
2.377777777777777768e+00,-9.021356158952215093e-06,-3.992658195276878791e-05
2.378571428571428559e+00,-1.157134874351791487e-05,-2.783631004640665544e-05
2.379365079365079350e+00,-1.316903965168146636e-05,-1.570758662644110569e-05
2.380158730158730140e+00,-1.345152392946335388e-05,-5.294470813102737247e-06
2.380952380952380931e+00,-1.224287180268470598e-05,2.190492750382898060e-06
2.381746031746031722e+00,-9.599880766708453365e-06,6.325673611666190083e-06
2.382539682539682513e+00,-5.826836466135056639e-06,7.576702395659147622e-06
2.383333333333333304e+00,-1.453661025000400138e-06,7.159807905449902209e-06
2.384126984126984095e+00,2.825290116872351622e-06,6.678445331038862389e-06
2.384920634920634885e+00,6.249215332014676915e-06,7.626672251496003435e-06
2.385714285714285676e+00,8.114650786808007160e-06,1.091225404323363197e-05
2.386507936507936467e+00,7.904752742885514494e-06,1.656260310365060640e-05
2.387301587301587258e+00,5.397984331714563606e-06,2.372475625101255902e-05
2.388095238095238049e+00,7.309150206051326431e-07,3.096506171392400254e-05
2.388888888888888840e+00,-5.602763490307832391e-06,3.675300129816746407e-05
2.389682539682539630e+00,-1.282241555355225217e-05,3.993487829339168349e-05
2.390476190476190421e+00,-1.998982621765152688e-05,4.001379000727260351e-05
2.391269841269841212e+00,-2.617330033946491886e-05,3.715021991801510187e-05
2.392063492063492003e+00,-3.061298517402517426e-05,3.192586286948960141e-05
2.392857142857142794e+00,-3.285188904890457842e-05,2.500179767216367989e-05
2.393650793650793585e+00,-3.280173952025017194e-05,1.681761017262209634e-05
2.394444444444444375e+00,-3.072551680740938254e-05,7.436177245887583371e-06
2.395238095238095166e+00,-2.714037305042555324e-05,-3.423740554317702023e-06
2.396031746031745957e+00,-2.266985020607789950e-05,-1.618442814114832385e-05
2.396825396825396748e+00,-1.789046026295956055e-05,-3.110565235333281241e-05
2.397619047619047539e+00,-1.321661419732433945e-05,-4.799075164877918777e-05
2.398412698412698330e+00,-8.852477970344358569e-06,-6.601933251878417416e-05
2.399206349206349120e+00,-4.818170230525081327e-06,-8.378129674432854834e-05
2.399999999999999911e+00,-1.036940157005968466e-06,-9.950931473883490111e-05
2.400793650793650702e+00,2.547581370915773422e-06,-1.114307325031196384e-04
2.401587301587301493e+00,5.865878595609826022e-06,-1.181199779216290631e-04
2.402380952380952284e+00,8.669789048458468084e-06,-1.187432472424068165e-04
2.403174603174603075e+00,1.055805764383329106e-05,-1.131397923404910041e-04
2.403968253968253865e+00,1.107953102473335632e-05,-1.017531795370997321e-04
2.404761904761904656e+00,9.885413737056844810e-06,-8.547844291593669863e-05
2.405555555555555447e+00,6.881737669886145396e-06,-6.550009279095214741e-05
2.406349206349206238e+00,2.327041452490308341e-06,-4.316230708235890156e-05
2.407142857142857029e+00,-3.167658998156245704e-06,-1.986858549055366341e-05
2.407936507936507819e+00,-8.749199325419790383e-06,3.016509908709764258e-06
2.408730158730158610e+00,-1.351560902931007532e-05,2.429370342052014783e-05
2.409523809523809401e+00,-1.673276837145890196e-05,4.309788223024969475e-05
2.410317460317460192e+00,-1.800560313845198121e-05,5.908216282351556973e-05
2.411111111111110983e+00,-1.735319007915664291e-05,7.253044255985284451e-05
2.411904761904761774e+00,-1.517263525876634290e-05,8.427647656433101151e-05
2.412698412698412564e+00,-1.211322168766689860e-05,9.534213071478914083e-05
2.413492063492063355e+00,-8.906197543911884798e-06,1.063233083922106585e-04
2.414285714285714146e+00,-6.199921996690823436e-06,1.167099442463821307e-04
2.415079365079364937e+00,-4.436912367138734151e-06,1.244433892851506246e-04
2.415873015873015728e+00,-3.787791185583798052e-06,1.260021679593310991e-04
2.416666666666666519e+00,-4.138319870432282543e-06,1.171367779140770790e-04
2.417460317460317309e+00,-5.117025210225068576e-06,9.411515726063786422e-05
2.418253968253968100e+00,-6.153210865485726532e-06,5.512227193054546927e-05
2.419047619047618891e+00,-6.563092301886481625e-06,1.381406453594065106e-06
2.419841269841269682e+00,-5.667026205647815240e-06,-6.235662699170089226e-05
2.420634920634920473e+00,-2.936499096099537667e-06,-1.281399386176208159e-04
2.421428571428571264e+00,1.845781535007931204e-06,-1.859537392083705266e-04
2.422222222222222054e+00,8.450269645704836563e-06,-2.254980536207078104e-04
2.423015873015872845e+00,1.614166105883443582e-05,-2.382869156433081519e-04
2.423809523809523636e+00,2.374302445218331287e-05,-2.196358220775441745e-04
2.424603174603174427e+00,2.983626839441019563e-05,-1.700564709713526829e-04
2.425396825396825218e+00,3.306267487221148268e-05,-9.564411969953048745e-05
2.426190476190476009e+00,3.244606733751507447e-05,-7.239943549210091515e-06
2.426984126984126799e+00,2.764971293762269073e-05,8.155487337253302543e-05
2.427777777777777590e+00,1.909886398766494302e-05,1.571158547911361101e-04
2.428571428571428381e+00,7.940060680898003255e-06,2.086277214844888179e-04
2.429365079365079172e+00,-4.150840708706378042e-06,2.302631316613849204e-04
2.430158730158729963e+00,-1.526764063441884335e-05,2.221072874768849684e-04
2.430952380952380754e+00,-2.361501162228020874e-05,1.896079857273248270e-04
2.431746031746031544e+00,-2.782001353120155794e-05,1.417936952004094221e-04
2.432539682539682335e+00,-2.715132746320261258e-05,8.884788414531163590e-05
2.433333333333333126e+00,-2.161076193471070641e-05,3.974157132783544196e-05
2.434126984126983917e+00,-1.189819144274506791e-05,5.204643138671073815e-07
2.434920634920634708e+00,7.192926561326382429e-07,-2.640597640565303187e-05
2.435714285714285499e+00,1.459306752643912414e-05,-4.193462445350569777e-05
2.436507936507936289e+00,2.790140746294156052e-05,-4.914367311923447789e-05
2.437301587301587080e+00,3.886559029858042378e-05,-5.180395002104624518e-05
2.438095238095238315e+00,4.596996555925396378e-05,-5.299971486663259686e-05
2.438888888888889106e+00,4.817824932693877952e-05,-5.423360031590320970e-05
2.439682539682539897e+00,4.511983081272800104e-05,-5.520135174137070556e-05
2.440476190476190688e+00,3.719991287552703620e-05,-5.421159926911132395e-05
2.441269841269841478e+00,2.558327510251393557e-05,-4.905243331702827933e-05
2.442063492063492269e+00,1.202338311132311531e-05,-3.800657602863332941e-05
2.442857142857143060e+00,-1.448271636638971787e-06,-2.070465786085777944e-05
2.443650793650793851e+00,-1.291158207430895289e-05,1.428576934995991043e-06
2.444444444444444642e+00,-2.093684699555851947e-05,2.526297662824210035e-05
2.445238095238095433e+00,-2.486358567021668559e-05,4.656933881185830367e-05
2.446031746031746223e+00,-2.491029966661893928e-05,6.097975658363471134e-05
2.446825396825397014e+00,-2.207975668586524524e-05,6.503482030375798602e-05
2.447619047619047805e+00,-1.786867806158104729e-05,5.703575235366251589e-05
2.448412698412698596e+00,-1.384632482361846687e-05,3.749852123424366590e-05
2.449206349206349387e+00,-1.122034873647413742e-05,9.133919068352522455e-06
2.450000000000000178e+00,-1.053030964511069868e-05,-2.360697767332737410e-05
2.450793650793650968e+00,-1.157277104954999870e-05,-5.531181827321380136e-05
2.451587301587301759e+00,-1.357332173708166043e-05,-8.057037408546399043e-05
2.452380952380952550e+00,-1.552505290855195767e-05,-9.496822498036605912e-05
2.453174603174603341e+00,-1.656033540635638951e-05,-9.594267806004571698e-05
2.453968253968254132e+00,-1.623013543138312077e-05,-8.333061971120836475e-05
2.454761904761904923e+00,-1.461217403647836428e-05,-5.947387614596557021e-05
2.455555555555555713e+00,-1.222716053588025030e-05,-2.883222904626819643e-05
2.456349206349206504e+00,-9.797050018660287946e-06,2.835044893742300363e-06
2.457142857142857295e+00,-7.927060955368071194e-06,2.956395980032378772e-05
2.457936507936508086e+00,-6.825123614970374914e-06,4.635197226809355394e-05
2.458730158730158877e+00,-6.172128817419023371e-06,5.017997974597542487e-05
2.459523809523809668e+00,-5.212690190018592658e-06,4.068844115855059550e-05
2.460317460317460458e+00,-3.056253516684043701e-06,2.034953831170568803e-05
2.461111111111111249e+00,9.101159844176115322e-07,-5.935364179194638573e-06
2.461904761904762040e+00,6.655203960315295523e-06,-3.176221388399933648e-05
2.462698412698412831e+00,1.334086417132428676e-05,-5.050333945528671584e-05
2.463492063492063622e+00,1.945337472610247825e-05,-5.668599642431175093e-05
2.464285714285714413e+00,2.320926733373628154e-05,-4.719714657255426695e-05
2.465079365079365203e+00,2.310966434227552249e-05,-2.207911925033599873e-05
2.465873015873015994e+00,1.846029554798279469e-05,1.525070754883417860e-05
2.466666666666666785e+00,9.685654205692258083e-06,5.844706013578610562e-05
2.467460317460317576e+00,-1.667543813094188505e-06,9.934532061181825435e-05
2.468253968253968367e+00,-1.324815488848013671e-05,1.295778213249576126e-04
2.469047619047619158e+00,-2.245693331500774010e-05,1.423613781373071936e-04
2.469841269841269948e+00,-2.709155347603325298e-05,1.340027028087242042e-04
2.470634920634920739e+00,-2.590749316811350529e-05,1.047254164720186261e-04
2.471428571428571530e+00,-1.894770120388661151e-05,5.864606877907652382e-05
2.472222222222222321e+00,-7.558263311639076742e-06,2.981760308418160253e-06
2.473015873015873112e+00,5.910374065327289752e-06,-5.327603438059737772e-05
2.473809523809523903e+00,1.863976224536094528e-05,-1.009577931065478731e-04
2.474603174603174693e+00,2.798639845513023496e-05,-1.323384735292026308e-04
2.475396825396825484e+00,3.207834076293079883e-05,-1.425428436565638038e-04
2.476190476190476275e+00,3.022416560453343719e-05,-1.304734225790599698e-04
2.476984126984127066e+00,2.303570899324792597e-05,-9.902635278368882813e-05
2.477777777777777857e+00,1.223517904406591354e-05,-5.448540468380309426e-05
2.478571428571428648e+00,2.013651792137519582e-07,-5.199426434312539593e-06
2.479365079365079438e+00,-1.061439627626096154e-05,4.013540512468545448e-05
2.480158730158730229e+00,-1.823485254119594604e-05,7.415974576186893155e-05
2.480952380952381020e+00,-2.152089319822001105e-05,9.211956412944722022e-05
2.481746031746031811e+00,-2.028210050508995468e-05,9.249349717543481092e-05
2.482539682539682602e+00,-1.515358569873597471e-05,7.693627421245381975e-05
2.483333333333333393e+00,-7.325012300558589750e-06,4.964285987858777719e-05
2.484126984126984183e+00,1.772872673939324255e-06,1.633047539408396306e-05
2.484920634920634974e+00,1.074049994638108810e-05,-1.692519156861861874e-05
2.485714285714285765e+00,1.839713797060966541e-05,-4.477325227541281271e-05
2.486507936507936556e+00,2.387788817922583350e-05,-6.341393422593265467e-05
2.487301587301587347e+00,2.665760278417413334e-05,-7.106174438626661888e-05
2.488095238095238138e+00,2.652951156397546218e-05,-6.800981922899954426e-05
2.488888888888888928e+00,2.356780287194496927e-05,-5.632381547930927218e-05
2.489682539682539719e+00,1.809873378564089402e-05,-3.925368097583974174e-05
2.490476190476190510e+00,1.069338074699143450e-05,-2.050311282306906694e-05
2.491269841269841301e+00,2.177066115380932198e-06,-3.521136335268671899e-06
2.492063492063492092e+00,-6.369463214494131420e-06,9.040604761951711934e-06
2.492857142857142883e+00,-1.365514401864090932e-05,1.562578660348325026e-05
2.493650793650793673e+00,-1.830473700376972248e-05,1.582818101284739259e-05
2.494444444444444464e+00,-1.907560732275194676e-05,1.026530888001084014e-05
2.495238095238095255e+00,-1.513338163013496992e-05,3.522070223579508285e-07
2.496031746031746046e+00,-6.315501519424908186e-06,-1.196042742725343262e-05
2.496825396825396837e+00,6.703550567371607339e-06,-2.445133969708983748e-05
2.497619047619047628e+00,2.241058454614367103e-05,-3.489152325863873133e-05
2.498412698412698418e+00,3.862928351586340699e-05,-4.131034150123532645e-05
2.499206349206349209e+00,5.282981753389808725e-05,-4.226308945791804782e-05
2.500000000000000000e+00,6.249930580581740836e-05,-3.707569115586306473e-05
2.500793650793650791e+00,6.551101998701486782e-05,-2.601679815617303715e-05
2.501587301587301582e+00,6.046336986870672097e-05,-1.033598261640156589e-05
2.502380952380952372e+00,4.697671922196473208e-05,7.879554302116746075e-06
2.503174603174603163e+00,2.591287052533557182e-05,2.604027755397488129e-05
2.503968253968253954e+00,-5.643405155144180891e-07,4.154257097395746889e-05
2.504761904761904745e+00,-2.918659409839559888e-05,5.231810018584792221e-05
2.505555555555555536e+00,-5.608198072254922588e-05,5.730648999301174467e-05
2.506349206349206327e+00,-7.750857931813387349e-05,5.669798928987333791e-05
2.507142857142857117e+00,-9.063463154455815877e-05,5.183816951848799269e-05
2.507936507936507908e+00,-9.413339657720526702e-05,4.479691857754843309e-05
2.508730158730158699e+00,-8.841261246207654469e-05,3.773487887983598881e-05
2.509523809523809490e+00,-7.542075101072579586e-05,3.228344163081851967e-05
2.510317460317460281e+00,-5.810511373672917534e-05,2.914477602559319559e-05
2.511111111111111072e+00,-3.968638123573549803e-05,2.802352915179605919e-05
2.511904761904761862e+00,-2.293962188680731442e-05,2.787194971753929629e-05
2.512698412698412653e+00,-9.644794217360942821e-06,2.732550384443719723e-05
2.513492063492063444e+00,-3.147944294236034541e-07,2.516425988581479133e-05
2.514285714285714235e+00,5.754874355759400602e-06,2.065882698526473702e-05
2.515079365079365026e+00,1.013437507385922049e-05,1.372505482504689007e-05
2.515873015873015817e+00,1.468496948704290727e-05,4.886422921336150059e-06
2.516666666666666607e+00,2.089296744553928055e-05,-4.901488717234806893e-06
2.517460317460317398e+00,2.928043127190853653e-05,-1.448824518092624877e-05
2.518253968253968189e+00,3.906935379638763484e-05,-2.275999023882765298e-05
2.519047619047618980e+00,4.823954758537173023e-05,-2.882220077393343464e-05
2.519841269841269771e+00,5.402546121250022379e-05,-3.211597207775128085e-05
2.520634920634920562e+00,5.375069095209711106e-05,-3.246699289714982418e-05
2.521428571428571352e+00,4.575022770790266452e-05,-3.007579648456653931e-05
2.522222222222222143e+00,3.005967994150489213e-05,-2.546380786774881259e-05
2.523015873015872934e+00,8.613005381751770000e-06,-1.939258852570915063e-05
2.523809523809523725e+00,-1.513355525432748066e-05,-1.277094389557303015e-05
2.524603174603174516e+00,-3.702684046246110922e-05,-6.556385141388647321e-06
2.525396825396825307e+00,-5.322159853146765825e-05,-1.649027949060688496e-06
2.526190476190476097e+00,-6.106220849619268805e-05,1.225802453111523411e-06
2.526984126984126888e+00,-5.961218812362006637e-05,1.641618832957970338e-06
2.527777777777777679e+00,-4.973495549392090446e-05,-4.193053327240139797e-07
2.528571428571428470e+00,-3.376440440464657425e-05,-4.505975909136093944e-06
2.529365079365079261e+00,-1.489995455018556898e-05,-9.726545953406005025e-06
2.530158730158730052e+00,3.499199307616287640e-06,-1.488404878329650109e-05
2.530952380952380842e+00,1.855670185461470609e-05,-1.870721691631378438e-05
2.531746031746031633e+00,2.833854100350801267e-05,-2.012951542723820630e-05
2.532539682539682424e+00,3.206806495226389607e-05,-1.854804385001009891e-05
2.533333333333333215e+00,3.009427960834076024e-05,-1.399263955030938490e-05
2.534126984126984006e+00,2.365969240409414496e-05,-7.153918446683713580e-06
2.534920634920634797e+00,1.454354902112320731e-05,7.484269685880116470e-07
2.535714285714285587e+00,4.665244151842416188e-06,8.235576363180543689e-06
2.536507936507936378e+00,-4.274598449845513688e-06,1.391592271098051818e-05
2.537301587301587169e+00,-1.105620974870796233e-05,1.681683061185419530e-05
2.538095238095237960e+00,-1.507229463101538487e-05,1.660743105832126204e-05
2.538888888888888751e+00,-1.632351323868590825e-05,1.364836567273622372e-05
2.539682539682539542e+00,-1.529717951374944242e-05,8.859765340122416081e-06
2.540476190476190332e+00,-1.276788401573286255e-05,3.456291655473338696e-06
2.541269841269841123e+00,-9.571461104601062316e-06,-1.365038997005819924e-06
2.542063492063491914e+00,-6.406742559043727983e-06,-4.693047230046722566e-06
2.542857142857142705e+00,-3.708793186501110220e-06,-6.058649992733363643e-06
2.543650793650793496e+00,-1.613924900515686181e-06,-5.451419805306432560e-06
2.544444444444444287e+00,-9.011488540844897147e-09,-3.211120032824104064e-06
2.545238095238095077e+00,1.364650447179722353e-06,1.559706508700393565e-07
2.546031746031745868e+00,2.793406713057840398e-06,4.161786120816644958e-06
2.546825396825396659e+00,4.497043470746772861e-06,8.442595800266685226e-06
2.547619047619047450e+00,6.581612481619068083e-06,1.273567775059481180e-05
2.548412698412698241e+00,9.041395574877189638e-06,1.674089571603768980e-05
2.549206349206349032e+00,1.179226929430242671e-05,1.995338619273766080e-05
2.549999999999999822e+00,1.470825896760490030e-05,2.158737684758653787e-05
2.550793650793650613e+00,1.763680538266539319e-05,2.068290465612143377e-05
2.551587301587301404e+00,2.038520160129607048e-05,1.640763659449933081e-05
2.552380952380952195e+00,2.269330663635003043e-05,8.468121811640046787e-06
2.553174603174602986e+00,2.422435875656490193e-05,-2.531903786844560699e-06
2.553968253968253777e+00,2.460545409479324028e-05,-1.496726004564512364e-05
2.554761904761904567e+00,2.352789212185365863e-05,-2.642072896227894824e-05
2.555555555555555358e+00,2.088289004240860750e-05,-3.425447128291395386e-05
2.556349206349206149e+00,1.687798597366208824e-05,-3.636163275506899638e-05
2.557142857142856940e+00,1.207189546374744701e-05,-3.183871556503101857e-05
2.557936507936507731e+00,7.288227182135840027e-06,-2.132628143570265274e-05
2.558730158730158522e+00,3.413721079326096191e-06,-6.879308968750022964e-06
2.559523809523809312e+00,1.134943048720535792e-06,8.598565179302944863e-06
2.560317460317460103e+00,6.971468725557898281e-07,2.216208019969141332e-05
2.561111111111110894e+00,1.769318584332868929e-06,3.159226462351684341e-05
2.561904761904761685e+00,3.473612604078460725e-06,3.586588846577729749e-05
2.562698412698412920e+00,4.594822080508467189e-06,3.518673497605953750e-05
2.563492063492063711e+00,3.933822318142379668e-06,3.061177289972109416e-05
2.564285714285714501e+00,7.172167064110099543e-07,2.346245959102892013e-05
2.565079365079365292e+00,-5.060002427682791839e-06,1.478788002334115646e-05
2.565873015873016083e+00,-1.248243730122504883e-05,5.110941139284623294e-06
2.566666666666666874e+00,-1.983398529209727811e-05,-5.441779005474997553e-06
2.567460317460317665e+00,-2.499441845607213244e-05,-1.669759182537103803e-05
2.568253968253968456e+00,-2.603115074860552560e-05,-2.790204444956259297e-05
2.569047619047619246e+00,-2.183094770108158429e-05,-3.738012320289982500e-05
2.569841269841270037e+00,-1.257671184331261708e-05,-4.263953173666546435e-05
2.570634920634920828e+00,1.123666687961868462e-07,-4.099352116008029987e-05
2.571428571428571619e+00,1.347766135418337410e-05,-3.054244620027820955e-05
2.572222222222222410e+00,2.431075066109020550e-05,-1.115498019966968012e-05
2.573015873015873201e+00,2.983102362421194084e-05,1.496171913347391503e-05
2.573809523809523991e+00,2.845137882785234680e-05,4.338814272116785648e-05
2.574603174603174782e+00,2.016658090281836738e-05,6.835538234932631832e-05
2.575396825396825573e+00,6.454886390067361770e-06,8.412334113048340644e-05
2.576190476190476364e+00,-1.021865027733626195e-05,8.646858003171769701e-05
2.576984126984127155e+00,-2.706709671486673001e-05,7.382949838262772976e-05
2.577777777777777946e+00,-4.155665064041036400e-05,4.775886650555492960e-05
2.578571428571428736e+00,-5.171531760114190087e-05,1.254788397732188900e-05
2.579365079365079527e+00,-5.614276858855315880e-05,-2.586229804614143123e-05
2.580158730158730318e+00,-5.383262604823641352e-05,-6.135995878298633357e-05
2.580952380952381109e+00,-4.400330875847274006e-05,-8.911239782816065603e-05
2.581746031746031900e+00,-2.612060583053737932e-05,-1.065922526923557945e-04
2.582539682539682691e+00,-1.871343064532077693e-07,-1.139219127012494669e-04
2.583333333333333481e+00,3.277814485095379923e-05,-1.134756556821880084e-04
2.584126984126984272e+00,7.027260662555475507e-05,-1.088852890166166137e-04
2.584920634920635063e+00,1.081065798139567327e-04,-1.037550073580702334e-04
2.585714285714285854e+00,1.406742435721835562e-04,-1.004620947455610211e-04
2.586507936507936645e+00,1.617820965280949964e-04,-9.938133063543370743e-05
2.587301587301587436e+00,1.659256463933161594e-04,-9.873536169229496604e-05
2.588095238095238226e+00,1.497015989131498094e-04,-9.508658378981744931e-05
2.588888888888889017e+00,1.129221607855470272e-04,-8.430838714023538986e-05
2.589682539682539808e+00,5.903760273244350868e-05,-6.275784647652622467e-05
2.590476190476190599e+00,-5.330573933882073469e-06,-2.834824098596395211e-05
2.591269841269841390e+00,-7.166928917586903576e-05,1.871690018564119254e-05
2.592063492063492181e+00,-1.313333911099933749e-04,7.567575025551244330e-05
2.592857142857142971e+00,-1.772946364267181159e-04,1.374249537098694914e-04
2.593650793650793762e+00,-2.053898942174405408e-04,1.971642823344120596e-04
2.594444444444444553e+00,-2.147455387550886285e-04,2.473709621420508843e-04
2.595238095238095344e+00,-2.073285978923076621e-04,2.809764570241693785e-04
2.596031746031746135e+00,-1.868513545600679413e-04,2.925757304906547243e-04
2.596825396825396925e+00,-1.574402022144865939e-04,2.794444992840047141e-04
2.597619047619047716e+00,-1.225186454341905856e-04,2.421201209149637709e-04
2.598412698412698507e+00,-8.424491407944051846e-05,1.843738364934325636e-04
2.599206349206349298e+00,-4.363031374353123712e-05,1.125689279919438244e-04
2.600000000000000089e+00,-1.219508927707352997e-06,3.458389315575574569e-05
2.600793650793650880e+00,4.198700104729672641e-05,-4.141923117605703433e-05
2.601587301587301670e+00,8.378933998958868130e-05,-1.081242645593755429e-04
2.602380952380952461e+00,1.206054997257424233e-04,-1.599306881102551588e-04
2.603174603174603252e+00,1.480312709959247220e-04,-1.935018892781328512e-04
2.603968253968254043e+00,1.620080313407068018e-04,-2.079769466141626142e-04
2.604761904761904834e+00,1.601637859359268581e-04,-2.048421845105276534e-04
2.605555555555555625e+00,1.427724470261832628e-04,-1.874691269584723575e-04
2.606349206349206415e+00,1.129116687238557670e-04,-1.603601434303445492e-04
2.607142857142857206e+00,7.572650354161067007e-05,-1.282078573209841706e-04
2.607936507936507997e+00,3.707000352620602919e-05,-9.495536821764439216e-05
2.608730158730158788e+00,2.034074527511811359e-06,-6.310426786755929450e-05
2.609523809523809579e+00,-2.609828850879763218e-05,-3.350198620002930430e-05
2.610317460317460370e+00,-4.616286281545837198e-05,-5.710884277690912347e-06
2.611111111111111160e+00,-5.870912977665326702e-05,2.115723398525880879e-05
2.611904761904761951e+00,-6.518845385475469524e-05,4.746826180797644864e-05
2.612698412698412742e+00,-6.713823324698461317e-05,7.236646851186208276e-05
2.613492063492063533e+00,-6.566125770088692272e-05,9.366113186032988893e-05
2.614285714285714324e+00,-6.129699684789157626e-05,1.083673567426200513e-04
2.615079365079365115e+00,-5.420051279199016801e-05,1.136922247628833896e-04
2.615873015873015905e+00,-4.445965827538302415e-05,1.080710555512396905e-04
2.616666666666666696e+00,-3.239280777122827414e-05,9.183988882121934226e-05
2.617460317460317487e+00,-1.872417005595049773e-05,6.727959371229343046e-05
2.618253968253968278e+00,-4.585130522713520985e-06,3.801701945317289693e-05
2.619047619047619069e+00,8.663921116586974469e-06,8.017166290327420994e-06
2.619841269841269860e+00,1.974131546686013673e-05,-1.945207494949116576e-05
2.620634920634920650e+00,2.777685010274539960e-05,-4.251211146714526968e-05
2.621428571428571441e+00,3.254356084796593897e-05,-6.080936628742363703e-05
2.622222222222222232e+00,3.449363999990221239e-05,-7.510865307524646948e-05
2.623015873015873023e+00,3.457571416958957563e-05,-8.655819352495236377e-05
2.623809523809523814e+00,3.389145151393742876e-05,-9.593751730283209419e-05
2.624603174603174605e+00,3.330648477445012471e-05,-1.031697313630462840e-04
2.625396825396825395e+00,3.314527956597163868e-05,-1.072507819615627127e-04
2.626190476190476186e+00,3.307143515914710846e-05,-1.065813522380719365e-04
2.626984126984126977e+00,3.219809025494576194e-05,-9.954808999113988206e-05
2.627777777777777768e+00,2.940557379033821787e-05,-8.513532264097828275e-05
2.628571428571428559e+00,2.377851276602756351e-05,-6.336593574508283351e-05
2.629365079365079350e+00,1.502520657001261873e-05,-3.544870905094673756e-05
2.630158730158730140e+00,3.728745139099076520e-06,-3.613945841554081506e-06
2.630952380952380931e+00,-8.678284957932628962e-06,2.928317581319757858e-05
2.631746031746031722e+00,-2.022936507422402069e-05,6.024851381084662889e-05
2.632539682539682513e+00,-2.893385918252215137e-05,8.657309753391119044e-05
2.633333333333333304e+00,-3.331003311181707840e-05,1.060993319360371980e-04
2.634126984126984095e+00,-3.276464778594933219e-05,1.173287454601237639e-04
2.634920634920634885e+00,-2.770723473698154880e-05,1.194545708993608650e-04
2.635714285714285676e+00,-1.939020269422220819e-05,1.124194621126577056e-04
2.636507936507936467e+00,-9.558271719329479763e-06,9.703345254828667709e-05
2.637301587301587258e+00,-3.367898044209843122e-08,7.508361666896284144e-05
2.638095238095238049e+00,7.648855082440677417e-06,4.930116937564501416e-05
2.638888888888888840e+00,1.248788088838146682e-05,2.307646386532812081e-05
2.639682539682539630e+00,1.411940293351326747e-05,-8.329054521962332656e-08
2.640476190476190421e+00,1.279049507240605541e-05,-1.723675190743251197e-05
2.641269841269841212e+00,9.230767598671763387e-06,-2.663865565298614548e-05
2.642063492063492003e+00,4.457405996709937306e-06,-2.812216703229393030e-05
2.642857142857142794e+00,-4.475261229427945739e-07,-2.310221580459020474e-05
2.643650793650793585e+00,-4.548283757783634633e-06,-1.417498500810533919e-05
2.644444444444444375e+00,-7.218930155795511159e-06,-4.406765584431133399e-06
2.645238095238095166e+00,-8.230756751049368003e-06,3.495704099501340155e-06
2.646031746031745957e+00,-7.748078015199280554e-06,7.890092024966562778e-06
2.646825396825396748e+00,-6.234359757696722293e-06,8.556472356063506545e-06
2.647619047619047539e+00,-4.291496598928443886e-06,6.589390176693390391e-06
2.648412698412698330e+00,-2.474477945994619673e-06,3.863961624683151871e-06
2.649206349206349120e+00,-1.133653508316088724e-06,2.269499292852244330e-06
2.649999999999999911e+00,-3.305511106464287663e-07,2.983629488270446117e-06
2.650793650793650702e+00,1.493552708547930956e-07,6.030256577611276598e-06
2.651587301587301493e+00,6.943470147677737863e-07,1.024612578310330845e-05
2.652380952380952284e+00,1.709618846289071673e-06,1.363481711449901540e-05
2.653174603174603075e+00,3.456522156853601446e-06,1.397790234853310991e-05
2.653968253968253865e+00,5.938668738033142163e-06,9.530614116616258638e-06
2.654761904761904656e+00,8.870681337015594723e-06,-3.603212165960528005e-07
2.655555555555555447e+00,1.173933236897904990e-05,-1.485079312997564318e-05
2.656349206349206238e+00,1.393829838317220750e-05,-3.151264063688501821e-05
2.657142857142857029e+00,1.493728820900846187e-05,-4.663628875856098597e-05
2.657936507936507819e+00,1.443961007563026791e-05,-5.592027083056464658e-05
2.658730158730158610e+00,1.248683364525078062e-05,-5.543463183902514954e-05
2.659523809523809401e+00,9.479963438601159199e-06,-4.263670063333198064e-05
2.660317460317460192e+00,6.103043009131547080e-06,-1.717268214631602393e-05
2.661111111111110983e+00,3.159686078458438060e-06,1.875381451456763134e-05
2.661904761904761774e+00,1.362266499440440391e-06,6.055348019833270445e-05
2.662698412698412564e+00,1.134939846696824407e-06,1.019469159272702699e-04
2.663492063492063355e+00,2.491227857740172656e-06,1.360619571019924790e-04
2.664285714285714146e+00,5.021461005395810886e-06,1.567258620555984829e-04
2.665079365079364937e+00,7.988074709045538466e-06,1.596872202132356853e-04
2.665873015873015728e+00,1.049703240157875278e-05,1.434900886256374516e-04
2.666666666666666519e+00,1.170167645243053567e-05,1.097776341534521111e-04
2.667460317460317309e+00,1.099758094313160305e-05,6.292785307004064869e-05
2.668253968253968100e+00,8.174412245940836219e-06,9.095207847045754131e-06
2.669047619047618891e+00,3.497182279195169031e-06,-4.510004268026877541e-05
2.669841269841269682e+00,-2.305700216645306276e-06,-9.388611368338884941e-05
2.670634920634920473e+00,-8.160929611662734697e-06,-1.333067460599610978e-04
2.671428571428571264e+00,-1.286819302838187930e-05,-1.616054038989479195e-04
2.672222222222222054e+00,-1.537959603850005979e-05,-1.789924587444602486e-04
2.673015873015872845e+00,-1.507517376829555332e-05,-1.869710462253715896e-04
2.673809523809523636e+00,-1.196021827074203713e-05,-1.875192243945992068e-04
2.674603174603174427e+00,-6.725565961280276543e-06,-1.824080850986086941e-04
2.675396825396825218e+00,-6.454149401973329283e-07,-1.728105854489207273e-04
2.676190476190476009e+00,4.672693889037218972e-06,-1.592120402912098958e-04
2.676984126984126799e+00,7.635446508595963410e-06,-1.415438110481763694e-04
2.677777777777777590e+00,7.034604419291130725e-06,-1.194448025229084826e-04
2.678571428571428381e+00,2.357006080085108681e-06,-9.258244122117842423e-05
2.679365079365079172e+00,-6.044661665417157032e-06,-6.099160910328679634e-05
2.680158730158729963e+00,-1.697369710727659903e-05,-2.538670836307359565e-05
2.680952380952380754e+00,-2.861193725407673553e-05,1.262528393677420868e-05
2.681746031746031544e+00,-3.889506753629985524e-05,5.051753820655320175e-05
2.682539682539682335e+00,-4.594503390106777257e-05,8.506110169141684757e-05
2.683333333333333126e+00,-4.844471582374067442e-05,1.127835244473604384e-04
2.684126984126983917e+00,-4.586058376582537052e-05,1.305929839257348457e-04
2.684920634920634708e+00,-3.847406696571294100e-05,1.364355788450459690e-04
2.685714285714285499e+00,-2.724813600657394742e-05,1.298229386858569133e-04
2.686507936507936289e+00,-1.360101939710164379e-05,1.120735983032602432e-04
2.687301587301587080e+00,8.350700670391512433e-07,8.616624837120077766e-05
2.688095238095238315e+00,1.442097025604731205e-05,5.620740519532534390e-05
2.688888888888889106e+00,2.567404315395363152e-05,2.664238536490219674e-05
2.689682539682539897e+00,3.340438308546412856e-05,1.429242345875208428e-06
2.690476190476190688e+00,3.683871562619990222e-05,-1.660172104051233031e-05
2.691269841269841478e+00,3.572496554185334460e-05,-2.606842130459457936e-05
2.692063492063492269e+00,3.038754136211104933e-05,-2.702820903680630676e-05
2.692857142857143060e+00,2.169862377454997862e-05,-2.072215218563051785e-05
2.693650793650793851e+00,1.094983838567758271e-05,-9.180902704760449362e-06
2.694444444444444642e+00,-3.588276608156544789e-07,5.214998972040840668e-06
2.695238095238095433e+00,-1.076752868008462843e-05,2.014412416914843900e-05
2.696031746031746223e+00,-1.908481154156887246e-05,3.365209634131729793e-05
2.696825396825397014e+00,-2.454452234456057060e-05,4.430471213143871267e-05
2.697619047619047805e+00,-2.686221946565814530e-05,5.117835943582735108e-05
2.698412698412698596e+00,-2.619160870841798442e-05,5.374248083229452770e-05
2.699206349206349387e+00,-2.300822230645582021e-05,5.173300551872675928e-05
2.700000000000000178e+00,-1.796202100283122042e-05,4.511233952204763380e-05
2.700793650793650968e+00,-1.174024095882810047e-05,3.415789764300346476e-05
2.701587301587301759e+00,-4.970444911183844959e-06,1.964120001937266427e-05
2.702380952380952550e+00,1.823448339189752635e-06,2.990775343477889046e-06
2.703174603174603341e+00,8.218264141602630053e-06,-1.369085025029765778e-05
2.703968253968254132e+00,1.386359498521204331e-05,-2.784515730533108934e-05
2.704761904761904923e+00,1.845679479834730555e-05,-3.690549122501241491e-05
2.705555555555555713e+00,2.174206817385888825e-05,-3.886453781939860056e-05
2.706349206349206504e+00,2.353753120182087779e-05,-3.279246673795259507e-05
2.707142857142857295e+00,2.377516812774367960e-05,-1.915188081906196168e-05
2.707936507936508086e+00,2.252769695389940813e-05,1.813476190442340305e-07
2.708730158730158877e+00,2.000031750315546213e-05,2.221344795848691637e-05
2.709523809523809668e+00,1.648416100586864454e-05,4.340130339957549619e-05
2.710317460317460458e+00,1.229178865201628306e-05,6.037806816216615481e-05
2.711111111111111249e+00,7.707472841488886617e-06,7.065200033476260009e-05
2.711904761904762040e+00,2.977599068297027444e-06,7.307708047410225430e-05
2.712698412698412831e+00,-1.655544450124786121e-06,6.795874031581612576e-05
2.713492063492063622e+00,-5.897669437087388679e-06,5.678607799143012193e-05
2.714285714285714413e+00,-9.360463285930982496e-06,4.171208714626665332e-05
2.715079365079365203e+00,-1.156884752495486121e-05,2.497453476617598087e-05
2.715873015873015994e+00,-1.203362821720043642e-05,8.436711269335792822e-06
2.716666666666666785e+00,-1.037606975603309997e-05,-6.651824465651169826e-06
2.717460317460317576e+00,-6.465368834403339503e-06,-1.967160001107847250e-05
2.718253968253968367e+00,-5.214590739634814332e-07,-3.049201392658768198e-05
2.719047619047619158e+00,6.853236530680786679e-06,-3.925780273448117527e-05
2.719841269841269948e+00,1.472685817539269293e-05,-4.617412188155507578e-05
2.720634920634920739e+00,2.196722089716544610e-05,-5.133837837874407668e-05
2.721428571428571530e+00,2.742254981285235346e-05,-5.464853931746201636e-05
2.722222222222222321e+00,3.012080991146909081e-05,-5.580255888406953583e-05
2.723015873015873112e+00,2.945101685089658320e-05,-5.438911874373500248e-05
2.723809523809523903e+00,2.529048434635995185e-05,-5.005318655545359723e-05
2.724603174603174693e+00,1.804779246872639133e-05,-4.269600782987387406e-05
2.725396825396825484e+00,8.604752618271140370e-06,-3.264246081323623968e-05
2.726190476190476275e+00,-1.836845960945837008e-06,-2.070123361420172118e-05
2.726984126984127066e+00,-1.197058283758875111e-05,-8.076024858264350953e-06
2.727777777777777857e+00,-2.060874777941421894e-05,3.849859193090698457e-06
2.728571428571428648e+00,-2.685665692920126161e-05,1.377691232798850408e-05
2.729365079365079438e+00,-3.019926827324129540e-05,2.071091723890238512e-05
2.730158730158730229e+00,-3.049401022157212363e-05,2.408815647377408309e-05
2.730952380952381020e+00,-2.789777166968871697e-05,2.380108269288138285e-05
2.731746031746031811e+00,-2.277702461519029678e-05,2.015459308246014071e-05
2.732539682539682602e+00,-1.564729071173078865e-05,1.378914156977487099e-05
2.733333333333333393e+00,-7.162412868719155442e-06,5.595748072533114441e-06
2.734126984126984183e+00,1.861148121724928515e-06,-3.368735573772299028e-06
2.734920634920634974e+00,1.042758463030142541e-05,-1.197284264174572860e-05
2.735714285714285765e+00,1.740398443289469465e-05,-1.912132431352655358e-05
2.736507936507936556e+00,2.165817018002053572e-05,-2.389081460413847724e-05
2.737301587301587347e+00,2.229236353697437766e-05,-2.567658331924230404e-05
2.738095238095238138e+00,1.892408720195715597e-05,-2.431768442893971272e-05
2.738888888888888928e+00,1.192146657529421658e-05,-2.015831963039108277e-05
2.739682539682539719e+00,2.483107312196301839e-06,-1.400765831843143998e-05
2.740476190476190510e+00,-7.517999102104325851e-06,-6.982639983256915840e-06
2.741269841269841301e+00,-1.593096201560091692e-05,-2.600694721544749496e-07
2.742063492063492092e+00,-2.087026297921201697e-05,5.187274689896798949e-06
2.742857142857142883e+00,-2.123546405110851630e-05,8.771703523406002782e-06
2.743650793650793673e+00,-1.702422482733914432e-05,1.031754223375308269e-05
2.744444444444444464e+00,-9.322910324391571365e-06,9.935207278992632521e-06
2.745238095238095255e+00,2.115243287685324027e-08,7.819125298671993901e-06
2.746031746031746046e+00,8.927846875340678546e-06,4.079511047586475044e-06
2.746825396825396837e+00,1.563669697107446929e-05,-1.304811189178275892e-06
2.747619047619047628e+00,1.911801201137536287e-05,-8.385493878301148628e-06
2.748412698412698418e+00,1.923791078835276956e-05,-1.703530974829074954e-05
2.749206349206349209e+00,1.665425357071790010e-05,-2.671859191363695445e-05
2.750000000000000000e+00,1.249984798193765069e-05,-3.634652813401185236e-05
2.750793650793650791e+00,7.968682127943709585e-06,-4.430414787233503108e-05
2.751587301587301582e+00,3.945124449492097976e-06,-4.868835905816878225e-05
2.752380952380952372e+00,7.945508498022729606e-07,-4.773075150715670788e-05
2.753174603174603163e+00,-1.629086862968048105e-06,-4.030897729610367051e-05
2.753968253968253954e+00,-3.783999141584370422e-06,-2.639667674341238652e-05
2.754761904761904745e+00,-6.141006269579110419e-06,-7.292103322063048060e-06
2.755555555555555536e+00,-8.903497100238421598e-06,1.448076322934737143e-05
2.756349206349206327e+00,-1.185172612867462646e-05,3.560224290425082004e-05
2.757142857142857117e+00,-1.436664835318431117e-05,5.261850178654827657e-05
2.757936507936507908e+00,-1.562307225324618802e-05,6.267472936682991593e-05
2.758730158730158699e+00,-1.488479279643911702e-05,6.414889795813488792e-05
2.759523809523809490e+00,-1.180403348986392005e-05,5.703611005679033529e-05
2.760317460317460281e+00,-6.628228070167770851e-06,4.298009435846581605e-05
2.761111111111111072e+00,-2.428850889642636793e-07,2.492530848451861614e-05
2.761904761904761862e+00,5.977561863910292326e-06,6.462440123085985828e-06
2.762698412698412653e+00,1.048617200993673466e-05,-8.968829857780208606e-06
2.763492063492063444e+00,1.197061861379108459e-05,-1.881021604897901476e-05
2.764285714285714235e+00,9.737397481957148722e-06,-2.185883939237334036e-05
2.765079365079365026e+00,3.951997549328219259e-06,-1.837553155860972650e-05
2.765873015873015817e+00,-4.353619883312303102e-06,-9.831651319040579174e-06
2.766666666666666607e+00,-1.352543653128089707e-05,1.593597399189585737e-06
2.767460317460317398e+00,-2.171719050044035554e-05,1.359070891868991735e-05
2.768253968253968189e+00,-2.736928662027735248e-05,2.420120900502368389e-05
2.769047619047618980e+00,-2.957806798987887420e-05,3.209233862719231695e-05
2.769841269841269771e+00,-2.823861697202071025e-05,3.660155483056917416e-05
2.770634920634920562e+00,-2.393817598802371811e-05,3.760674521277929442e-05
2.771428571428571352e+00,-1.767791667279299065e-05,3.532416262021150248e-05
2.772222222222222143e+00,-1.055417569025775319e-05,3.013554410198492179e-05
2.773015873015872934e+00,-3.513620994822040226e-06,2.250386877217279432e-05
2.773809523809523725e+00,2.766346784024757475e-06,1.297834671640207591e-05
2.774603174603174516e+00,7.885199335636303150e-06,2.244714146466917746e-06
2.775396825396825307e+00,1.166290125906480584e-05,-8.835308591779231625e-06
2.776190476190476097e+00,1.406891781549190001e-05,-1.923622123772183429e-05
2.776984126984126888e+00,1.516731827330586205e-05,-2.784841547975708311e-05
2.777777777777777679e+00,1.508533851863294746e-05,-3.361969965808159764e-05
2.778571428571428470e+00,1.399574495370091342e-05,-3.573649544184639412e-05
2.779365079365079261e+00,1.209849969989329211e-05,-3.380690651752705405e-05
2.780158730158730052e+00,9.594737116953970196e-06,-2.799497734676265008e-05
2.780952380952380842e+00,6.660383494239420907e-06,-1.905536314295668395e-05
2.781746031746031633e+00,3.437677809753216003e-06,-8.239555364690365875e-06
2.782539682539682424e+00,6.006206185837522963e-08,2.914153122023164632e-06
2.783333333333333215e+00,-3.292083883152168072e-06,1.285123046940313027e-05
2.784126984126984006e+00,-6.329450725763898362e-06,2.025200775258694172e-05
2.784920634920634797e+00,-8.621539190439234468e-06,2.419414853051908023e-05
2.785714285714285587e+00,-9.624534618439370317e-06,2.420235016598635557e-05
2.786507936507936378e+00,-8.781115355081662012e-06,2.021764632762371123e-05
2.787301587301587169e+00,-5.680225304603410755e-06,1.255250096619426108e-05
2.788095238095237960e+00,-2.422846754447512068e-07,1.887295534873200777e-06
2.788888888888888751e+00,7.121698048059771355e-06,-1.068495463668428442e-05
2.789682539682539542e+00,1.543556419903556470e-05,-2.361734075542936073e-05
2.790476190476190332e+00,2.321765298787942380e-05,-3.495755476579763549e-05
2.791269841269841123e+00,2.869630585808692917e-05,-4.256031322441095949e-05
2.792063492063491914e+00,3.015964527235054368e-05,-4.447893179047486680e-05
2.792857142857142705e+00,2.637371102515659530e-05,-3.946948765924943243e-05
2.793650793650793496e+00,1.697569719052113800e-05,-2.747109156253948372e-05
2.794444444444444287e+00,2.747968055328519235e-06,-9.896278800873544847e-06
2.795238095238095077e+00,-1.430133206945808299e-05,1.040806801068227501e-05
2.796031746031745868e+00,-3.109395856349431538e-05,2.958586502593333164e-05
2.796825396825396659e+00,-4.387866582230830773e-05,4.352116686017174250e-05
2.797619047619047450e+00,-4.883314253929956199e-05,4.874045296832313286e-05
2.798412698412698241e+00,-4.279597808483674785e-05,4.324331353657436097e-05
2.799206349206349032e+00,-2.402708826599818427e-05,2.705729886324062842e-05
2.799999999999999822e+00,7.122510922131863985e-06,2.386764960120020028e-06
2.800793650793650613e+00,4.776919121941130690e-05,-2.668085172903640582e-05
2.801587301587301404e+00,9.243974234094031936e-05,-5.485916489041098141e-05
2.802380952380952195e+00,1.335486177908053998e-04,-7.661301784656169168e-05
2.803174603174602986e+00,1.624898708804981776e-04,-8.720272504259656812e-05
2.803968253968253777e+00,1.712733809612745418e-04,-8.363412416664073388e-05
2.804761904761904567e+00,1.544254997637439244e-04,-6.534089865863152639e-05
2.805555555555555358e+00,1.106802362900584195e-04,-3.446272453089135418e-05
2.806349206349206149e+00,4.391591895438656709e-05,4.363934210588999666e-06
2.807142857142856940e+00,-3.707487519931100431e-05,4.471177565980368618e-05
2.807936507936507731e+00,-1.200709270680136182e-04,7.947625903646086986e-05
2.808730158730158522e+00,-1.918541674915919763e-04,1.022011871769446179e-04
2.809523809523809312e+00,-2.409602973818792640e-04,1.083467018918473463e-04
2.810317460317460103e+00,-2.600057690271600965e-04,9.622818693281772319e-05
2.811111111111110894e+00,-2.469860318445916167e-04,6.743027132031327239e-05
2.811904761904761685e+00,-2.052824189226689516e-04,2.661990114726621388e-05
2.812698412698412920e+00,-1.425222918728675516e-04,-1.919930031690315821e-05
2.813492063492063711e+00,-6.874092501747831429e-05,-6.185869670596646770e-05
2.814285714285714501e+00,5.605864210297931515e-06,-9.342785031965192852e-05
2.815079365079365292e+00,7.132019596048716427e-05,-1.076153020075321879e-04
2.815873015873016083e+00,1.215688623890121836e-04,-1.009197884105773028e-04
2.816666666666666874e+00,1.523602446055811902e-04,-7.331344886640107363e-05
2.817460317460317665e+00,1.624875624325784339e-04,-2.832204087984539797e-05
2.818253968253968456e+00,1.531181226157946268e-04,2.750432213969002457e-05
2.819047619047619246e+00,1.272254102719405687e-04,8.560534551890194637e-05
2.819841269841270037e+00,8.902810319263965676e-05,1.367064364591105816e-04
2.820634920634920828e+00,4.353913485526033169e-05,1.721926640570363768e-04
2.821428571428571619e+00,-3.745698662141557417e-06,1.854084098238469752e-04
2.822222222222222410e+00,-4.707243274108110023e-05,1.727737882485821908e-04
2.823015873015873201e+00,-8.069978601995792358e-05,1.346007076561756477e-04
2.823809523809523991e+00,-9.938748720989080141e-05,7.544421609347172107e-05
2.824603174603174782e+00,-9.921690484776036524e-05,3.801843036593291956e-06
2.825396825396825573e+00,-7.868651718975019926e-05,-6.896458126033473105e-05
2.826190476190476364e+00,-3.978557150375675993e-05,-1.304535385769457290e-04
2.826984126984127155e+00,1.144687650149640687e-05,-1.695530991280397011e-04
2.827777777777777946e+00,6.540110084132252184e-05,-1.788352821706574362e-04
2.828571428571428736e+00,1.107185012063382660e-04,-1.564631745428433365e-04
2.829365079365079527e+00,1.372852195844937470e-04,-1.070850107019371888e-04
2.830158730158730318e+00,1.396185489357058547e-04,-4.136623692503464835e-05
2.830952380952381109e+00,1.194046468098143782e-04,2.589741263734058983e-05
2.831746031746031900e+00,8.595321485441156028e-05,7.879770717061192946e-05
2.832539682539682691e+00,5.394595421060995391e-05,1.038536760684251027e-04
2.833333333333333481e+00,3.886700410624682896e-05,9.325868730427930666e-05
2.834126984126984272e+00,5.147520449509991478e-05,4.701253398426846763e-05
2.834920634920635063e+00,9.319281575234367036e-05,-2.666011612143137467e-05
2.835714285714285854e+00,1.541452309944223295e-04,-1.127939449980165003e-04
2.836507936507936645e+00,2.148360609069838981e-04,-1.927785157156987187e-04
2.837301587301587436e+00,2.512888960067498172e-04,-2.483639393684703052e-04
2.838095238095238226e+00,2.422513097502717596e-04,-2.656480887645218847e-04
2.838888888888889017e+00,1.761701999178169901e-04,-2.381192872119304691e-04
2.839682539682539808e+00,5.554614923860645112e-05,-1.680481722458892243e-04
2.840476190476190599e+00,-1.028785424689772902e-04,-6.590968273535752913e-05
2.841269841269841390e+00,-2.721604442695147006e-04,5.200420186235851967e-05
2.842063492063492181e+00,-4.220224588469348188e-04,1.671546218660320364e-04
2.842857142857142971e+00,-5.263135253995072536e-04,2.625675994793363519e-04
2.843650793650793762e+00,-5.688710026184640211e-04,3.259077827293136646e-04
2.844444444444444553e+00,-5.463517757271263474e-04,3.511122176976367681e-04
2.845238095238095344e+00,-4.676685717755813313e-04,3.383796740156087683e-04
2.846031746031746135e+00,-3.506558695218140440e-04,2.928305077344094749e-04
2.846825396825396925e+00,-2.172213311067824535e-04,2.224962318370146794e-04
2.847619047619047716e+00,-8.840166939120510032e-05,1.363642815679850032e-04
2.848412698412698507e+00,1.951388527561818381e-05,4.301149654546935900e-05
2.849206349206349298e+00,9.713515941719370384e-05,-4.997899115549400462e-05
2.850000000000000089e+00,1.422913676369327342e-04,-1.359602059692548550e-04
2.850793650793650880e+00,1.588488445196413468e-04,-2.088792934153897263e-04
2.851587301587301670e+00,1.545974192576440073e-04,-2.630467432928664537e-04
2.852380952380952461e+00,1.388319033237368424e-04,-2.933027523008629946e-04
2.853174603174603252e+00,1.201722215825840555e-04,-2.956679776053134875e-04
2.853968253968254043e+00,1.050004624059775534e-04,-2.683412821660050907e-04
2.854761904761904834e+00,9.669396738491704932e-05,-2.127184445054906348e-04
2.855555555555555625e+00,9.564284923945869348e-05,-1.340185935769998792e-04
2.856349206349206415e+00,9.989122365734113803e-05,-4.116375300875856996e-05
2.857142857142857206e+00,1.061506629054818148e-04,5.424896591117862979e-05
2.857936507936507997e+00,1.109035109340710852e-04,1.397743444477381343e-04
2.858730158730158788e+00,1.113396835395928734e-04,2.043719081016118775e-04
2.859523809523809579e+00,1.059492298375838318e-04,2.405279141888494953e-04
2.860317460317460370e+00,9.470716250641087483e-05,2.456628155954854154e-04
2.861111111111111160e+00,7.889887445329040675e-05,2.224111629614955303e-04
2.861904761904761951e+00,6.070352706249461903e-05,1.776925122741667903e-04
2.862698412698412742e+00,4.266661940075437514e-05,1.208675442496286612e-04
2.863492063492063533e+00,2.717202783986884143e-05,6.154578530408302741e-05
2.864285714285714324e+00,1.599753194339304709e-05,7.671900814130789474e-06
2.865079365079365115e+00,1.001943376055405591e-05,-3.564653362705800491e-05
2.865873015873015905e+00,9.113264683016026241e-06,-6.640661331763821344e-05
2.866666666666666696e+00,1.226452972475472403e-05,-8.521009040171804538e-05
2.867460317460317487e+00,1.785608836356947237e-05,-9.432637729354011061e-05
2.868253968253968278e+00,2.405513751538750414e-05,-9.669259668567764879e-05
2.869047619047619069e+00,2.920156624306736507e-05,-9.513360900634991934e-05
2.869841269841269860e+00,3.210600352133644839e-05,-9.191855670807643072e-05
2.870634920634920650e+00,3.219553463402566209e-05,-8.860968462899563073e-05
2.871428571428571441e+00,2.949038659257245221e-05,-8.607114240723798932e-05
2.872222222222222232e+00,2.444509163687247157e-05,-8.451096355451062365e-05
2.873015873015873023e+00,1.772728832038913759e-05,-8.349885039520597385e-05
2.873809523809523814e+00,1.002044964011873146e-05,-8.198185326223521373e-05
2.874603174603174605e+00,1.914372444805108873e-06,-7.836584733122399710e-05
2.875396825396825395e+00,-6.104166920737972588e-06,-7.072782368637286772e-05
2.876190476190476186e+00,-1.360244565657232577e-05,-5.718114584203996944e-05
2.876984126984126977e+00,-2.016077350164228102e-05,-3.635304089577846533e-05
2.877777777777777768e+00,-2.538627123722090291e-05,-7.874510504256158582e-06
2.878571428571428559e+00,-2.898193360911976085e-05,2.725102152014630523e-05
2.879365079365079350e+00,-3.083113676977543343e-05,6.652916760159353253e-05
2.880158730158730140e+00,-3.104698209196314650e-05,1.061857525021029074e-04
2.880952380952380931e+00,-2.995489965299699518e-05,1.416989558587798204e-04
2.881746031746031722e+00,-2.800881565046179394e-05,1.685432550211692234e-04
2.882539682539682513e+00,-2.566801462516501021e-05,1.829692024138388125e-04
2.883333333333333304e+00,-2.327529119404277239e-05,1.826432116830356220e-04
2.884126984126984095e+00,-2.097677809529734108e-05,1.670298254082948710e-04
2.884920634920634885e+00,-1.871116129704330223e-05,1.374732714996049329e-04
2.885714285714285676e+00,-1.627265061668985632e-05,9.699045980396644507e-05
2.886507936507936467e+00,-1.342502915596682309e-05,4.982222840393867117e-05
2.887301587301587258e+00,-1.002510127957436037e-05,8.197261081269077823e-07
2.888095238095238049e+00,-6.111180454712294218e-06,-4.522900688595255929e-05
2.888888888888888840e+00,-1.925394422311437615e-06,-8.421627997548468522e-05
2.889682539682539630e+00,2.138451361797276963e-06,-1.131774557043800379e-04
2.890476190476190421e+00,5.643922159667726972e-06,-1.305402578745411724e-04
2.891269841269841212e+00,8.239333774253182330e-06,-1.361478947297966907e-04
2.892063492063492003e+00,9.756201128430292460e-06,-1.310850096778064580e-04
2.892857142857142794e+00,1.023965081199419217e-05,-1.173668319730963058e-04
2.893650793650793585e+00,9.895109668050029421e-06,-9.756569622875016739e-05
2.894444444444444375e+00,8.966792242377353051e-06,-7.443966093856387175e-05
2.895238095238095166e+00,7.591991088114897663e-06,-5.060056879601081023e-05
2.896031746031745957e+00,5.690993092540841708e-06,-2.823225807023761437e-05
2.896825396825396748e+00,2.948765330183364270e-06,-8.863499005130713723e-06
2.897619047619047539e+00,-1.081143434637655635e-06,6.781561491398823525e-06
2.898412698412698330e+00,-6.764245422105270301e-06,1.880875461120008868e-05
2.899206349206349120e+00,-1.412897025921791570e-05,2.800988260921391057e-05
2.899999999999999911e+00,-2.266882027734193480e-05,3.554918037107864290e-05
2.900793650793650702e+00,-3.130573369845771460e-05,4.254991867510764085e-05
2.901587301587301493e+00,-3.856844667384657228e-05,4.970018449265544834e-05
2.902380952380952284e+00,-4.295210034196764984e-05,5.699443328863539564e-05
2.903174603174603075e+00,-4.333980795880428482e-05,6.368069107327431683e-05
2.903968253968253865e+00,-3.933217667411773418e-05,6.842337084924461545e-05
2.904761904761904656e+00,-3.136780197840080239e-05,6.964378145389701815e-05
2.905555555555555447e+00,-2.060354917038653970e-05,6.596945732274592093e-05
2.906349206349206238e+00,-8.613045683644955628e-06,5.670058790531561229e-05
2.907142857142857029e+00,2.981611928019357702e-06,4.218356818183279275e-05
2.907936507936507819e+00,1.282436640042432843e-05,2.398058649722134415e-05
2.908730158730158610e+00,2.000766272291753571e-05,4.755760554321888734e-06
2.909523809523809401e+00,2.410981814036076924e-05,-1.213901558397834724e-05
2.910317460317460192e+00,2.512876394922329933e-05,-2.332022338843264375e-05
2.911111111111110983e+00,2.337567479608130259e-05,-2.614596324855246256e-05
2.911904761904761774e+00,1.937995583000731500e-05,-1.944059172049910345e-05
2.912698412698412564e+00,1.382494251029654435e-05,-4.000346561269045904e-06
2.913492063492063355e+00,7.502014379080010822e-06,1.726465811515976297e-05
2.914285714285714146e+00,1.255552249239187065e-06,3.965133233595550508e-05
2.915079365079364937e+00,-4.103455217946202975e-06,5.746967032553409527e-05
2.915873015873015728e+00,-7.916689594515984621e-06,6.522413931513383536e-05
2.916666666666666519e+00,-9.806223451574091685e-06,5.889942223083293165e-05
2.917460317460317309e+00,-9.767350105658714255e-06,3.698366168701004253e-05
2.918253968253968100e+00,-8.183031600491250847e-06,9.166189927968917809e-07
2.919047619047618891e+00,-5.738851778234795420e-06,-4.515907632923686871e-05
2.919841269841269682e+00,-3.253115563065172463e-06,-9.524203089367041456e-05
2.920634920634920473e+00,-1.467826054339130196e-06,-1.426584091469529326e-04
2.921428571428571264e+00,-8.579824405877074784e-07,-1.812948035181902466e-04
2.922222222222222054e+00,-1.507740831438840964e-06,-2.066245930129405708e-04
2.923015873015872845e+00,-3.082810408661166819e-06,-2.163579393360350641e-04
2.923809523809523636e+00,-4.908837474238550422e-06,-2.106319385030542115e-04
2.924603174603174427e+00,-6.146188149084748839e-06,-1.917319100518062092e-04
2.925396825396825218e+00,-6.028867533321974016e-06,-1.634098139177511428e-04
2.926190476190476009e+00,-4.111727766507657427e-06,-1.299545920541126819e-04
2.926984126984126799e+00,-4.556319314083277181e-07,-9.524613011910146342e-05
2.927777777777777590e+00,4.315138510346014363e-06,-6.203547670297678701e-05
2.928571428571428381e+00,9.121277094999084197e-06,-3.161605221498856207e-05
2.929365079365079172e+00,1.269330878917802991e-05,-3.920139111317293520e-06
2.930158730158729963e+00,1.392820395356230213e-05,2.204656624560344429e-05
2.930952380952380754e+00,1.223023736379144337e-05,4.758912584133224934e-05
2.931746031746031544e+00,7.720969388479780406e-06,7.369237459226653285e-05
2.932539682539682335e+00,1.241773668958995562e-06,1.005123115087461688e-04
2.933333333333333126e+00,-5.854397033475132064e-06,1.270924245863486190e-04
2.934126984126983917e+00,-1.204915694858685225e-05,1.513771117015430729e-04
2.934920634920634708e+00,-1.602710967268899839e-05,1.705530505947780602e-04
2.935714285714285499e+00,-1.695978216085441346e-05,1.816806459908789349e-04
2.936507936507936289e+00,-1.464618710840778102e-05,1.824871530507269344e-04
2.937301587301587080e+00,-9.505580080687107879e-06,1.721101454711191768e-04
2.938095238095238315e+00,-2.453555844393767850e-06,1.515487376609903080e-04
2.938888888888889106e+00,5.294562762492949787e-06,1.236385560831127146e-04
2.939682539682539897e+00,1.244984077165982383e-05,9.251259931658053234e-05
2.940476190476190688e+00,1.786794285302891090e-05,6.268547904726106117e-05
2.941269841269841478e+00,2.072914434760051705e-05,3.802325535527875661e-05
2.942063492063492269e+00,2.065755479984476655e-05,2.088919335414660708e-05
2.942857142857143060e+00,1.776601144068926271e-05,1.169389844439750222e-05
2.943650793650793851e+00,1.262326891602264650e-05,8.960421146991211564e-06
2.944444444444444642e+00,6.148774585260454932e-06,9.875560042644894936e-06
2.945238095238095433e+00,-5.534265453868632540e-07,1.116894438218605097e-05
2.946031746031746223e+00,-6.401614739471681347e-06,1.007289327813797162e-05
2.946825396825397014e+00,-1.054943219776591172e-05,5.093777086778965737e-06
2.947619047619047805e+00,-1.255537205885543908e-05,-3.621597562190262262e-06
2.948412698412698596e+00,-1.245651893085025499e-05,-1.442503799352718656e-05
2.949206349206349387e+00,-1.071256596035524468e-05,-2.476242310844990223e-05
2.950000000000000178e+00,-8.024392555551442994e-06,-3.203480709648680319e-05
2.950793650793650968e+00,-5.079740612477008490e-06,-3.444434051215829634e-05
2.951587301587301759e+00,-2.315727694596837623e-06,-3.154300740418287735e-05
2.952380952380952550e+00,2.099662601518154149e-07,-2.430692572221050047e-05
2.953174603174603341e+00,2.786877852067971504e-06,-1.474497168821088078e-05
2.953968253968254132e+00,5.868423532005788441e-06,-5.239616183935785623e-06
2.954761904761904923e+00,9.805837522452649056e-06,2.091666893667593988e-06
2.955555555555555713e+00,1.460383275170441521e-05,5.788395835462919345e-06
2.956349206349206504e+00,1.980252264466190131e-05,5.135140839721582063e-06
2.957142857142857295e+00,2.454556239390541845e-05,4.738305790463324220e-08
2.957936507936508086e+00,2.781692620721973506e-05,-9.084719030204385052e-06
2.958730158730158877e+00,2.875534669889242247e-05,-2.148214761920016040e-05
2.959523809523809668e+00,2.692453913951851300e-05,-3.597464641725123377e-05
2.960317460317460458e+00,2.244075731292511381e-05,-5.097060088672988784e-05
2.961111111111111249e+00,1.592053629594888307e-05,-6.448990548369775897e-05
2.961904761904762040e+00,8.281991054284889810e-06,-7.433253761656693896e-05
2.962698412698412831e+00,4.849635548652126541e-07,-7.840221732386441560e-05
2.963492063492063622e+00,-6.690254516345484298e-06,-7.513417577620940002e-05
2.964285714285714413e+00,-1.275235876539854965e-05,-6.391559035635851203e-05
2.965079365079365203e+00,-1.747763461223686085e-05,-4.536532996069056250e-05
2.965873015873015994e+00,-2.079754578967820352e-05,-2.136808214225876035e-05
2.966666666666666785e+00,-2.267357071342988872e-05,5.175409667185130117e-06
2.967460317460317576e+00,-2.303732185980042523e-05,3.083956545634188658e-05
2.968253968253968367e+00,-2.183260198655097056e-05,5.229331853850508458e-05
2.969047619047619158e+00,-1.913270560440830906e-05,6.689390013385314044e-05
2.969841269841269948e+00,-1.525571169896926762e-05,7.310731862865712638e-05
2.970634920634920739e+00,-1.079335429907011505e-05,7.066304123130578844e-05
2.971428571428571530e+00,-6.510679459246828266e-06,6.043603716383472195e-05
2.972222222222222321e+00,-3.139914329012485256e-06,4.412910483003476629e-05
2.973015873015873112e+00,-1.146106332666161362e-06,2.387096416700192102e-05
2.973809523809523903e+00,-5.577499872783811176e-07,1.843743542317076621e-06
2.974603174603174693e+00,-9.291468504252139677e-07,-1.997927038736978803e-05
2.975396825396825484e+00,-1.450509998328129317e-06,-3.995048919500490057e-05
2.976190476190476275e+00,-1.173396817130055616e-06,-5.673201356612571941e-05
2.976984126984127066e+00,7.094329858855584897e-07,-6.920390321265104151e-05
2.977777777777777857e+00,4.598767348335479734e-06,-7.638497425103919682e-05
2.978571428571428648e+00,1.030409588979975577e-05,-7.745156753760335346e-05
2.979365079365079438e+00,1.699525389238823561e-05,-7.189288952114366899e-05
2.980158730158730229e+00,2.332579817077694379e-05,-5.977087394712733215e-05
2.980952380952381020e+00,2.772381565768802363e-05,-4.199288725449094753e-05
2.981746031746031811e+00,2.879054766339661438e-05,-2.047482285455339641e-05
2.982539682539682602e+00,2.569683769274165624e-05,1.930076325625790422e-06
2.983333333333333393e+00,1.845099787103000915e-05,2.182567787049222320e-05
2.984126984126984183e+00,7.945754606526210843e-06,3.598039491096790437e-05
2.984920634920634974e+00,-4.233959945348600964e-06,4.217686639877409201e-05
2.985714285714285765e+00,-1.617958970502918144e-05,3.989263209778218721e-05
2.986507936507936556e+00,-2.608864495303903243e-05,3.050264538478494826e-05
2.987301587301587347e+00,-3.263345999342302204e-05,1.688177249001236989e-05
2.988095238095238138e+00,-3.517999023044740005e-05,2.553679484275025154e-06
2.988888888888888928e+00,-3.382162376985376942e-05,-9.285003273933904172e-06
2.989682539682539719e+00,-2.924786803156767865e-05,-1.652837393707934138e-05
2.990476190476190510e+00,-2.250786446056944875e-05,-1.850786989442415061e-05
2.991269841269841301e+00,-1.474572841350550647e-05,-1.589302212580603806e-05
2.992063492063492092e+00,-6.978874487604073928e-06,-1.025745310803017321e-05
2.992857142857142883e+00,3.284707419417818712e-08,-3.490680999669256922e-06
2.993650793650793673e+00,5.813473765377975670e-06,2.759912357947803050e-06
2.994444444444444464e+00,1.011532760106987854e-05,7.474280883819510263e-06
2.995238095238095255e+00,1.283046825908556681e-05,1.039758177777937413e-05
2.996031746031746046e+00,1.392206945607969503e-05,1.193239845212822235e-05
2.996825396825396837e+00,1.340685167751063747e-05,1.285173655381390639e-05
2.997619047619047628e+00,1.138498063521665705e-05,1.393983115928992073e-05
2.998412698412698418e+00,8.087027729068037003e-06,1.567942664656949377e-05
2.999206349206349209e+00,3.902059059697492791e-06,1.808230307114177160e-05
3.000000000000000000e+00,-6.349408057501584790e-07,2.070462606770426443e-05
3.000793650793650791e+00,-4.895920192156833634e-06,2.281778891133570160e-05
3.001587301587301582e+00,-8.235521766323511254e-06,2.365154830884197526e-05
3.002380952380952372e+00,-1.006859649925958568e-05,2.261603783951107057e-05
3.003174603174603163e+00,-9.936396983598845542e-06,1.944190693747720842e-05
3.003968253968253954e+00,-7.560332408031271705e-06,1.422623480618471809e-05
3.004761904761904745e+00,-2.889937360849613070e-06,7.406411458248331207e-06
3.005555555555555536e+00,3.849595965704504442e-06,-3.064437935150806603e-07
3.006349206349206327e+00,1.211631059113807010e-05,-8.012445117247104723e-06
3.007142857142857117e+00,2.103853567375786786e-05,-1.472029486317186300e-05
3.007936507936507908e+00,2.946032587136313674e-05,-1.946321839414059124e-05
3.008730158730158699e+00,3.606745131755919692e-05,-2.144121501930074515e-05
3.009523809523809490e+00,3.959245071486551152e-05,-2.018589535503262890e-05
3.010317460317460281e+00,3.906791177709244327e-05,-1.572330849247032667e-05
3.011111111111111072e+00,3.407303801481002668e-05,-8.689844138148881313e-06
3.011904761904761862e+00,2.490661314969992943e-05,-3.477096695122173388e-07
3.012698412698412653e+00,1.262448805321645902e-05,7.544700024837940084e-06
3.013492063492063444e+00,-1.093408981058110965e-06,1.302618145713625528e-05
3.014285714285714235e+00,-1.423454003228949574e-05,1.436674490109800272e-05
3.015079365079365026e+00,-2.484129624553399192e-05,1.056518928597713050e-05
3.015873015873015817e+00,-3.140229788696139698e-05,1.780272206935482352e-06
3.016666666666666607e+00,-3.315718352917399646e-05,-1.045970169201383267e-05
3.017460317460317398e+00,-3.025071264852709425e-05,-2.339482908387002203e-05
3.018253968253968189e+00,-2.370741753532778649e-05,-3.355594592297319635e-05
3.019047619047618980e+00,-1.523346785359740735e-05,-3.758389249420409294e-05
3.019841269841269771e+00,-6.883921086924305968e-06,-3.314138540432646769e-05
3.020634920634920562e+00,-6.578019494427726592e-07,-1.964702952335632786e-05
3.021428571428571352e+00,1.903103728575967593e-06,1.420304054867770929e-06
3.022222222222222143e+00,3.540381319927567161e-08,2.678027171783065033e-05
3.023015873015872934e+00,-6.068526445868068700e-06,5.211419687372292723e-05
3.023809523809523725e+00,-1.526660612256349592e-05,7.308554231467921636e-05
3.024603174603174516e+00,-2.566361309004035272e-05,8.628566658388806747e-05
3.025396825396825307e+00,-3.496876786895456590e-05,8.983771552549490687e-05
3.026190476190476097e+00,-4.095075955359468180e-05,8.355912789042133396e-05
3.026984126984126888e+00,-4.190247020118624782e-05,6.875261525107684627e-05
3.027777777777777679e+00,-3.701941555272214183e-05,4.778759288806697162e-05
3.028571428571428470e+00,-2.660620807749794936e-05,2.363078239095185650e-05
3.029365079365079261e+00,-1.205434499565913795e-05,-5.797716390876979524e-07
3.030158730158730052e+00,4.418882018385316077e-06,-2.189454633414224046e-05
3.030952380952380842e+00,2.022225315933103015e-05,-3.786330480059284611e-05
3.031746031746031633e+00,3.292941638195586758e-05,-4.681478938192079403e-05
3.032539682539682424e+00,4.076833524737023584e-05,-4.809840232940806957e-05
3.033333333333333215e+00,4.293301266449083844e-05,-4.224596913888901246e-05
3.034126984126984006e+00,3.964095569123112216e-05,-3.098408972717883920e-05
3.034920634920634797e+00,3.194271777748785071e-05,-1.702899970383055161e-05
3.035714285714285587e+00,2.137463506866463036e-05,-3.640844041116259008e-06
3.036507936507936378e+00,9.593061165475687084e-06,6.006913471602627822e-06
3.037301587301587169e+00,-1.889646322727544745e-06,9.509321162596650915e-06
3.038095238095237960e+00,-1.181904598373488439e-05,5.791123261958221178e-06
3.038888888888888751e+00,-1.919312928988927780e-05,-4.605607778312193950e-06
3.039682539682539542e+00,-2.321111924259111774e-05,-1.959441316500215588e-05
3.040476190476190332e+00,-2.324839780262856739e-05,-3.597643165397582381e-05
3.041269841269841123e+00,-1.890095429426725030e-05,-5.014105446933287292e-05
3.042063492063491914e+00,-1.010744690849553662e-05,-5.887384203447916753e-05
3.042857142857142705e+00,2.676451293893172043e-06,-6.007429760969640277e-05
3.043650793650793496e+00,1.830634949343943501e-05,-5.319934676413325998e-05
3.044444444444444287e+00,3.485728932716667143e-05,-3.931548886734560414e-05
3.045238095238095077e+00,4.969506585558535307e-05,-2.075245879987104388e-05
3.046031746031745868e+00,5.977247446514453083e-05,-4.736286347938436801e-07
3.046825396825396659e+00,6.215738209138055672e-05,1.863097948015575168e-05
3.047619047619047450e+00,5.472053032488990309e-05,3.430504046474702930e-05
3.048412698412698241e+00,3.683218175552130760e-05,4.518413503776775138e-05
3.049206349206349032e+00,9.868142356115235792e-06,5.072584223087497386e-05
3.049999999999999822e+00,-2.266828065472971528e-05,5.091944042855137484e-05
3.050793650793650613e+00,-5.553165162670354498e-05,4.596157240441106336e-05
3.051587301587301404e+00,-8.262730099159458399e-05,3.607576209401584647e-05
3.052380952380952195e+00,-9.826626927745780516e-05,2.156624442905212937e-05
3.053174603174602986e+00,-9.851060427282560161e-05,3.071949055419799629e-06
3.053968253968253777e+00,-8.227390627916299258e-05,-1.811994151212518783e-05
3.054761904761904567e+00,-5.186788954938208163e-05,-3.988547231173673359e-05
3.055555555555555358e+00,-1.279536296478593671e-05,-5.935119164446759011e-05
3.056349206349206149e+00,2.724389560888683027e-05,-7.331131610272216667e-05
3.057142857142856940e+00,5.997288117336410803e-05,-7.890526661117927792e-05
3.057936507936507731e+00,7.842937988044264481e-05,-7.437889208545984943e-05
3.058730158730158522e+00,7.864746464066521147e-05,-5.969947194875049851e-05
3.059523809523809312e+00,6.065339378355910210e-05,-3.681427025014534526e-05
3.060317460317460103e+00,2.847855294355689922e-05,-9.429126958922340765e-06
3.061111111111110894e+00,-1.081392797403797923e-05,1.768679930807708957e-05
3.061904761904761685e+00,-4.879843454146378870e-05,3.972126381399074165e-05
3.062698412698412920e+00,-7.757578506625553629e-05,5.289498465461192086e-05
3.063492063492063711e+00,-9.137793972638294786e-05,5.527615833628114284e-05
3.064285714285714501e+00,-8.751001287999270704e-05,4.708535082952167752e-05
3.065079365079365292e+00,-6.648524338737008389e-05,3.042317504267641197e-05
3.065873015873016083e+00,-3.146911545385323747e-05,8.567487273239669267e-06
3.066666666666666874e+00,1.266603116540249377e-05,-1.486898410735916178e-05
3.067460317460317665e+00,6.033089237734863802e-05,-3.661881647362381172e-05
3.068253968253968456e+00,1.059966842093361942e-04,-5.409089837314453756e-05
3.069047619047619246e+00,1.446577182486425762e-04,-6.534419215113559584e-05
3.069841269841270037e+00,1.720278076473941652e-04,-6.886151389937501636e-05
3.070634920634920828e+00,1.846237515566774307e-04,-6.336784712162336897e-05
3.071428571428571619e+00,1.799219962441774457e-04,-4.790781537246470353e-05
3.072222222222222410e+00,1.567132456329835733e-04,-2.224851509485705462e-05
3.073015873015873201e+00,1.156209921018969535e-04,1.253685642202024227e-05
3.073809523809523991e+00,5.955668884766206135e-05,5.361339942577736850e-05
3.074603174603174782e+00,-6.212553831429945825e-06,9.637925234587555259e-05
3.075396825396825573e+00,-7.460509029463425882e-05,1.350707347970712719e-04
3.076190476190476364e+00,-1.378280842013742216e-04,1.638775605886411981e-04
3.076984126984127155e+00,-1.887278558107863843e-04,1.782389586130266013e-04
3.077777777777777946e+00,-2.219669771204353268e-04,1.758978719303035663e-04
3.078571428571428736e+00,-2.347075252648254647e-04,1.573639552142209444e-04
3.079365079365079527e+00,-2.266961959671584613e-04,1.256406773076216329e-04
3.080158730158730318e+00,-1.998546227112052334e-04,8.532782451495525794e-05
3.080952380952381109e+00,-1.576005698190839350e-04,4.142135039423311426e-05
3.081746031746031900e+00,-1.041501780955734422e-04,-1.781931419330845968e-06
3.082539682539682691e+00,-4.400028337408447076e-05,-4.133390446754586799e-05
3.083333333333333481e+00,1.830932126299887337e-05,-7.568204114248046604e-05
3.084126984126984272e+00,7.817994320982792089e-05,-1.041866948880134177e-04
3.084920634920635063e+00,1.308415686791728741e-04,-1.263814186480546810e-04
3.085714285714285854e+00,1.713962703140706981e-04,-1.413521147894760722e-04
3.086507936507936645e+00,1.952682478153250790e-04,-1.475712172278991212e-04
3.087301587301587436e+00,1.991597183523242888e-04,-1.433350066428847784e-04
3.088095238095238226e+00,1.823189119303880810e-04,-1.276742530422231184e-04
3.088888888888889017e+00,1.476136105644164603e-04,-1.013564243209820205e-04
3.089682539682539808e+00,1.017738432272348659e-04,-6.749235239044543404e-05
3.090476190476190599e+00,5.436493970936771662e-05,-3.136374814500461096e-05
3.091269841269841390e+00,1.553441126247560674e-05,6.265956851393335087e-07
3.092063492063492181e+00,-6.872066876373972183e-06,2.261995225645576797e-05
3.092857142857142971e+00,-9.865086926993155457e-06,3.103626771315740046e-05
3.093650793650793762e+00,3.432566880471385796e-06,2.575691788966150036e-05
3.094444444444444553e+00,2.442397378472154252e-05,1.031210337466852126e-05
3.095238095238095344e+00,4.152810910313859175e-05,-9.012875764924241161e-06
3.096031746031746135e+00,4.379885132639538216e-05,-2.485558069750981415e-05
3.096825396825396925e+00,2.448497060426459517e-05,-3.069263781563873433e-05
3.097619047619047716e+00,-1.669578565174405240e-05,-2.242099533435088122e-05
3.098412698412698507e+00,-7.335399878197910648e-05,7.921799031848611911e-07
3.099206349206349298e+00,-1.343269819894793839e-04,3.651028357840998217e-05
3.100000000000000089e+00,-1.869637271445139860e-04,7.973870222077396222e-05
3.100793650793650880e+00,-2.206580215909944686e-04,1.240363791982527976e-04
3.101587301587301670e+00,-2.295166813114126174e-04,1.626629307005772029e-04
3.102380952380952461e+00,-2.134474215695021714e-04,1.894719514942439658e-04
3.103174603174603252e+00,-1.775295935707432845e-04,1.994481514122372050e-04
3.103968253968254043e+00,-1.300796387969230857e-04,1.890003131374519353e-04
3.104761904761904834e+00,-8.016401912044638311e-05,1.562383673971262080e-04
3.105555555555555625e+00,-3.535414942321803502e-05,1.014055045266702341e-04
3.106349206349206415e+00,-2.966430252420773604e-07,2.744245316801386571e-05
3.107142857142857206e+00,2.367854802187710768e-05,-5.954858530249915530e-05
3.107936507936507997e+00,3.802382272395353762e-05,-1.502809078976348705e-04
3.108730158730158788e+00,4.584630740238842357e-05,-2.329958742339009845e-04
3.109523809523809579e+00,5.059771239855604362e-05,-2.950208556773714109e-04
3.110317460317460370e+00,5.495589003298819223e-05,-3.250120684959376116e-04
3.111111111111111160e+00,6.017024447361642842e-05,-3.154415370231632610e-04
3.111904761904761951e+00,6.599893971627574202e-05,-2.646920016611116976e-04
3.112698412698412742e+00,7.118463143446571032e-05,-1.781082501801445957e-04
3.113492063492063533e+00,7.423541415221975807e-05,-6.756573512560419656e-05
3.114285714285714324e+00,7.417805441503003833e-05,5.048784202470434903e-05
3.115079365079365115e+00,7.099009586833708238e-05,1.581187373416226879e-04
3.115873015873015905e+00,6.557791624990779930e-05,2.393881820499619575e-04
3.116666666666666696e+00,5.936540489690745009e-05,2.833790642901289373e-04
3.117460317460317487e+00,5.370212893239399894e-05,2.860448816399254542e-04
3.118253968253968278e+00,4.934299783055710967e-05,2.504800199750826508e-04
3.119047619047619069e+00,4.619666721020353233e-05,1.856383749652956163e-04
3.119841269841269860e+00,4.342120384772293196e-05,1.039396171658273364e-04
3.120634920634920650e+00,3.980922749836913311e-05,1.847209132609157507e-05
3.121428571428571441e+00,3.429959531269216583e-05,-5.945938559824434861e-05
3.122222222222222232e+00,2.641618193366958211e-05,-1.218874195481742446e-04
3.123015873015873023e+00,1.647663147045072397e-05,-1.646262040903199129e-04
3.123809523809523814e+00,5.513494181080192618e-06,-1.867512856009274577e-04
3.124603174603174605e+00,-5.036616608804893358e-06,-1.895182501801989422e-04
3.125396825396825395e+00,-1.374133821801410435e-05,-1.752234439539587048e-04
3.126190476190476186e+00,-1.953084081347153899e-05,-1.464406407486794706e-04
3.126984126984126977e+00,-2.190828551527034245e-05,-1.058530385588709038e-04
3.127777777777777768e+00,-2.099026800804590538e-05,-5.660438619279902861e-05
3.128571428571428559e+00,-1.741318705793039830e-05,-2.829046455550734042e-06
3.129365079365079350e+00,-1.216228199363767246e-05,5.008559322714391390e-05
3.130158730158730140e+00,-6.372270902201197927e-06,9.583643160263371401e-05
3.130952380952380931e+00,-1.132092838522381940e-06,1.281902935217951441e-04
3.131746031746031722e+00,2.684426059260845339e-06,1.423551382055968030e-04
3.132539682539682513e+00,4.542213959157665682e-06,1.362795619865911345e-04
3.133333333333333304e+00,4.303289931766364021e-06,1.114189129058147410e-04
3.134126984126984095e+00,2.207835489432210576e-06,7.267437180863168264e-05
3.134920634920634885e+00,-1.216445360320465512e-06,2.747260873236355173e-05
3.135714285714285676e+00,-5.291758534967239232e-06,-1.578748457946042350e-05
3.136507936507936467e+00,-9.338426433764104916e-06,-4.951505588288335235e-05
3.137301587301587258e+00,-1.279790735176944302e-05,-6.847198435664628591e-05
3.138095238095238049e+00,-1.530363076708227211e-05,-7.069438732084957155e-05
3.138888888888888840e+00,-1.668985993471615344e-05,-5.758813357201810905e-05
3.139682539682539630e+00,-1.695216622503894135e-05,-3.324031600171275955e-05
3.140476190476190421e+00,-1.619182001129176684e-05,-3.217672648358381344e-06
3.141269841269841212e+00,-1.457605964587553319e-05,2.674892080810817026e-05
3.142063492063492003e+00,-1.232433893433702836e-05,5.182268899037409155e-05
3.142857142857142794e+00,-9.703597681163074273e-06,6.865715242717246357e-05
3.143650793650793585e+00,-7.006249829535688368e-06,7.553701337669308272e-05
3.144444444444444375e+00,-4.500796648958522685e-06,7.221552885034834596e-05
3.145238095238095166e+00,-2.370840988957783197e-06,5.962722878334488608e-05
3.146031746031745957e+00,-6.708105175340077183e-07,3.959559715177878616e-05
3.146825396825396748e+00,6.810751479954178527e-07,1.457627466400881093e-05
3.147619047619047539e+00,1.869605792231160273e-06,-1.257723415977164741e-05
3.148412698412698330e+00,3.121251177382994743e-06,-3.885499419815876718e-05
3.149206349206349120e+00,4.634304944431874122e-06,-6.135739172456163091e-05
3.149999999999999911e+00,6.519388643761956311e-06,-7.758299258306191617e-05
3.150793650793650702e+00,8.761698226966829271e-06,-8.571484875175171465e-05
3.151587301587301493e+00,1.120643586642372257e-05,-8.487154166849135916e-05
3.152380952380952284e+00,1.356282625658261503e-05,-7.527977110673920698e-05
3.153174603174603075e+00,1.542413408744711220e-05,-5.831485384088296400e-05
3.153968253968253865e+00,1.630922691362307676e-05,-3.635412273411136480e-05
3.154761904761904656e+00,1.573704021183206558e-05,-1.241398500228068605e-05
3.155555555555555447e+00,1.333886171280088184e-05,1.039600439049050758e-05
3.156349206349206238e+00,8.992217447994538162e-06,2.948528632324944193e-05
3.157142857142857029e+00,2.935063424055461128e-06,4.328413600767548695e-05
3.157936507936507819e+00,-4.191966605435964194e-06,5.146945856539819641e-05
3.158730158730158610e+00,-1.141324026536486209e-05,5.483795960545871054e-05
3.159523809523809401e+00,-1.759822168610333253e-05,5.487499045368562380e-05
3.160317460317460192e+00,-2.171351547452594875e-05,5.316938778688861793e-05
3.161111111111110983e+00,-2.307225901235406075e-05,5.086777553381317991e-05
3.161904761904761774e+00,-2.149843330408382277e-05,4.834103322838121140e-05
3.162698412698412564e+00,-1.735273288477261365e-05,4.516581892259379833e-05
3.163492063492063355e+00,-1.142094201060743181e-05,4.042724124250153848e-05
3.164285714285714146e+00,-4.714556906436603865e-06,3.324769280528793298e-05
3.165079365079364937e+00,1.747571724553596731e-06,2.336704570041801354e-05
3.165873015873015728e+00,7.119386340002674901e-06,1.156901413122120627e-05
3.166666666666666519e+00,1.083925602979277390e-05,-2.160200523132430556e-07
3.167460317460317309e+00,1.266887663784687265e-05,-9.209704469823658338e-06
3.168253968253968100e+00,1.267215050121830612e-05,-1.244690941383902631e-05
3.169047619047618891e+00,1.115413680311126736e-05,-7.651619289318362121e-06
3.169841269841269682e+00,8.580978318319849805e-06,5.897642546776385363e-06
3.170634920634920473e+00,5.498103146791820067e-06,2.676992682466624649e-05
3.171428571428571264e+00,2.457188126651779439e-06,5.128125322626555767e-05
3.172222222222222054e+00,-4.518012580073549125e-08,7.401941216860685919e-05
3.173015873015872845e+00,-1.619112846450898612e-06,8.894728530251597425e-05
3.173809523809523636e+00,-2.026026998634918169e-06,9.083193029329942431e-05
3.174603174603174427e+00,-1.216797014070970678e-06,7.659478887926062754e-05
3.175396825396825218e+00,6.396552363410163399e-07,4.616437010003723987e-05
3.176190476190476009e+00,3.144978580947700033e-06,2.561197004800041964e-06
3.176984126984126799e+00,5.689051866795359673e-06,-4.880139750945534731e-05
3.177777777777777590e+00,7.509778639097328946e-06,-1.013636755156198258e-04
3.178571428571428381e+00,7.804053120554152399e-06,-1.488206214009800714e-04
3.179365079365079172e+00,5.887707920440388004e-06,-1.862771520454359396e-04
3.180158730158729963e+00,1.382731434043451316e-06,-2.108862867857573867e-04
3.180952380952380754e+00,-5.614162847432250209e-06,-2.219051897541022395e-04
3.181746031746031544e+00,-1.444418590814806881e-05,-2.202971892735967635e-04
3.182539682539682335e+00,-2.393601968347152330e-05,-2.081090247319726234e-04
3.183333333333333126e+00,-3.261010095079096781e-05,-1.878368197074231497e-04
3.184126984126983917e+00,-3.899723625193657220e-05,-1.619075911602891032e-04
3.184920634920634708e+00,-4.197926414696152544e-05,-1.323199755786532534e-04
3.185714285714285499e+00,-4.104289435441431616e-05,-1.004478601397700872e-04
3.186507936507936289e+00,-3.636811954696367907e-05,-6.700482338677510037e-05
3.187301587301587080e+00,-2.873473781725605869e-05,-3.217167780037260530e-05
3.188095238095238315e+00,-1.929368071155360172e-05,4.113987279440729067e-06
3.188888888888889106e+00,-9.287444318712386308e-06,4.173515298260837181e-05
3.189682539682539897e+00,1.937768445584078124e-07,7.993124887777334770e-05
3.190476190476190688e+00,8.360135539195631650e-06,1.169614043721110120e-04
3.191269841269841478e+00,1.475495415415460353e-05,1.500948245225083237e-04
3.192063492063492269e+00,1.919309261610970812e-05,1.760505611147859795e-04
3.192857142857143060e+00,2.165325138282712586e-05,1.918239715410031748e-04
3.193650793650793851e+00,2.217971735545087137e-05,1.956334633282261974e-04
3.194444444444444642e+00,2.083503022606142657e-05,1.876213478187559592e-04
3.195238095238095433e+00,1.771793189562271786e-05,1.700110450621046781e-04
3.196031746031746223e+00,1.303288770093844224e-05,1.466232602261154994e-04
3.196825396825397014e+00,7.177549295542906703e-06,1.218893773442691105e-04
3.197619047619047805e+00,8.058030539111109232e-07,9.967848108527264234e-05
3.198412698412698596e+00,-5.173879281207109128e-06,8.231774067067713929e-05
3.199206349206349387e+00,-9.691813627019486512e-06,7.011642867806872753e-05
3.200000000000000178e+00,-1.170377280250476884e-05,6.152550092557420506e-05
3.200793650793650968e+00,-1.043834417997333057e-05,5.384331048063696780e-05
3.201587301587301759e+00,-5.640800140215698142e-06,4.420202037025115505e-05
3.202380952380952550e+00,2.264765175180168028e-06,3.050588763853261925e-05
3.203174603174603341e+00,1.216077817200677088e-05,1.205109749287181662e-05
3.203968253968254132e+00,2.239806115730576654e-05,-1.030663730573903607e-05
3.204761904761904923e+00,3.111388523050163870e-05,-3.441899372464885432e-05
3.205555555555555713e+00,3.663793256611154079e-05,-5.741542596680991215e-05
3.206349206349206504e+00,3.788429994725026339e-05,-7.639669438634669955e-05
3.207142857142857295e+00,3.461987686903992509e-05,-8.907925038140384808e-05
3.207936507936508086e+00,2.752653032417528087e-05,-9.425776740833924285e-05
3.208730158730158877e+00,1.803464997463820576e-05,-9.200211256685350732e-05
3.209523809523809668e+00,7.977673515449456473e-06,-8.355833175552641336e-05
3.210317460317460458e+00,-8.308839481808489067e-07,-7.098722750148770376e-05
3.211111111111111249e+00,-6.985894426896745526e-06,-5.664619367117242147e-05
3.211904761904762040e+00,-9.759926715327974506e-06,-4.267281884943193939e-05
3.212698412698412831e+00,-9.211903804860259879e-06,-3.062375499027776262e-05
3.213492063492063622e+00,-6.131098445542433778e-06,-2.134651205292938380e-05
3.214285714285714413e+00,-1.837592561668047691e-06,-1.505279291589543403e-05
3.215079365079365203e+00,2.120916427027849462e-06,-1.148774098576737887e-05
3.215873015873015994e+00,4.318118182729947894e-06,-1.009198680004061235e-05
3.216666666666666785e+00,3.772098595371092698e-06,-1.011280503091541456e-05
3.217460317460317576e+00,1.694056673990626702e-07,-1.068120493753445145e-05
3.218253968253968367e+00,-6.064860857677877865e-06,-1.089517036401435378e-05
3.219047619047619158e+00,-1.387009468837008795e-05,-9.937480953213285418e-06
3.219841269841269948e+00,-2.180030397683850366e-05,-7.232867247302261285e-06
3.220634920634920739e+00,-2.835463710770798359e-05,-2.627903362071658127e-06
3.221428571428571530e+00,-3.230017866731935529e-05,3.447688874900739623e-06
3.222222222222222321e+00,-3.290468150510984785e-05,9.912424787225876136e-06
3.223015873015873112e+00,-3.002767273386626289e-05,1.514782676216758498e-05
3.223809523809523903e+00,-2.406366717424022133e-05,1.734606080975367240e-05
3.224603174603174693e+00,-1.577672645893722853e-05,1.503473639151799177e-05
3.225396825396825484e+00,-6.095829208644307692e-06,7.613826455700319843e-06
3.226190476190476275e+00,4.057158656516451913e-06,-4.292607191164706116e-06
3.226984126984127066e+00,1.386254291845586115e-05,-1.879953302145380509e-05
3.227777777777777857e+00,2.261989810042647382e-05,-3.305564079055076950e-05
3.228571428571428648e+00,2.972353617592946083e-05,-4.379597642195972852e-05
3.229365079365079438e+00,3.464739244954264627e-05,-4.803107184761933355e-05
3.230158730158730229e+00,3.697730665752024077e-05,-4.372966899391504165e-05
3.230952380952381020e+00,3.649286605635727399e-05,-3.034805655532185227e-05
3.231746031746031811e+00,3.325880617436709614e-05,-9.079335669091164617e-06
3.232539682539682602e+00,2.766367207158555722e-05,1.725475149126229631e-05
3.233333333333333393e+00,2.036120324252263847e-05,4.467308560206142021e-05
3.234126984126984183e+00,1.212135790790969601e-05,6.878121423989865305e-05
3.234920634920634974e+00,3.650600327373906873e-06,8.562792023978985903e-05
3.235714285714285765e+00,-4.538887411314512690e-06,9.246415031437271205e-05
