Timestamp,Flexor carpi radialis,Extensor digitorum
2.000000000000000000e+00,1.802103673499225799e-05,-5.783834275751014321e-05
2.000793650793650791e+00,2.160695134553654114e-05,-4.753715484824952068e-05
2.001587301587301582e+00,1.888117187747434788e-05,-4.297310431334877442e-05
2.002380952380952372e+00,1.020817880681353738e-05,-4.493897477554581959e-05
2.003174603174603163e+00,-2.446576665511019166e-06,-5.147312200080582687e-05
2.003968253968253954e+00,-1.620019123843600354e-05,-5.836879763391595547e-05
2.004761904761904745e+00,-2.819777618995534174e-05,-6.053812629100811669e-05
2.005555555555555536e+00,-3.646269792964927225e-05,-5.375602645832859545e-05
2.006349206349206327e+00,-4.034086204600539650e-05,-3.619427860315983558e-05
2.007142857142857117e+00,-4.040260974907764895e-05,-9.238786650669534675e-06
2.007936507936507908e+00,-3.789397634791688004e-05,2.268881524732854150e-05
2.008730158730158699e+00,-3.401044158446961429e-05,5.327284778144954886e-05
2.009523809523809490e+00,-2.932147823521418192e-05,7.605911363141409063e-05
2.010317460317460281e+00,-2.358557160405020352e-05,8.626462621554427607e-05
2.011111111111111072e+00,-1.601429831951775955e-05,8.207868709272731422e-05
2.011904761904761862e+00,-5.856674410147722019e-06,6.509589364494866234e-05
2.012698412698412653e+00,6.947062739564367453e-06,3.982343872340335849e-05
2.013492063492063444e+00,2.131791749398970410e-05,1.247471655240534855e-05
2.014285714285714235e+00,3.500253002650777185e-05,-1.057898181990540714e-05
2.015079365079365026e+00,4.501550115717247819e-05,-2.429290849941645092e-05
2.015873015873015817e+00,4.845864726093260488e-05,-2.603347558066593963e-05
2.016666666666666607e+00,4.347284672871669576e-05,-1.606006192239640837e-05
2.017460317460317398e+00,3.000514404172618683e-05,2.651047089623371502e-06
2.018253968253968189e+00,1.010256524567261921e-05,2.516967275436851590e-05
2.019047619047618980e+00,-1.242114825046235704e-05,4.579269648301296424e-05
2.019841269841269771e+00,-3.289376766058884212e-05,5.939084026873631703e-05
2.020634920634920562e+00,-4.700875652160340653e-05,6.260978665190624964e-05
2.021428571428571352e+00,-5.197968978723911237e-05,5.462061233736063560e-05
2.022222222222222143e+00,-4.725060973370349900e-05,3.721984083052374832e-05
2.023015873015872934e+00,-3.454070294195449336e-05,1.426252348185646315e-05
2.023809523809523725e+00,-1.723409805941389220e-05,-9.396322037883548893e-06
2.024603174603174516e+00,6.584951786629244121e-07,-2.914591786044312688e-05
2.025396825396825307e+00,1.561810609686958658e-05,-4.170606630754810593e-05
2.026190476190476097e+00,2.546867421983973191e-05,-4.576371031071405109e-05
2.026984126984126888e+00,2.972220410407492712e-05,-4.199873269507548295e-05
2.027777777777777679e+00,2.935528386715527554e-05,-3.253575820939856518e-05
2.028571428571428470e+00,2.614624773936409131e-05,-2.006820654134151976e-05
2.029365079365079261e+00,2.184948655636105851e-05,-7.017242086488195815e-06
2.030158730158730052e+00,1.753188040396536004e-05,4.964230681235704347e-06
2.030952380952380842e+00,1.332191171514217588e-05,1.502160374067443379e-05
2.031746031746031633e+00,8.647803065417129025e-06,2.275614355604719724e-05
2.032539682539682424e+00,2.833311518287611419e-06,2.774683117989250311e-05
2.033333333333333215e+00,-4.236696949347649714e-06,2.921045075149846011e-05
2.034126984126984006e+00,-1.170541564195116048e-05,2.601032881251718533e-05
2.034920634920634797e+00,-1.780795085488863183e-05,1.707431587700442325e-05
2.035714285714285587e+00,-2.042420335846736372e-05,2.079229642436373682e-06
2.036507936507936378e+00,-1.791711947348140923e-05,-1.791514062504657759e-05
2.037301587301587169e+00,-9.919897733526447729e-06,-4.023138463083899402e-05
2.038095238095237960e+00,2.254244527003145250e-06,-6.093208983605964441e-05
2.038888888888888751e+00,1.576502081150737956e-05,-7.570065142279355243e-05
2.039682539682539542e+00,2.694084595602658656e-05,-8.095233158398656623e-05
2.040476190476190332e+00,3.230765188649220240e-05,-7.479544079345695621e-05
2.041269841269841123e+00,2.962518728310664426e-05,-5.752906434845384296e-05
2.042063492063491914e+00,1.859558615663917070e-05,-3.154144245101451479e-05
2.042857142857142705e+00,1.011172167787424797e-06,-6.855557184973831835e-07
2.043650793650793496e+00,-1.970604160467369318e-05,3.062842821729976653e-05
2.044444444444444287e+00,-3.941652287861628303e-05,5.833032645524708406e-05
2.045238095238095077e+00,-5.432664758334657411e-05,7.934752273730543868e-05
2.046031746031745868e+00,-6.187470882716230062e-05,9.192709818560026427e-05
2.046825396825396659e+00,-6.120023712800869967e-05,9.565001341871289854e-05
2.047619047619047450e+00,-5.311654807342930997e-05,9.122614239842075643e-05
2.048412698412698241e+00,-3.966889525663018864e-05,8.016750803090611432e-05
2.049206349206349032e+00,-2.347322485288615818e-05,6.443311851251550004e-05
2.049999999999999822e+00,-7.065881679619145200e-06,4.613313006913203994e-05
2.050793650793650613e+00,7.549586344834319949e-06,2.734508831882520439e-05
2.051587301587301404e+00,1.907430558055031898e-05,1.002346449999927432e-05
2.052380952380952195e+00,2.683883155574377097e-05,-4.074668052118359168e-06
2.053174603174602986e+00,3.060373968482885489e-05,-1.351740378562809359e-05
2.053968253968253777e+00,3.038511371528747592e-05,-1.738724069966334081e-05
2.054761904761904567e+00,2.640998298383372879e-05,-1.547869087988048924e-05
2.055555555555555358e+00,1.921427245415848010e-05,-8.422759240418172132e-06
2.056349206349206149e+00,9.798279974928627049e-06,2.337166726079165438e-06
2.057142857142856940e+00,-3.008299352691941681e-07,1.475545442070330824e-05
2.057936507936507731e+00,-9.143970290817134849e-06,2.655578731233654023e-05
2.058730158730158522e+00,-1.477106054458094680e-05,3.567692119877774286e-05
2.059523809523809312e+00,-1.574509220815421752e-05,4.066931481327969942e-05
2.060317460317460103e+00,-1.167507247079108104e-05,4.092608255612935976e-05
2.061111111111110894e+00,-3.504483708878330235e-06,3.668381228547794911e-05
2.061904761904761685e+00,6.585142801910971653e-06,2.881081352749361097e-05
2.062698412698412920e+00,1.567737363126697693e-05,1.847714474423070655e-05
2.063492063492063711e+00,2.091327477727316435e-05,6.833465650134059482e-06
2.064285714285714501e+00,2.035468274889771665e-05,-5.201365739381287854e-06
2.065079365079365292e+00,1.366242701794851502e-05,-1.701122962684151153e-05
2.065873015873016083e+00,2.366260548490114165e-06,-2.824520311920093081e-05
2.066666666666666874e+00,-1.039664908827399133e-05,-3.873403796043588666e-05
2.067460317460317665e+00,-2.064760125543704052e-05,-4.841061730210849704e-05
2.068253968253968456e+00,-2.464892574676573941e-05,-5.725146971701827639e-05
2.069047619047619246e+00,-1.999920119224418940e-05,-6.522954019885503045e-05
2.069841269841270037e+00,-6.411677808727565647e-06,-7.225855162647651039e-05
2.070634920634920828e+00,1.407192195127338963e-05,-7.811602538503132557e-05
2.071428571428571619e+00,3.751454225251247789e-05,-8.235521426448232996e-05
2.072222222222222410e+00,5.905194351923061442e-05,-8.424843484709975880e-05
2.073015873015873201e+00,7.412604634239944247e-05,-8.282047170413242934e-05
2.073809523809523991e+00,7.963980278493646878e-05,-7.700734241804723474e-05
2.074603174603174782e+00,7.471576323243832860e-05,-6.592227983581949811e-05
2.075396825396825573e+00,6.085258480188089749e-05,-4.916662895114508151e-05
2.076190476190476364e+00,4.143826769087355572e-05,-2.711638398710219171e-05
2.076984126984127155e+00,2.075308775243703345e-05,-1.129801566883622582e-06
2.077777777777777946e+00,2.740133978692943298e-06,2.638170436396418864e-05
2.078571428571428736e+00,-1.009749459409582904e-05,5.210522163965527472e-05
2.079365079365079527e+00,-1.733157075273512380e-05,7.228806390546141760e-05
2.080158730158730318e+00,-2.056633052519193556e-05,8.351447930063202088e-05
2.080952380952381109e+00,-2.272167179785270017e-05,8.364578942866363661e-05
2.081746031746031900e+00,-2.686655243864772443e-05,7.262951011916618591e-05
2.082539682539682691e+00,-3.498681215348009457e-05,5.285104386941498342e-05
2.083333333333333481e+00,-4.711313278395629642e-05,2.881482068375992533e-05
2.084126984126984272e+00,-6.112720102784818940e-05,6.153509824068958321e-06
2.084920634920635063e+00,-7.332786088616603576e-05,-9.815483547080487624e-06
2.085714285714285854e+00,-7.955660257502497439e-05,-1.561556312474728772e-05
2.086507936507936645e+00,-7.646663947102608141e-05,-1.080118525646083919e-05
2.087301587301587436e+00,-6.246890053140057410e-05,1.548646158125027807e-06
2.088095238095238226e+00,-3.803867449771175654e-05,1.525432253186222564e-05
2.088888888888889017e+00,-5.365974649625107565e-06,2.239185081418737592e-05
2.089682539682539808e+00,3.235268239818681751e-05,1.535486821542063798e-05
2.090476190476190599e+00,7.151647304671228638e-05,-1.082927965247219896e-05
2.091269841269841390e+00,1.082552433399651209e-04,-5.652467886821313915e-05
2.092063492063492181e+00,1.381088936815394290e-04,-1.164543374497191755e-04
2.092857142857142971e+00,1.557149831160626187e-04,-1.800503462466318289e-04
2.093650793650793762e+00,1.551783528145950686e-04,-2.333081449954902201e-04
2.094444444444444553e+00,1.315281827622176100e-04,-2.618494151772248813e-04
2.095238095238095344e+00,8.299528109019803411e-05,-2.544964875440480453e-04
2.096031746031746135e+00,1.316372298505200497e-05,-2.064118668892019558e-04
2.096825396825396925e+00,-6.817583424634816728e-05,-1.208737740734259152e-04
2.097619047619047716e+00,-1.462415640236013406e-04,-9.088378711710157982e-06
2.098412698412698507e+00,-2.044962671655023694e-04,1.119865901221700239e-04
2.099206349206349298e+00,-2.290261892400984305e-04,2.232133719331484700e-04
2.100000000000000089e+00,-2.126811413857415125e-04,3.072396759258695870e-04
2.100793650793650880e+00,-1.575756343616971724e-04,3.518211794770611340e-04
2.101587301587301670e+00,-7.502987004630644688e-05,3.517689930440857883e-04
2.102380952380952461e+00,1.713579388823327729e-05,3.092615950906017611e-04
2.103174603174603252e+00,9.915854161252711367e-05,2.327083108563189390e-04
2.103968253968254043e+00,1.543761253353780223e-04,1.346540920488078954e-04
2.104761904761904834e+00,1.733080758752468151e-04,2.933358862350288066e-05
2.105555555555555625e+00,1.556773190158947356e-04,-6.956950032892528755e-05
2.106349206349206415e+00,1.098799132824874195e-04,-1.505835854713352359e-04
2.107142857142857206e+00,5.012987601342234524e-05,-2.054068213142118090e-04
2.107936507936507997e+00,-7.801677316436009013e-06,-2.292674739814973739e-04
2.108730158730158788e+00,-5.089550530217990638e-05,-2.209110999847592547e-04
2.109523809523809579e+00,-7.193363755182646758e-05,-1.824067294281950659e-04
2.110317460317460370e+00,-7.054282541860942878e-05,-1.188369666360879987e-04
2.111111111111111160e+00,-5.227765984234314649e-05,-3.781858366121911030e-05
2.111904761904761951e+00,-2.640441531173693914e-05,5.123487562933704128e-05
2.112698412698412742e+00,-3.240545239316148302e-06,1.381399238478269744e-04
2.113492063492063533e+00,8.271352295318464457e-06,2.131753979774355843e-04
2.114285714285714324e+00,2.385206761494929304e-06,2.683135730520283058e-04
2.115079365079365115e+00,-2.236693610752876868e-05,2.981781158661081749e-04
2.115873015873015905e+00,-6.286890846013277177e-05,3.005016258113920756e-04
2.116666666666666696e+00,-1.119018247358038591e-04,2.760051812105536809e-04
2.117460317460317487e+00,-1.593897704730426403e-04,2.278079714130909809e-04
2.118253968253968278e+00,-1.942840088184394397e-04,1.606140957296690148e-04
2.119047619047619069e+00,-2.068002700886398064e-04,7.996482492677285539e-05
2.119841269841269860e+00,-1.905821052062844792e-04,-8.221687960597430061e-06
2.120634920634920650e+00,-1.443229966489824778e-04,-9.774997359515669951e-05
2.121428571428571441e+00,-7.246966948460528625e-05,-1.819941492906774420e-04
2.122222222222222232e+00,1.518929871788230668e-05,-2.537519828936391224e-04
2.123015873015873023e+00,1.050411644272105077e-04,-3.054262547970551718e-04
2.123809523809523814e+00,1.820844396072450293e-04,-3.297799223693175766e-04
2.124603174603174605e+00,2.329254588858720469e-04,-3.213049528155335162e-04
2.125396825396825395e+00,2.487842888994069965e-04,-2.779601578981575499e-04
2.126190476190476186e+00,2.277716616351090171e-04,-2.027680836009679256e-04
2.126984126984126977e+00,1.756809570090791053e-04,-1.046262575493358865e-04
2.127777777777777768e+00,1.048486611266290518e-04,2.228311749860379716e-06
2.128571428571428559e+00,3.123499906643113273e-05,1.003349454153806039e-04
2.129365079365079350e+00,-2.949636697313046227e-05,1.724306089767605669e-04
2.130158730158730140e+00,-6.576433007050470360e-05,2.053735334703570416e-04
2.130952380952380931e+00,-7.264527305657650185e-05,1.934474602650347369e-04
2.131746031746031722e+00,-5.257156339789092369e-05,1.400092215423837702e-04
2.132539682539682513e+00,-1.406749583350651894e-05,5.693740282412507013e-05
2.133333333333333304e+00,3.100852245672668377e-05,-3.797205169138823203e-05
2.134126984126984095e+00,7.085454763802720760e-05,-1.249327568666966110e-04
2.134920634920634885e+00,9.674758363992020705e-05,-1.863918570048792511e-04
2.135714285714285676e+00,1.048543304880019647e-04,-2.105450470162672063e-04
2.136507936507936467e+00,9.640222417696712662e-05,-1.934027338781437637e-04
2.137301587301587258e+00,7.631868253263493984e-05,-1.390821342847994337e-04
2.138095238095238049e+00,5.092732230392279028e-05,-5.844980494076097987e-05
2.138888888888888840e+00,2.557778402003486746e-05,3.339638841937400628e-05
2.139682539682539630e+00,3.086682296395996128e-06,1.201324525807569908e-04
2.140476190476190421e+00,-1.646908157243277292e-05,1.870507252262793322e-04
2.141269841269841212e+00,-3.466422684387502246e-05,2.232675141758268906e-04
2.142063492063492003e+00,-5.299620325064027538e-05,2.230572202241523389e-04
2.142857142857142794e+00,-7.143286647923660355e-05,1.862818092122069547e-04
2.143650793650793585e+00,-8.794182743896790573e-05,1.180350471113684129e-04
2.144444444444444375e+00,-9.917376557355224627e-05,2.771277865021709314e-05
2.145238095238095166e+00,-1.019263788336491019e-04,-7.225669893391780253e-05
2.146031746031745957e+00,-9.469746616232784658e-05,-1.678484879620275379e-04
2.146825396825396748e+00,-7.862382278408173422e-05,-2.449838397283153613e-04
2.147619047619047539e+00,-5.735787500606100197e-05,-2.912042527027660331e-04
2.148412698412698330e+00,-3.586162694770385671e-05,-2.974727391763109401e-04
2.149206349206349120e+00,-1.855531765487453602e-05,-2.599441186450539222e-04
2.149999999999999911e+00,-7.559885833430833983e-06,-1.813384508592782063e-04
2.150793650793650702e+00,-1.766874074615928213e-06,-7.141724048664273630e-05
2.151587301587301493e+00,2.849071180027592548e-06,5.387574226268958738e-05
2.152380952380952284e+00,1.173909278831409302e-05,1.747454214316031241e-04
2.153174603174603075e+00,2.960714519442041726e-05,2.710271242146578387e-04
2.153968253968253865e+00,5.828794200502498870e-05,3.260681523354144610e-04
2.154761904761904656e+00,9.539569085322022960e-05,3.300535984509820947e-04
2.155555555555555447e+00,1.342336686678897084e-04,2.819521007422121799e-04
2.156349206349206238e+00,1.650924254087480884e-04,1.896759221167371233e-04
2.157142857142857029e+00,1.776703181039412981e-04,6.856087537239201227e-05
2.157936507936507819e+00,1.640127620854706580e-04,-6.134872065022543050e-05
2.158730158730158610e+00,1.211549582018225333e-04,-1.785914013569058791e-04
2.159523809523809401e+00,5.263076675310918184e-05,-2.636102242151969243e-04
2.160317460317460192e+00,-3.175613490615458533e-05,-3.017103438120651991e-04
2.161111111111110983e+00,-1.180002480741880043e-04,-2.853740046702187699e-04
2.161904761904761774e+00,-1.912637873622015892e-04,-2.156863970532419913e-04
2.162698412698412564e+00,-2.395066311419051031e-04,-1.026020796177676107e-04
2.163492063492063355e+00,-2.562207572737118196e-04,3.620092840923554985e-05
2.164285714285714146e+00,-2.414535393641223013e-04,1.779569779025996919e-04
2.165079365079364937e+00,-2.009465253815965688e-04,2.986493861544881664e-04
2.165873015873015728e+00,-1.438787453087451746e-04,3.773310003854480309e-04
2.166666666666666519e+00,-8.011615804490065636e-05,3.999650192465225716e-04
2.167460317460317309e+00,-1.789931355925827606e-05,3.619257610921108588e-04
2.168253968253968100e+00,3.740092923154081562e-05,2.687013141202305739e-04
2.169047619047618891e+00,8.329576006686884005e-05,1.348134459973585769e-04
2.169841269841269682e+00,1.192403106074472232e-04,-1.869497047044761580e-05
2.170634920634920473e+00,1.453190189093195674e-04,-1.677108098837526234e-04
2.171428571428571264e+00,1.611989231021440237e-04,-2.889179166586942882e-04
2.172222222222222054e+00,1.658246280327723972e-04,-3.635600497583900848e-04
2.173015873015872845e+00,1.579590481365337638e-04,-3.805736443321026908e-04
2.173809523809523636e+00,1.372460583534380689e-04,-3.385668334406919462e-04
2.174603174603174427e+00,1.051985821391553263e-04,-2.461840328766649725e-04
2.175396825396825218e+00,6.555137210125023986e-05,-1.205960640205986864e-04
2.176190476190476009e+00,2.373163508341438231e-05,1.576235721900020158e-05
2.176984126984126799e+00,-1.439050540910937582e-05,1.395944807394572135e-04
2.177777777777777590e+00,-4.400341882546274041e-05,2.312649751179448460e-04
2.178571428571428381e+00,-6.254519039607590424e-05,2.783255557466389777e-04
2.179365079365079172e+00,-7.015087949875935432e-05,2.772141922636925620e-04
2.180158730158729963e+00,-6.920917264390425306e-05,2.328789862840137718e-04
2.180952380952380754e+00,-6.321829417614229819e-05,1.567057936104791836e-04
2.181746031746031544e+00,-5.538972749711443776e-05,6.355526588133310133e-05
2.182539682539682335e+00,-4.753117318391715426e-05,-3.120231651779948213e-05
2.183333333333333126e+00,-3.962493237801664357e-05,-1.140059097949627320e-04
2.184126984126983917e+00,-3.025727625408229139e-05,-1.745275714637302910e-04
2.184920634920634708e+00,-1.773208812670734995e-05,-2.063078191481420871e-04
2.185714285714285499e+00,-1.412043832145605348e-06,-2.068848128067271770e-04
2.186507936507936289e+00,1.731247982593624651e-05,-1.776737510006140639e-04
2.187301587301587080e+00,3.492168683838136267e-05,-1.236920329384817295e-04
2.188095238095238315e+00,4.667554309329757041e-05,-5.305112630733179211e-05
2.188888888888889106e+00,4.822538640531652315e-05,2.392761491256142119e-05
2.189682539682539897e+00,3.728595065444696070e-05,9.602189171353243513e-05
2.190476190476190688e+00,1.468029399739060586e-05,1.527105564891595966e-04
2.191269841269841478e+00,-1.566230274753981650e-05,1.857907238833781749e-04
2.192063492063492269e+00,-4.773209283292444941e-05,1.906833588029609790e-04
2.192857142857143060e+00,-7.506947830313373538e-05,1.671450428067970337e-04
2.193650793650793851e+00,-9.240719647735966204e-05,1.192203336043662728e-04
2.194444444444444642e+00,-9.680854859023363640e-05,5.443922978827895899e-05
2.195238095238095433e+00,-8.803086179703172270e-05,-1.755696476191129243e-05
2.196031746031746223e+00,-6.813488051628763091e-05,-8.665332437997585449e-05
2.196825396825397014e+00,-4.059652393521111631e-05,-1.438228491729357373e-04
2.197619047619047805e+00,-9.293230405238244417e-06,-1.823311286303387613e-04
2.198412698412698596e+00,2.228406062149236586e-05,-1.984216475637433808e-04
2.199206349206349387e+00,5.137918692244233831e-05,-1.914553165261183743e-04
2.200000000000000178e+00,7.587234615962422065e-05,-1.635948529883412617e-04
2.200793650793650968e+00,9.393421184660151208e-05,-1.191974381522276658e-04
2.201587301587301759e+00,1.037464826996999594e-04,-6.409285862643466396e-05
2.202380952380952550e+00,1.035576108787297875e-04,-4.880620816258363293e-06
2.203174603174603341e+00,9.214607673166082865e-05,5.169563234088380961e-05
2.203968253968254132e+00,6.951483682109624860e-05,9.930607724087957332e-05
2.204761904761904923e+00,3.747555853138913751e-05,1.325690211682699609e-04
2.205555555555555713e+00,-2.106943909441419982e-07,1.475994368499587890e-04
2.206349206349206504e+00,-3.829735238462841749e-05,1.425677101672359636e-04
2.207142857142857295e+00,-7.103763606384877179e-05,1.181983268260446981e-04
2.207936507936508086e+00,-9.340706897507121463e-05,7.806689453756475710e-05
2.208730158730158877e+00,-1.021994414207275277e-04,2.850639827236027278e-05
2.209523809523809668e+00,-9.668957152980790467e-05,-2.205311088369084051e-05
2.210317460317460458e+00,-7.870877279732848241e-05,-6.438257520836574192e-05
2.211111111111111249e+00,-5.215568962147189790e-05,-9.026598117121537826e-05
2.211904761904762040e+00,-2.210101047037713962e-05,-9.446471995850460647e-05
2.212698412698412831e+00,6.288549983764641798e-06,-7.628227620418590537e-05
2.213492063492063622e+00,2.877149488805863314e-05,-4.014700541159865299e-05
2.214285714285714413e+00,4.278698814497446210e-05,5.160226980572545345e-06
2.215079365079365203e+00,4.778965478174077627e-05,4.858573655701935900e-05
2.215873015873015994e+00,4.510387189502244686e-05,7.966365945224126717e-05
2.216666666666666785e+00,3.735939317390651735e-05,9.130508995032638332e-05
2.217460317460317576e+00,2.768236069668515310e-05,8.164285632451031291e-05
2.218253968253968367e+00,1.887766990379032695e-05,5.436317887505049459e-05
2.219047619047619158e+00,1.282461041062048664e-05,1.746029109114007247e-05
2.219841269841269948e+00,1.022048775768112987e-05,-1.914819435688691482e-05
2.220634920634920739e+00,1.068171352606148261e-05,-4.638952445201886728e-05
2.221428571428571530e+00,1.310070362863702618e-05,-5.837865680813429095e-05
2.222222222222222321e+00,1.610038557990992126e-05,-5.371480373362141317e-05
2.223015873015873112e+00,1.843623447746773350e-05,-3.545726006692126854e-05
2.223809523809523903e+00,1.925010456223147628e-05,-9.905383051682506635e-06
2.224603174603174693e+00,1.815013978098856958e-05,1.535454730550347817e-05
2.225396825396825484e+00,1.515043061871928739e-05,3.350274270180090359e-05
2.226190476190476275e+00,1.053738259177081625e-05,4.006055980848075270e-05
2.226984126984127066e+00,4.732266027201925134e-06,3.364558262782627469e-05
2.227777777777777857e+00,-1.802753739717795549e-06,1.586619880651978339e-05
2.228571428571428648e+00,-8.600149565650838256e-06,-9.447537868507365437e-06
2.229365079365079438e+00,-1.517715461164576090e-05,-3.735714255424540763e-05
2.230158730158730229e+00,-2.100974314862170950e-05,-6.293488801621271880e-05
2.230952380952381020e+00,-2.552348065570583880e-05,-8.211550687787255612e-05
2.231746031746031811e+00,-2.812714057925642350e-05,-9.214225811207461434e-05
2.232539682539682602e+00,-2.829928288493668503e-05,-9.164118179301418074e-05
2.233333333333333393e+00,-2.571677488987706944e-05,-8.049264007008306409e-05
2.234126984126984183e+00,-2.039157977003308068e-05,-5.969359987530279158e-05
2.234920634920634974e+00,-1.276460074544991361e-05,-3.130433484250854867e-05
2.235714285714285765e+00,-3.703892757147763313e-06,1.583797765779983963e-06
2.236507936507936556e+00,5.620549419040768996e-06,3.503095573219260051e-05
2.237301587301587347e+00,1.396552765846465910e-05,6.473249611463108267e-05
2.238095238095238138e+00,2.027977797228530053e-05,8.680104505477860425e-05
2.238888888888888928e+00,2.391953512330460480e-05,9.864124752993379882e-05
2.239682539682539719e+00,2.474823713172115769e-05,9.958847377151238734e-05
2.240476190476190510e+00,2.309909968799204994e-05,9.103331256488950563e-05
2.241269841269841301e+00,1.962654818212215032e-05,7.596231319335559732e-05
2.242063492063492092e+00,1.510419314320477314e-05,5.809125175048934818e-05
2.242857142857142883e+00,1.023571852038285672e-05,4.091110793642125694e-05
2.243650793650793673e+00,5.531488134823634346e-06,2.694824470032208821e-05
2.244444444444444464e+00,1.274584325203200704e-06,1.740342200708670822e-05
2.245238095238095255e+00,-2.433361588971449239e-06,1.217602259776340252e-05
2.246031746031746046e+00,-5.581495703320375840e-06,1.017411293610741907e-05
2.246825396825396837e+00,-8.158290324499049303e-06,9.773980407763439805e-06
2.247619047619047628e+00,-1.009550131200376405e-05,9.301150828887522732e-06
2.248412698412698418e+00,-1.126451497843580122e-05,7.431562990111812507e-06
2.249206349206349209e+00,-1.152001750445813195e-05,3.445097107171759693e-06
2.250000000000000000e+00,-1.076855002839822672e-05,-2.697124385325802990e-06
2.250793650793650791e+00,-9.031561506563697011e-06,-1.043909286868937354e-05
2.251587301587301582e+00,-6.475868943087604180e-06,-1.883328445977794832e-05
2.252380952380952372e+00,-3.397586223528470191e-06,-2.679557878733482531e-05
2.253174603174603163e+00,-1.634628887140206140e-07,-3.334624077110070453e-05
2.253968253968253954e+00,2.871015908464590181e-06,-3.778859800533101586e-05
2.254761904761904745e+00,5.439919775897568257e-06,-3.980375564696307753e-05
2.255555555555555536e+00,7.416524347234440476e-06,-3.946464711672425396e-05
2.256349206349206327e+00,8.818818795408008837e-06,-3.718671320218712006e-05
2.257142857142857117e+00,9.769677470237543235e-06,-3.363385079388688805e-05
2.257936507936507908e+00,1.042553530708232973e-05,-2.959313409164027702e-05
2.258730158730158699e+00,1.089789595642055485e-05,-2.582883029198729802e-05
2.259523809523809490e+00,1.119368630349609878e-05,-2.293003743051288807e-05
2.260317460317460281e+00,1.119345376917747200e-05,-2.117517143207267951e-05
2.261111111111111072e+00,1.067512153401485024e-05,-2.044458362060968772e-05
2.261904761904761862e+00,9.379886274247880535e-06,-2.021319265068778577e-05
2.262698412698412653e+00,7.106994988261910128e-06,-1.964402225018136957e-05
2.263492063492063444e+00,3.815083818971466818e-06,-1.778097082000081836e-05
2.264285714285714235e+00,-2.988964544773131881e-07,-1.380982329776909535e-05
2.265079365079365026e+00,-4.771975301197664760e-06,-7.329802819390392256e-06
2.265873015873015817e+00,-8.916891426988058156e-06,1.435436299578794464e-06
2.266666666666666607e+00,-1.193205470766458522e-05,1.155235330203467238e-05
2.267460317460317398e+00,-1.305727324350803082e-05,2.145859366878199114e-05
2.268253968253968189e+00,-1.173797038534890275e-05,2.921642906245964675e-05
2.269047619047618980e+00,-7.757853832390301034e-06,3.290450694670664085e-05
2.269841269841269771e+00,-1.310111785467019067e-06,3.107374860958485671e-05
2.270634920634920562e+00,7.004131585508443495e-06,2.316016660944304745e-05
2.271428571428571352e+00,1.624196272728278416e-05,9.736366082701512753e-06
2.272222222222222143e+00,2.522859490211270926e-05,-7.488344522402335022e-06
2.273015873015872934e+00,3.268784325554389058e-05,-2.594075221398763032e-05
2.273809523809523725e+00,3.737645185816052375e-05,-4.266785460266141379e-05
2.274603174603174516e+00,3.821562396227735328e-05,-5.491124333725516140e-05
2.275396825396825307e+00,3.442003767443486674e-05,-6.063594315332496176e-05
2.276190476190476097e+00,2.562347176528505913e-05,-5.889949067311738468e-05
2.276984126984126888e+00,1.199023556887827602e-05,-4.998468149377716953e-05
2.277777777777777679e+00,-5.712681814955027796e-06,-3.526482380439026392e-05
2.278571428571428470e+00,-2.611788005610071468e-05,-1.682976658237509700e-05
2.279365079365079261e+00,-4.736511991426931489e-05,3.025914493639548906e-06
2.280158730158730052e+00,-6.732092650135160401e-05,2.229152154118233236e-05
2.280952380952380842e+00,-8.387909212020909922e-05,3.954354678747431780e-05
2.281746031746031633e+00,-9.527717820507821951e-05,5.398307475095163896e-05
2.282539682539682424e+00,-1.003523126510033305e-04,6.525742347420855551e-05
2.283333333333333215e+00,-9.867560160196311070e-05,7.321544059401902864e-05
2.284126984126984006e+00,-9.054084146895144056e-05,7.774409933941636513e-05
2.284920634920634797e+00,-7.682582744777031959e-05,7.873416769149704970e-05
2.285714285714285587e+00,-5.877871533831930572e-05,7.610459000069718510e-05
2.286507936507936378e+00,-3.779643539356742683e-05,6.977275311735067732e-05
2.287301587301587169e+00,-1.525357532313542988e-05,5.952206695186101725e-05
2.288095238095237960e+00,7.586148238298783202e-06,4.483493999739633867e-05
2.288888888888888751e+00,2.957706210979564070e-05,2.483954326362058617e-05
2.289682539682539542e+00,4.964793332134661386e-05,-1.489500857411721674e-06
2.290476190476190332e+00,6.675485285193619959e-05,-3.482609405436783845e-05
2.291269841269841123e+00,7.987712809825340740e-05,-7.476424407737002759e-05
2.292063492063491914e+00,8.808489379918107629e-05,-1.190746648104658523e-04
2.292857142857142705e+00,9.067774386858544835e-05,-1.632345916384616679e-04
2.293650793650793496e+00,8.736173490246622612e-05,-2.005136571677732524e-04
2.294444444444444287e+00,7.840813957618136777e-05,-2.227887640343912236e-04
2.295238095238095077e+00,6.473079706657247872e-05,-2.220586646818391307e-04
2.296031746031745868e+00,4.783451703638611359e-05,-1.923867249971337632e-04
2.296825396825396659e+00,2.962148614031508628e-05,-1.318030971718570120e-04
2.297619047619047450e+00,1.208525468880274254e-05,-4.362989002267299825e-05
2.298412698412698241e+00,-3.041360976511055328e-06,6.320948312773663964e-05
2.299206349206349032e+00,-1.459934045057671351e-05,1.751119292370683798e-04
2.299999999999999822e+00,-2.219798415373093979e-05,2.758922614293122470e-04
2.300793650793650613e+00,-2.624033052082809996e-05,3.497362605517031651e-04
2.301587301587301404e+00,-2.777244163591798191e-05,3.844366693138917893e-04
2.302380952380952195e+00,-2.819389781569155558e-05,3.741403597558614594e-04
2.303174603174602986e+00,-2.889851814681844381e-05,3.208119207700263075e-04
2.303968253968253777e+00,-3.092562053032608369e-05,2.338959817541234410e-04
2.304761904761904567e+00,-3.469352609485829844e-05,1.282027459276558552e-04
2.305555555555555358e+00,-3.986546027951403905e-05,2.061509898652919709e-05
2.306349206349206149e+00,-4.537219863073745335e-05,-7.345267084486293717e-05
2.307142857142856940e+00,-4.959106170673139267e-05,-1.429415390434838663e-04
2.307936507936507731e+00,-5.065731930292847118e-05,-1.827762180668160148e-04
2.308730158730158522e+00,-4.686018510347894010e-05,-1.940252933184493495e-04
2.309523809523809312e+00,-3.705446813500250469e-05,-1.827293067676599042e-04
2.310317460317460103e+00,-2.100931013152951521e-05,-1.577808256751116124e-04
2.311111111111110894e+00,3.770063962422358206e-07,-1.283993476603499326e-04
2.311904761904761685e+00,2.504702054729512000e-05,-1.018198405089006066e-04
2.312698412698412920e+00,4.996594945846931141e-05,-8.177236609988059737e-05
2.313492063492063711e+00,7.151809349381159874e-05,-6.813267628735267484e-05
2.314285714285714501e+00,8.609017604804944032e-05,-5.779091945899764827e-05
2.315079365079365292e+00,9.077201755402196110e-05,-4.641186801430373805e-05
2.315873015873016083e+00,8.405341155585042392e-05,-3.047283067264547484e-05
2.316666666666666874e+00,6.635224785438391252e-05,-8.876767409905034496e-06
2.317460317460317665e+00,4.020135065774114899e-05,1.640196728053896509e-05
2.318253968253968456e+00,9.971734183121446502e-06,4.082299005455015299e-05
2.319047619047619246e+00,-1.888411579123633444e-05,5.870397709776497251e-05
2.319841269841270037e+00,-4.094881658556407517e-05,6.502717848672106204e-05
2.320634920634920828e+00,-5.206689698051184505e-05,5.701328796301727330e-05
2.321428571428571619e+00,-5.035469824872999378e-05,3.499667835651995850e-05
2.322222222222222410e+00,-3.668583353426077711e-05,2.418067417934669570e-06
2.323015873015873201e+00,-1.448124663724042356e-05,-3.496047057860019304e-05
2.323809523809523991e+00,1.114928712495081525e-05,-7.031516648861787513e-05
2.324603174603174782e+00,3.465617203792046436e-05,-9.713281647320754278e-05
2.325396825396825573e+00,5.131789994479236310e-05,-1.104044342777400122e-04
2.326190476190476364e+00,5.817995950535019334e-05,-1.074803783431044663e-04
2.326984126984127155e+00,5.445263828624904333e-05,-8.852674226862677074e-05
2.327777777777777946e+00,4.134172049737674270e-05,-5.655005467373214081e-05
2.328571428571428736e+00,2.145784979466326892e-05,-1.695240262874777540e-05
2.329365079365079527e+00,-1.944770537890377058e-06,2.338911019257319137e-05
2.330158730158730318e+00,-2.564547868442982147e-05,5.742800020765807529e-05
2.330952380952381109e+00,-4.689105013108429027e-05,7.941853911833320512e-05
2.331746031746031900e+00,-6.357292718748333267e-05,8.623029631422418086e-05
2.332539682539682691e+00,-7.424860547074801291e-05,7.816949961709724942e-05
2.333333333333333481e+00,-7.813416481778640693e-05,5.904358299781064189e-05
2.334126984126984272e+00,-7.513853560958886463e-05,3.535590581862164456e-05
2.334920634920635063e+00,-6.592323286703957426e-05,1.473609679718623582e-05
2.335714285714285854e+00,-5.190834043751225833e-05,3.968370474987833782e-06
2.336507936507936645e+00,-3.513557453039157239e-05,7.175580563281094944e-06
2.337301587301587436e+00,-1.794526665268491645e-05,2.471723148612428635e-05
2.338095238095238226e+00,-2.508824440324290535e-06,5.312181370350284749e-05
2.338888888888889017e+00,9.655134227780388251e-06,8.601090530914310599e-05
2.339682539682539808e+00,1.801126681687074621e-05,1.156691849057806079e-04
2.340476190476190599e+00,2.304863499561588005e-05,1.347846335591860599e-04
2.341269841269841390e+00,2.599611726024676986e-05,1.379242676075375458e-04
2.342063492063492181e+00,2.829830473263574437e-05,1.224619274852632115e-04
2.342857142857142971e+00,3.103264933652553166e-05,8.886908738752904936e-05
2.343650793650793762e+00,3.447879457406547663e-05,4.045166925288088631e-05
2.344444444444444553e+00,3.800474103993604257e-05,-1.728874546949162538e-05
2.345238095238095344e+00,4.032475743720270961e-05,-7.748691102135283509e-05
2.346031746031746135e+00,4.004546294855060908e-05,-1.328099881379037311e-04
2.346825396825396925e+00,3.629852585764639194e-05,-1.763422924135017104e-04
2.347619047619047716e+00,2.920944290814878348e-05,-2.024006062066779953e-04
2.348412698412698507e+00,1.999886155770978170e-05,-2.072111693709053541e-04
2.349206349206349298e+00,1.064625649435819412e-05,-1.893807938293350362e-04
2.350000000000000089e+00,3.218925237290344861e-06,-1.501357226720515122e-04
2.350793650793650880e+00,-8.853635436424154325e-07,-9.335796367626329382e-05
2.351587301587301670e+00,-1.478584870033859804e-06,-2.544970795685395416e-05
2.352380952380952461e+00,3.311852404511959033e-07,4.503765632811443831e-05
2.353174603174603252e+00,2.570997311302294749e-06,1.081898457988526038e-04
2.353968253968254043e+00,3.201533975972170070e-06,1.540965326492345843e-04
2.354761904761904834e+00,9.707364367071678077e-07,1.747368668852175425e-04
2.355555555555555625e+00,-4.022979499871090931e-06,1.659792556460699237e-04
2.356349206349206415e+00,-1.029184765695690620e-05,1.290435854074285240e-04
2.357142857142857206e+00,-1.547256456043385374e-05,7.079355548194018783e-05
2.357936507936507997e+00,-1.720809153756825465e-05,2.546433096652154462e-06
2.358730158730158788e+00,-1.407167777769241095e-05,-6.240967474025462750e-05
2.359523809523809579e+00,-6.185801338863774248e-06,-1.119269460971151461e-04
2.360317460317460370e+00,4.704583459564861767e-06,-1.378337734575041189e-04
2.361111111111111160e+00,1.574305789690483515e-05,-1.376833942135233051e-04
2.361904761904761951e+00,2.387108857629678858e-05,-1.149671141980712863e-04
2.362698412698412742e+00,2.679578489395820464e-05,-7.781348063212224515e-05
2.363492063492063533e+00,2.366192293462052274e-05,-3.660145393790244185e-05
2.364285714285714324e+00,1.520361014245518381e-05,-1.167316442843420097e-06
2.365079365079365115e+00,3.360947354407379563e-06,2.164218451485052232e-05
2.365873015873015905e+00,-9.452535967083652390e-06,2.942881070679493604e-05
2.366666666666666696e+00,-2.112855334633318590e-05,2.436072202598728480e-05
2.367460317460317487e+00,-3.039003260960135487e-05,1.199959357215823532e-05
2.368253968253968278e+00,-3.689037051587355093e-05,-7.302150459341830642e-07
2.369047619047619069e+00,-4.090955002534818805e-05,-7.774342501498310493e-06
2.369841269841269860e+00,-4.285223870926624363e-05,-5.717647573656507914e-06
2.370634920634920650e+00,-4.282836338519541245e-05,5.400406736769009223e-06
2.371428571428571441e+00,-4.053192022648748793e-05,2.241484880033200482e-05
2.372222222222222232e+00,-3.547195232676592135e-05,4.034137387155698970e-05
2.373015873015873023e+00,-2.743445472448417013e-05,5.417153099101148231e-05
2.373809523809523814e+00,-1.693927373329407975e-05,6.050927380690328380e-05
2.374603174603174605e+00,-5.442056937183296151e-06,5.848821997714761508e-05
2.375396825396825395e+00,4.877236112919470564e-06,4.971367176641230940e-05
2.376190476190476186e+00,1.172929556394391041e-05,3.735818019547467502e-05
2.376984126984126977e+00,1.353687562516406174e-05,2.484412480797711239e-05
2.377777777777777768e+00,1.013823433348744936e-05,1.466512910933328377e-05
2.378571428571428559e+00,3.050996592480240591e-06,7.794820714546936655e-06
2.379365079365079350e+00,-4.873015169261399497e-06,3.841380400030440907e-06
2.380158730158730140e+00,-1.032932769622405549e-05,1.746608678598632558e-06
2.380952380952380931e+00,-1.068541043045842709e-05,5.793222421587891460e-07
2.381746031746031722e+00,-4.951888265704091128e-06,-1.704726292936776368e-08
2.382539682539682513e+00,5.751381515553450981e-06,9.975688731159795561e-08
2.383333333333333304e+00,1.842420999381394516e-05,1.127696507646011860e-06
2.384126984126984095e+00,2.907497848484656683e-05,2.852201516865829009e-06
2.384920634920634885e+00,3.400703903678969176e-05,4.449303218144005273e-06
2.385714285714285676e+00,3.108057735454035028e-05,4.665355733936209933e-06
2.386507936507936467e+00,2.050535319791406942e-05,2.289768518926263158e-06
2.387301587301587258e+00,4.862748378462340219e-06,-3.265054982940296619e-06
2.388095238095238049e+00,-1.167609615408154993e-05,-1.148792829760829607e-05
2.388888888888888840e+00,-2.467480875781870558e-05,-2.059319119900189691e-05
2.389682539682539630e+00,-3.083462497626311417e-05,-2.777995679853546393e-05
2.390476190476190421e+00,-2.898348185936581737e-05,-2.993110223489463438e-05
2.391269841269841212e+00,-2.031810637692233392e-05,-2.458229547654766460e-05
2.392063492063492003e+00,-7.845729622761214318e-06,-1.085161219195373990e-05
2.392857142857142794e+00,4.735947233529632306e-06,1.001017223916639632e-05
2.393650793650793585e+00,1.428788132788645614e-05,3.468780037600282130e-05
2.394444444444444375e+00,1.915285109755236119e-05,5.852387547358980425e-05
2.395238095238095166e+00,1.945157986463615313e-05,7.668801622238992203e-05
2.396031746031745957e+00,1.670990749286425350e-05,8.540086271513095762e-05
2.396825396825396748e+00,1.302982395218592269e-05,8.279912612547961250e-05
2.397619047619047539e+00,1.017291276925577821e-05,6.919951495620418327e-05
2.398412698412698330e+00,8.930483249455779105e-06,4.678721720496306549e-05
2.399206349206349120e+00,9.010512590120822997e-06,1.895807475979144327e-05
2.399999999999999911e+00,9.434078049393382760e-06,-1.041193054381586525e-05
2.400793650793650702e+00,9.206330245921353074e-06,-3.758360929976245458e-05
2.401587301587301493e+00,7.914915036469478317e-06,-5.939598282884857555e-05
2.402380952380952284e+00,5.962770764299427141e-06,-7.355351256109112369e-05
2.403174603174603075e+00,4.331225580700226223e-06,-7.880309911862586145e-05
2.403968253968253865e+00,4.001011270391424843e-06,-7.503074299403034630e-05
2.404761904761904656e+00,5.325774340338429887e-06,-6.328298877233256030e-05
2.405555555555555447e+00,7.679083983497001571e-06,-4.569136144270517254e-05
2.406349206349206238e+00,9.572694258033485732e-06,-2.525788590611409147e-05
2.407142857142857029e+00,9.232283231953384230e-06,-5.470403752575931814e-06
2.407936507936507819e+00,5.411685352327304134e-06,1.022900545252448079e-05
2.408730158730158610e+00,-1.891227772415452872e-06,1.903019161724539551e-05
2.409523809523809401e+00,-1.113941148756568362e-05,1.926857341228190967e-05
2.410317460317460192e+00,-1.955697934568066641e-05,1.075137763393977518e-05
2.411111111111110983e+00,-2.397005773938283387e-05,-5.179555849465403699e-06
2.411904761904761774e+00,-2.191354926424087616e-05,-2.586645090856623541e-05
2.412698412698412564e+00,-1.261026574740664076e-05,-4.777841940565162224e-05
2.413492063492063355e+00,2.543987774191058052e-06,-6.706648133817168396e-05
2.414285714285714146e+00,2.019705503029291062e-05,-8.013041336717407473e-05
2.415079365079364937e+00,3.593358997485432632e-05,-8.415558251573850902e-05
2.415873015873015728e+00,4.558683243084202404e-05,-7.760908338358722073e-05
2.416666666666666519e+00,4.655122306560561423e-05,-6.064563570020652480e-05
2.417460317460317309e+00,3.864938003533439437e-05,-3.529901720727904036e-05
2.418253968253968100e+00,2.423454881315320597e-05,-5.301344772748608309e-06
2.419047619047618891e+00,7.463287782387134837e-06,2.455610893568945872e-05
2.419841269841269682e+00,-7.034377544016012952e-06,4.943066377424264884e-05
2.420634920634920473e+00,-1.564108368446072298e-05,6.552536713167196711e-05
2.421428571428571264e+00,-1.689000969773755986e-05,7.092486585606921684e-05
2.422222222222222054e+00,-1.187382057015103572e-05,6.591742585821614895e-05
2.423015873015872845e+00,-3.797700205437488575e-06,5.274453602079843466e-05
2.423809523809523636e+00,3.161534668818170412e-06,3.489610898840071469e-05
2.424603174603174427e+00,5.298440437724688355e-06,1.617429956344973096e-05
2.425396825396825218e+00,6.327810441592190671e-07,-2.103483622330177727e-07
2.426190476190476009e+00,-1.044913351525153931e-05,-1.226097926328233033e-05
2.426984126984126799e+00,-2.536758807588753304e-05,-1.936938684802768542e-05
2.427777777777777590e+00,-4.024116398047529263e-05,-2.203614839468614732e-05
2.428571428571428381e+00,-5.114583415426305030e-05,-2.130673462328693113e-05
2.429365079365079172e+00,-5.528432074190033925e-05,-1.819992245661979026e-05
2.430158730158729963e+00,-5.168760419266250976e-05,-1.337620499858989795e-05
2.430952380952380754e+00,-4.128168831107232337e-05,-7.151591169684795541e-06
2.431746031746031544e+00,-2.639202113175468560e-05,2.166659430881775007e-07
2.432539682539682335e+00,-9.929889632214393438e-06,8.179289765341072867e-06
2.433333333333333126e+00,5.436703536747549021e-06,1.571707843356561033e-05
2.434126984126983917e+00,1.787408261030580506e-05,2.148618880393455722e-05
2.434920634920634708e+00,2.660002957444488901e-05,2.426547467228577667e-05
2.435714285714285499e+00,3.173142755755583899e-05,2.350896398006550267e-05
2.436507936507936289e+00,3.388709491558480067e-05,1.971892848842409182e-05
2.437301587301587080e+00,3.373721061671762142e-05,1.441106699724218747e-05
2.438095238095238315e+00,3.168617730065564436e-05,9.622052231252094579e-06
2.438888888888889106e+00,2.780444112153691524e-05,7.122943090180771496e-06
2.439682539682539897e+00,2.201238272408997772e-05,7.650766695562527788e-06
2.440476190476190688e+00,1.440545628738988240e-05,1.049453785416039453e-05
2.441269841269841478e+00,5.539605842276947682e-06,1.365772991899163758e-05
2.442063492063492269e+00,-3.492803462906818121e-06,1.459434971035138345e-05
2.442857142857143060e+00,-1.126866147542757663e-05,1.125691866549814686e-05
2.443650793650793851e+00,-1.645386449116300828e-05,3.022427363581321580e-06
2.444444444444444642e+00,-1.826217462344509399e-05,-8.916158416275418903e-06
2.445238095238095433e+00,-1.675848383637063447e-05,-2.187846319456374187e-05
2.446031746031746223e+00,-1.288190693056929572e-05,-3.260876472974721572e-05
2.446825396825397014e+00,-8.179636586782774432e-06,-3.838239063405748984e-05
2.447619047619047805e+00,-4.347568070572981472e-06,-3.785122286866366955e-05
2.448412698412698596e+00,-2.732536352646393537e-06,-3.130648594297929805e-05
2.449206349206349387e+00,-3.954282945587933038e-06,-2.029716281764315248e-05
2.450000000000000178e+00,-7.759598439953341672e-06,-6.819507497133539062e-06
2.450793650793650968e+00,-1.314167511554399457e-05,7.526605053995482755e-06
2.451587301587301759e+00,-1.866920428863979385e-05,2.202226128019968567e-05
2.452380952380952550e+00,-2.290450210349955838e-05,3.675817668193117325e-05
2.453174603174603341e+00,-2.477473696797702804e-05,5.209795286136965442e-05
2.453968253968254132e+00,-2.379804899557931696e-05,6.798884351796088401e-05
2.454761904761904923e+00,-2.013185672691956803e-05,8.347770929659781573e-05
2.455555555555555713e+00,-1.446944076238122344e-05,9.665561782929758491e-05
2.456349206349206504e+00,-7.842555326316175411e-06,1.050402051781339880e-04
2.457142857142857295e+00,-1.392362893137144131e-06,1.062343662765384366e-04
2.457936507936508086e+00,3.841086678137274937e-06,9.863799231693529839e-05
2.458730158730158877e+00,7.079504478207873833e-06,8.201630719926725395e-05
2.459523809523809668e+00,7.905864814501670966e-06,5.778663277188765448e-05
2.460317460317460458e+00,6.308619133017993407e-06,2.894222726479050479e-05
2.461111111111111249e+00,2.685996247989448655e-06,-4.079231893494366033e-07
2.461904761904762040e+00,-2.175786325271314645e-06,-2.582752542403607890e-05
2.462698412698412831e+00,-7.148209094259421388e-06,-4.352475921212143939e-05
2.463492063492063622e+00,-1.084351681361317681e-05,-5.128536154903051567e-05
2.464285714285714413e+00,-1.175891146439421110e-05,-4.911124164230961433e-05
2.465079365079365203e+00,-8.500715883782078970e-06,-3.934599131317627774e-05
2.465873015873015994e+00,-8.276391775021321928e-08,-2.618569841912500782e-05
2.466666666666666785e+00,1.374494102219389796e-05,-1.464864429491745080e-05
2.467460317460317576e+00,3.221827393996346179e-05,-9.257471608025119835e-06
2.468253968253968367e+00,5.343352968201333991e-05,-1.280258612091819863e-05
2.469047619047619158e+00,7.446879183560610991e-05,-2.555068457235127086e-05
2.469841269841269948e+00,9.179637522286265491e-05,-4.513181968994072515e-05
2.470634920634920739e+00,1.019309093934112911e-04,-6.713460863556928256e-05
2.471428571428571530e+00,1.021407033997695366e-04,-8.623839243420101735e-05
2.472222222222222321e+00,9.099078889625304603e-05,-9.757154410727597691e-05
2.473015873015873112e+00,6.854270083081740632e-05,-9.793461645273063277e-05
2.473809523809523903e+00,3.619028211304190228e-05,-8.657413159286369609e-05
2.474603174603174693e+00,-3.721439662403935767e-06,-6.532969278320914725e-05
2.475396825396825484e+00,-4.825621529671047952e-05,-3.816700724844843264e-05
2.476190476190476275e+00,-9.402139105638447213e-05,-1.028277805321657865e-05
2.476984126984127066e+00,-1.370223504769741199e-04,1.294772712369194541e-05
2.477777777777777857e+00,-1.723816954946465088e-04,2.693726072076694283e-05
2.478571428571428648e+00,-1.942281715457862138e-04,2.862254980548015006e-05
2.479365079365079438e+00,-1.960952205509250965e-04,1.692480761782372105e-05
2.480158730158730229e+00,-1.720395052061012616e-04,-7.054052771925711116e-06
2.480952380952381020e+00,-1.184210173979981999e-04,-4.008229396226866429e-05
2.481746031746031811e+00,-3.595949428195962660e-05,-7.710247299323313031e-05
2.482539682539682602e+00,6.859389533007620378e-05,-1.118166371336288298e-04
2.483333333333333393e+00,1.819454735239148290e-04,-1.375692030065707385e-04
2.484126984126984183e+00,2.855467340327146769e-04,-1.484798951046278686e-04
2.484920634920634974e+00,3.588798058567564241e-04,-1.406672104915264985e-04
2.485714285714285765e+00,3.842483857765709642e-04,-1.132840937228410334e-04
2.486507936507936556e+00,3.518468424038771834e-04,-6.902978697053538848e-05
2.487301587301587347e+00,2.634453303098871989e-04,-1.386853578453217859e-05
2.488095238095238138e+00,1.332046253215940328e-04,4.410463836361871000e-05
2.488888888888888928e+00,-1.502466596455321850e-05,9.641278094189269373e-05
2.489682539682539719e+00,-1.533541901000299245e-04,1.360591078281365356e-04
2.490476190476190510e+00,-2.568294788520494062e-04,1.589165261803732469e-04
2.491269841269841301e+00,-3.096063296544316582e-04,1.642275452700420072e-04
2.492063492063492092e+00,-3.084726178872435509e-04,1.541551732846815296e-04
2.492857142857142883e+00,-2.627128867863791524e-04,1.326888399767905708e-04
2.493650793650793673e+00,-1.904798126245967266e-04,1.043939839883568747e-04
2.494444444444444464e+00,-1.129595544863337610e-04,7.343522517417804083e-05
2.495238095238095255e+00,-4.830778206932120618e-05,4.308287553527250186e-05
2.496031746031746046e+00,-7.289899053275773733e-06,1.567857150651374569e-05
2.496825396825396837e+00,8.209628962590511514e-06,-7.108725120755374535e-06
2.497619047619047628e+00,3.768917429083042733e-06,-2.395088403616763692e-05
2.498412698412698418e+00,-1.095660451502456376e-05,-3.365539360371505958e-05
2.499206349206349209e+00,-2.614760525714319439e-05,-3.523391979578911434e-05
2.500000000000000000e+00,-3.489761202113067571e-05,-2.827131682508358457e-05
2.500793650793650791e+00,-3.461605203336305317e-05,-1.344668744538380717e-05
2.501587301587301582e+00,-2.665340405393587891e-05,7.083597991930202530e-06
2.502380952380952372e+00,-1.467825404845876733e-05,2.972986460506504957e-05
2.503174603174603163e+00,-2.640576214224990244e-06,5.005763387418917952e-05
2.503968253968253954e+00,6.907009401476378752e-06,6.378825546698765870e-05
2.504761904761904745e+00,1.364075181389242155e-05,6.789191700944596179e-05
2.505555555555555536e+00,1.928087116624282077e-05,6.141390675909642752e-05
2.506349206349206327e+00,2.651446525763969333e-05,4.577181161523057479e-05
2.507142857142857117e+00,3.745166884142053917e-05,2.442875402202661047e-05
2.507936507936507908e+00,5.230421699322691407e-05,2.024664670020895270e-06
2.508730158730158699e+00,6.899100599442444328e-05,-1.680770887915181684e-05
2.509523809523809490e+00,8.396088847092454677e-05,-2.863322861632336687e-05
2.510317460317460281e+00,9.382298435478274063e-05,-3.209749276721137482e-05
2.511111111111111072e+00,9.685823405579328783e-05,-2.825436943084104900e-05
2.511904761904761862e+00,9.355126069696129143e-05,-2.020988678471772210e-05
2.512698412698412653e+00,8.588630871671608792e-05,-1.212012881409407648e-05
2.513492063492063444e+00,7.587311330964112627e-05,-7.779763104818772143e-06
2.514285714285714235e+00,6.417429244411287047e-05,-9.225257902946315766e-06
2.515079365079365026e+00,4.961832927335976324e-05,-1.586068175787070861e-05
2.515873015873015817e+00,2.989562551238371854e-05,-2.449976342627305519e-05
2.516666666666666607e+00,3.110024298794040580e-06,-3.040142392884818785e-05
2.517460317460317398e+00,-3.059352171053330508e-05,-2.898666736113529688e-05
2.518253968253968189e+00,-6.816089891786599050e-05,-1.764881537635826041e-05
2.519047619047618980e+00,-1.040062969054682897e-04,2.974981167787707474e-06
2.519841269841269771e+00,-1.315530921552163657e-04,2.871727387758873226e-05
2.520634920634920562e+00,-1.453344097810222943e-04,5.270003012462766651e-05
2.521428571428571352e+00,-1.427987501509818023e-04,6.704030070608571869e-05
2.522222222222222143e+00,-1.250936281433984913e-04,6.497299712346138239e-05
2.523015873015872934e+00,-9.654477953718511730e-05,4.282792630415432694e-05
2.523809523809523725e+00,-6.309354089587085887e-05,1.362820571820082348e-06
2.524603174603174516e+00,-3.034521622391808175e-05,-5.386903706416127865e-05
2.525396825396825307e+00,-1.969317804309824042e-06,-1.132215382779059914e-04
2.526190476190476097e+00,2.100697389229802553e-05,-1.646352635172009513e-04
2.526984126984126888e+00,3.983943402063344792e-05,-1.960316855804448662e-04
2.527777777777777679e+00,5.686267325215361046e-05,-1.980045828849402625e-04
2.528571428571428470e+00,7.395351522794562293e-05,-1.662528127646394787e-04
2.529365079365079261e+00,9.127594992172180402e-05,-1.031330969865577857e-04
2.530158730158730052e+00,1.068128805666286130e-04,-1.780415846191857560e-05
2.530952380952380842e+00,1.169078194838041632e-04,7.527045343040010897e-05
2.531746031746031633e+00,1.176573060864168887e-04,1.592488309463410223e-04
2.532539682539682424e+00,1.066265099840184674e-04,2.186061542190957598e-04
2.533333333333333215e+00,8.416581291593410298e-05,2.426562520048530227e-04
2.534126984126984006e+00,5.371493177630924128e-05,2.279611733372502013e-04
2.534920634920634797e+00,2.088362488863685433e-05,1.789987021675139755e-04
2.535714285714285587e+00,-8.376732608132355997e-06,1.069569322411630330e-04
2.536507936507936378e+00,-2.979073616247296177e-05,2.702816727508044762e-05
2.537301587301587169e+00,-4.214613811235102289e-05,-4.507488352131540376e-05
2.538095238095237960e+00,-4.747663758206235239e-05,-9.652311139749428074e-05
2.538888888888888751e+00,-4.994373132677224544e-05,-1.199147090044433081e-04
2.539682539682539542e+00,-5.384275851997744354e-05,-1.144346865268299146e-04
2.540476190476190332e+00,-6.153885105383502269e-05,-8.547873900813390022e-05
2.541269841269841123e+00,-7.222023586433631848e-05,-4.296949544898786107e-05
2.542063492063491914e+00,-8.205118250340418494e-05,1.137196234652784141e-06
2.542857142857142705e+00,-8.569763913901261895e-05,3.555989560716104773e-05
2.543650793650793496e+00,-7.857597367659923955e-05,5.206796800135064080e-05
2.544444444444444287e+00,-5.888015632513549970e-05,4.710826467739216922e-05
2.545238095238095077e+00,-2.861250760911459936e-05,2.240699582914708468e-05
2.546031746031745868e+00,6.683145802885726614e-06,-1.556860373598885252e-05
2.546825396825396659e+00,3.930688167184752233e-05,-5.719973303195259422e-05
2.547619047619047450e+00,6.144013613156989193e-05,-9.203047493875817365e-05
2.548412698412698241e+00,6.729018599007372588e-05,-1.112829088117933408e-04
2.549206349206349032e+00,5.483913003839014565e-05,-1.099697851668785258e-04
2.549999999999999822e+00,2.677743547735497319e-05,-8.808115008910774016e-05
2.550793650793650613e+00,-9.687571516750114397e-06,-5.054645668580967280e-05
2.551587301587301404e+00,-4.427066832014880991e-05,-5.994074542715855606e-06
2.552380952380952195e+00,-6.611521674205805745e-05,3.533505789670595668e-05
2.553174603174602986e+00,-6.682076951647328874e-05,6.392519893624345030e-05
2.553968253968253777e+00,-4.315079171357935801e-05,7.295396209614902312e-05
2.554761904761904567e+00,1.495660556608192518e-06,5.948730352086350744e-05
2.555555555555555358e+00,5.751615089841522610e-05,2.484169433864295910e-05
2.556349206349206149e+00,1.115230601405036841e-04,-2.568760745249929527e-05
2.557142857142856940e+00,1.500722551280983443e-04,-8.350256262539013932e-05
2.557936507936507731e+00,1.634569615691995918e-04,-1.377107186231055832e-04
2.558730158730158522e+00,1.482798638647128036e-04,-1.765588568223455223e-04
2.559523809523809312e+00,1.080370690011286456e-04,-1.893746995262963648e-04
2.560317460317460103e+00,5.172619970808435151e-05,-1.688626050304590934e-04
2.561111111111110894e+00,-8.862913647326042826e-06,-1.132562234115715247e-04
2.561904761904761685e+00,-6.222471754177611076e-05,-2.760450212751129146e-05
2.562698412698412920e+00,-9.969777777065443112e-05,7.645514103745135648e-05
2.563492063492063711e+00,-1.169332261913319271e-04,1.826631339964080543e-04
2.564285714285714501e+00,-1.141058596568402667e-04,2.734550809720352055e-04
2.565079365079365292e+00,-9.507247370387304352e-05,3.337082574055546050e-04
2.565873015873016083e+00,-6.590783785891845322e-05,3.538173219590259855e-04
2.566666666666666874e+00,-3.329413902306922382e-05,3.312788793258352989e-04
2.567460317460317665e+00,-3.143904247422731627e-06,2.705494705220342321e-04
2.568253968253968456e+00,2.032686701724440822e-05,1.815184683027528648e-04
2.569047619047619246e+00,3.501989496919658934e-05,7.724726312333652875e-05
2.569841269841270037e+00,4.092683448375217362e-05,-2.838185230785074211e-05
2.570634920634920828e+00,3.975913612131181003e-05,-1.226649564800025175e-04
2.571428571428571619e+00,3.435124234503756215e-05,-1.955201802682398412e-04
2.572222222222222410e+00,2.795253554020192947e-05,-2.403544994229054254e-04
2.573015873015873201e+00,2.352493255313884023e-05,-2.544294464494574535e-04
2.573809523809523991e+00,2.315463212672080561e-05,-2.388213793546298041e-04
2.574603174603174782e+00,2.765848534057070978e-05,-1.980470317145101105e-04
2.575396825396825573e+00,3.642671764332633584e-05,-1.393955492877965111e-04
2.576190476190476364e+00,4.751250150595391348e-05,-7.199840757183242803e-05
2.576984126984127155e+00,5.796215115898230210e-05,-5.681121314078775481e-06
2.577777777777777946e+00,6.436489072536055766e-05,5.032907339813519077e-05
2.578571428571428736e+00,6.356666609657121844e-05,8.871815906661060483e-05
2.579365079365079527e+00,5.343081817179455762e-05,1.052406727791691557e-04
2.580158730158730318e+00,3.346570494217761515e-05,9.948017986561188237e-05
2.580952380952381109e+00,5.124577477184840760e-06,7.497910560537236248e-05
2.581746031746031900e+00,-2.835349135622676096e-05,3.859840387913359301e-05
2.582539682539682691e+00,-6.256465408459873192e-05,-8.413817657726395565e-07
2.583333333333333481e+00,-9.287708307671258142e-05,-3.437065553777529203e-05
2.584126984126984272e+00,-1.154223168785686258e-04,-5.472610615330195284e-05
2.584920634920635063e+00,-1.278517644927220091e-04,-5.783680295191040557e-05
2.585714285714285854e+00,-1.296450408524603946e-04,-4.363201082155254181e-05
2.586507936507936645e+00,-1.219039619675377602e-04,-1.601833992599883597e-05
2.587301587301587436e+00,-1.067314419516865969e-04,1.796163576310380000e-05
2.588095238095238226e+00,-8.643246930137483573e-05,4.962205203657346896e-05
2.588888888888889017e+00,-6.283924021614291551e-05,7.048530079077940981e-05
2.589682539682539808e+00,-3.701639674965586708e-05,7.413444270343833953e-05
2.590476190476190599e+00,-9.449179591982395871e-06,5.771269942804027110e-05
2.591269841269841390e+00,1.938351821243094452e-05,2.277335555793066641e-05
2.592063492063492181e+00,4.831237295939122246e-05,-2.472298247368215346e-05
2.592857142857142971e+00,7.497977273588838070e-05,-7.533854657327814939e-05
2.593650793650793762e+00,9.580869769688855940e-05,-1.179293219977364056e-04
2.594444444444444553e+00,1.065599281453499586e-04,-1.419860419178386990e-04
2.595238095238095344e+00,1.034015705237628711e-04,-1.400897239861942443e-04
2.596031746031746135e+00,8.421414425720275823e-05,-1.098897276023333820e-04
2.596825396825396925e+00,4.971218701160285986e-05,-5.501100687802319472e-05
2.597619047619047716e+00,3.947142731059228752e-06,1.548784620705204740e-05
2.598412698412698507e+00,-4.609358502153965576e-05,8.906505322927115820e-05
2.599206349206349298e+00,-9.179106816101539510e-05,1.525402530545962661e-04
2.600000000000000089e+00,-1.247891313277414206e-04,1.950101910934365032e-04
2.600793650793650880e+00,-1.389519941022708028e-04,2.100194274643842388e-04
2.601587301587301670e+00,-1.318260113308431728e-04,1.964794608190097147e-04
2.602380952380952461e+00,-1.051948159818466897e-04,1.582805190271479299e-04
2.603174603174603252e+00,-6.458398513873576626e-05,1.029292395465592006e-04
2.603968253968254043e+00,-1.786606328808231270e-05,3.973824695841720141e-05
2.604761904761904834e+00,2.664077927901289339e-05,-2.193171536986689732e-05
2.605555555555555625e+00,6.205482480492731877e-05,-7.405318521316714062e-05
2.606349206349206415e+00,8.428695414045613704e-05,-1.108313784234035037e-04
2.607142857142857206e+00,9.254334522691070946e-05,-1.291715916342328976e-04
2.607936507936507997e+00,8.893023462861587012e-05,-1.288051885470669407e-04
2.608730158730158788e+00,7.739113766435110140e-05,-1.121138683466241947e-04
2.609523809523809579e+00,6.237122390422994444e-05,-8.362920728625068624e-05
2.610317460317460370e+00,4.761915883047709689e-05,-4.919112330982529260e-05
2.611111111111111160e+00,3.542886899291522408e-05,-1.484906764363094414e-05
2.611904761904761951e+00,2.644949158163008456e-05,1.427167588749606100e-05
2.612698412698412742e+00,2.001134357291999068e-05,3.483886108895037495e-05
2.613492063492063533e+00,1.477542712119825276e-05,4.567596066585549161e-05
2.614285714285714324e+00,9.444907429077218633e-06,4.756134435121687375e-05
2.615079365079365115e+00,3.296255449944795120e-06,4.261656360016285018e-05
2.615873015873015905e+00,-3.612840722515800788e-06,3.354907323417550570e-05
2.616666666666666696e+00,-1.056330198621828753e-05,2.298007046104108523e-05
2.617460317460317487e+00,-1.650772121705588441e-05,1.296553055106545126e-05
2.618253968253968278e+00,-2.044902209565592241e-05,4.713431338068372093e-06
2.619047619047619069e+00,-2.172229788255157864e-05,-1.530212506838110964e-06
2.619841269841269860e+00,-2.011501995185248335e-05,-6.430069874288326043e-06
2.620634920634920650e+00,-1.584343274389336955e-05,-1.132595570627337449e-05
2.621428571428571441e+00,-9.451454510838775647e-06,-1.781030723468378699e-05
2.622222222222222232e+00,-1.701408994824323508e-06,-2.717103745035873337e-05
2.623015873015873023e+00,6.503173865894009616e-06,-3.981860024289543754e-05
2.623809523809523814e+00,1.416108074660924715e-05,-5.486037104165595018e-05
2.624603174603174605e+00,2.021110269237529441e-05,-6.998431291193248928e-05
2.625396825396825395e+00,2.360226767618789500e-05,-8.175994182258132373e-05
2.626190476190476186e+00,2.342529056795751249e-05,-8.636368329446668900e-05
2.626984126984126977e+00,1.910810752779524530e-05,-8.060467321864539774e-05
2.627777777777777768e+00,1.064404249087400062e-05,-6.299638436303515163e-05
2.628571428571428559e+00,-1.211075138678271752e-06,-3.453609074795116886e-05
2.629365079365079350e+00,-1.485394921188925848e-05,1.127741653662699546e-06
2.630158730158730140e+00,-2.793352822046226544e-05,3.830808343442073554e-05
2.630952380952380931e+00,-3.766911923940431499e-05,7.057955325916420676e-05
2.631746031746031722e+00,-4.135891595011485360e-05,9.240053313105637417e-05
2.632539682539682513e+00,-3.698556854565246453e-05,1.005348810055766210e-04
2.633333333333333304e+00,-2.378164361465274847e-05,9.480066362022351162e-05
2.634126984126984095e+00,-2.613133513781618219e-06,7.791746235661660869e-05
2.634920634920634885e+00,2.392907112656495215e-05,5.455109202712495449e-05
2.635714285714285676e+00,5.178914720964367373e-05,2.992216477135443734e-05
2.636507936507936467e+00,7.605928146981551143e-05,8.454250765848958795e-06
2.637301587301587258e+00,9.187846745317626844e-05,-7.132868499331574548e-06
2.638095238095238049e+00,9.546705025906170928e-05,-1.608269433558739752e-05
2.638888888888888840e+00,8.506737931346970304e-05,-1.926048049213872752e-05
2.639682539682539630e+00,6.152611247971540866e-05,-1.845250114999396582e-05
2.640476190476190421e+00,2.830561202407862084e-05,-1.562054771134068062e-05
2.641269841269841212e+00,-9.142672449660863628e-06,-1.236395170281906227e-05
2.642063492063492003e+00,-4.451811084409152428e-05,-9.693558415614740364e-06
2.642857142857142794e+00,-7.203762569870568542e-05,-8.068662677069149612e-06
2.643650793650793585e+00,-8.766943982940876448e-05,-7.558512932419717993e-06
2.644444444444444375e+00,-8.990828030725933108e-05,-7.991945580938013014e-06
2.645238095238095166e+00,-7.989916583664181124e-05,-9.029823184422244823e-06
2.646031746031745957e+00,-6.091442472039826199e-05,-1.018189738821445956e-05
2.646825396825396748e+00,-3.738465793553993872e-05,-1.084003664949085712e-05
2.647619047619047539e+00,-1.379905206091441855e-05,-1.038923283616199049e-05
2.648412698412698330e+00,6.218870467326281744e-06,-8.400218197324648564e-06
2.649206349206349120e+00,2.046362099361070426e-05,-4.842839437201028284e-06
2.649999999999999911e+00,2.827627445985830145e-05,-2.272763036096136789e-07
2.650793650793650702e+00,3.031612761142759541e-05,4.403247185589027557e-06
2.651587301587301493e+00,2.810808528836263118e-05,7.652164057875241406e-06
2.652380952380952284e+00,2.351370208181945281e-05,8.085750109404269255e-06
2.653174603174603075e+00,1.825508356505317284e-05,4.608618336915827093e-06
2.653968253968253865e+00,1.358282991489863556e-05,-3.190990143238152158e-06
2.654761904761904656e+00,1.013150727733409302e-05,-1.480636266183454874e-05
2.655555555555555447e+00,7.956776991493266950e-06,-2.875064849110510525e-05
2.656349206349206238e+00,6.706748226321003374e-06,-4.270881143478642676e-05
2.657142857142857029e+00,5.855904958044396073e-06,-5.390823480904231982e-05
2.657936507936507819e+00,4.928350465459568203e-06,-5.966030303904589822e-05
2.658730158730158610e+00,3.655631027423366329e-06,-5.796876048517108395e-05
2.659523809523809401e+00,2.043519170439390166e-06,-4.806404122994338850e-05
2.660317460317460192e+00,3.499922189609042168e-07,-3.072084956494511732e-05
2.661111111111110983e+00,-1.005222582093827633e-06,-8.247976105116049114e-06
2.661904761904761774e+00,-1.572389489224510595e-06,1.590003657550643129e-05
2.662698412698412564e+00,-1.017678950583017960e-06,3.784765982130718922e-05
2.663492063492063355e+00,7.432978244944742102e-07,5.419769549846759765e-05
2.664285714285714146e+00,3.452273966889076456e-06,6.283429574369956479e-05
2.665079365079364937e+00,6.483370738330835813e-06,6.333904482114868925e-05
2.665873015873015728e+00,8.907187768122379874e-06,5.685555981572487422e-05
2.666666666666666519e+00,9.647660753462198151e-06,4.546870941880170377e-05
2.667460317460317309e+00,7.711603725100530800e-06,3.137096226327094298e-05
2.668253968253968100e+00,2.447852819748516611e-06,1.615932593851584421e-05
2.669047619047618891e+00,-6.222122210651473365e-06,5.255863059587309439e-07
2.669841269841269682e+00,-1.766412349119175193e-05,-1.557011124989950225e-05
2.670634920634920473e+00,-3.053544845924763393e-05,-3.233817549960399970e-05
2.671428571428571264e+00,-4.296457328723139122e-05,-4.944477431555011716e-05
2.672222222222222054e+00,-5.289687514546169645e-05,-6.543633483042036309e-05
2.673015873015872845e+00,-5.854228781502325503e-05,-7.756897213284977798e-05
2.673809523809523636e+00,-5.881067494259639505e-05,-8.219584919259790841e-05
2.674603174603174427e+00,-5.360298816856643654e-05,-7.568411698639198454e-05
2.675396825396825218e+00,-4.385856029482221557e-05,-5.563104717062643723e-05
2.676190476190476009e+00,-3.133342636048891297e-05,-2.199711124174252546e-05
2.676984126984126799e+00,-1.817156391561461926e-05,2.226417121388543137e-05
2.677777777777777590e+00,-6.395354152625909408e-06,7.138857226192883135e-05
2.678571428571428381e+00,2.539527752635934842e-06,1.178516282993501222e-04
2.679365079365079172e+00,8.008211715455446308e-06,1.540208964611315299e-04
2.680158730158729963e+00,1.024400691376257918e-05,1.738927314772087819e-04
2.680952380952380754e+00,1.014481661573412988e-05,1.743577622320446917e-04
2.681746031746031544e+00,8.936332146918310590e-06,1.556446023265238923e-04
2.682539682539682335e+00,7.805132921134599801e-06,1.209263626888484780e-04
2.683333333333333126e+00,7.611981791559275358e-06,7.536407904198036390e-05
2.684126984126983917e+00,8.755391981459526899e-06,2.498498360002379006e-05
2.684920634920634708e+00,1.119507578064097735e-05,-2.426686405643543483e-05
2.685714285714285499e+00,1.458974085816700189e-05,-6.715459913527225232e-05
2.686507936507936289e+00,1.847395640948060503e-05,-9.950195578133630002e-05
2.687301587301587080e+00,2.240162618147157115e-05,-1.184518898138521798e-04
2.688095238095238315e+00,2.601426777930683113e-05,-1.227718246391036464e-04
2.688888888888889106e+00,2.903615897686602531e-05,-1.131853415734107452e-04
2.689682539682539897e+00,3.123373286628690029e-05,-9.254210203136352430e-05
2.690476190476190688e+00,3.238527811571576920e-05,-6.558841422467311284e-05
2.691269841269841478e+00,3.228812647008516383e-05,-3.820842614154532725e-05
2.692063492063492269e+00,3.080071572407009495e-05,-1.620970469572802035e-05
2.692857142857143060e+00,2.789520240242055122e-05,-3.926789244909355709e-06
2.693650793650793851e+00,2.369079133036620615e-05,-3.035992025146446918e-06
2.694444444444444642e+00,1.844639038065919105e-05,-1.197757019228836620e-05
2.695238095238095433e+00,1.250800701256519031e-05,-2.625144736160571674e-05
2.696031746031746223e+00,6.225915239578463239e-06,-3.960071361352910199e-05
2.696825396825397014e+00,-1.275464169819225964e-07,-4.579583160043732037e-05
2.697619047619047805e+00,-6.404609816353066714e-06,-4.050264062209609433e-05
2.698412698412698596e+00,-1.257079807686509868e-05,-2.265115475884391382e-05
2.699206349206349387e+00,-1.863791859336701249e-05,5.159158591475410702e-06
2.700000000000000178e+00,-2.456687258522310019e-05,3.740466494385891590e-05
2.700793650793650968e+00,-3.017770931047353210e-05,6.734462803524506351e-05
2.701587301587301759e+00,-3.510441575195333280e-05,8.913940726604205919e-05
2.702380952380952550e+00,-3.882309734340534717e-05,9.963362063073799080e-05
2.703174603174603341e+00,-4.076262677857152907e-05,9.914862898828400361e-05
2.703968253968254132e+00,-4.047513565491185866e-05,9.100277914910181185e-05
2.704761904761904923e+00,-3.780964218652246178e-05,7.998023250360418207e-05
2.705555555555555713e+00,-3.301525210050357376e-05,7.036941668740344358e-05
2.706349206349206504e+00,-2.671617735401786469e-05,6.432081423858403537e-05
2.707142857142857295e+00,-1.974789447585824579e-05,6.110586494923164183e-05
2.707936507936508086e+00,-1.290265434845488224e-05,5.749522709550271261e-05
2.708730158730158877e+00,-6.675541882078127742e-06,4.906975940367118644e-05
2.709523809523809668e+00,-1.108221899850577105e-06,3.197337142851455267e-05
2.710317460317460458e+00,4.207230168110843885e-06,4.503822017473482639e-06
2.711111111111111249e+00,9.962910806155189525e-06,-3.196840880278695369e-05
2.711904761904762040e+00,1.686848098389701688e-05,-7.302129146511673538e-05
2.712698412698412831e+00,2.538100576637003367e-05,-1.121202952674535847e-04
2.713492063492063622e+00,3.552547820278965251e-05,-1.422016639886192711e-04
2.714285714285714413e+00,4.685722141242974070e-05,-1.574631146952735626e-04
2.715079365079365203e+00,5.855382025295864076e-05,-1.548717804579298116e-04
2.715873015873015994e+00,6.957147283817159992e-05,-1.349666743477299273e-04
2.716666666666666785e+00,7.878729208004190483e-05,-1.017202766954217511e-04
2.717460317460317576e+00,8.508135850713765332e-05,-6.149792678186709490e-05
2.718253968253968367e+00,8.736714331606054923e-05,-2.143679645261619587e-05
2.719047619047619158e+00,8.462191577751184877e-05,1.224529451265467673e-05
2.719841269841269948e+00,7.597937205803371335e-05,3.549219678970794053e-05
2.720634920634920739e+00,6.092383046822873042e-05,4.687458325171690794e-05
2.721428571428571530e+00,3.957573623412933211e-05,4.726693843477062465e-05
2.722222222222222321e+00,1.299148485028805805e-05,3.902445452293559666e-05
2.723015873015873112e+00,-1.666148597547338988e-05,2.508982254038218373e-05
2.723809523809523903e+00,-4.621074146895615245e-05,8.390540379731986823e-06
2.724603174603174693e+00,-7.195699902957275907e-05,-8.345139205636783027e-06
2.725396825396825484e+00,-9.047013350897197762e-05,-2.250105108791792679e-05
2.726190476190476275e+00,-9.948485229248818355e-05,-3.153310910440517534e-05
2.726984126984127066e+00,-9.858236203534751429e-05,-3.325522467655798363e-05
2.727777777777777857e+00,-8.937641002114419988e-05,-2.649299084326978783e-05
2.728571428571428648e+00,-7.508051740330622722e-05,-1.184837767389421240e-05
2.729365079365079438e+00,-5.955817806231641882e-05,7.870368225545675881e-06
2.730158730158730229e+00,-4.615670691243918598e-05,2.796077374454763355e-05
2.730952380952381020e+00,-3.671547861750170023e-05,4.300125491524314027e-05
2.731746031746031811e+00,-3.108696245201690805e-05,4.858577894171076447e-05
2.732539682539682602e+00,-2.733887327778617579e-05,4.296963917268245488e-05
2.733333333333333393e+00,-2.257855256207190356e-05,2.792023670813332606e-05
2.734126984126984183e+00,-1.412699305224300466e-05,8.348356971553757381e-06
2.734920634920634974e+00,-6.367307802249555744e-07,-9.220076380312298834e-06
2.735714285714285765e+00,1.725213189427250176e-05,-1.881299464273351440e-05
2.736507936507936556e+00,3.697148991564002058e-05,-1.706148407890857168e-05
2.737301587301587347e+00,5.478940170243990713e-05,-4.418356136755193438e-06
2.738095238095238138e+00,6.699339865314311697e-05,1.487400080122930544e-05
2.738888888888888928e+00,7.105021597146127460e-05,3.407177906342985610e-05
2.739682539682539719e+00,6.633394127169741619e-05,4.606723177380339461e-05
2.740476190476190510e+00,5.421151449480698053e-05,4.567984373520354461e-05
2.741269841269841301e+00,3.752500727008193369e-05,3.134923381729995450e-05
2.742063492063492092e+00,1.970557794499604160e-05,5.694204537356861216e-06
2.742857142857142883e+00,3.840920989000446968e-06,-2.519704202898298163e-05
2.743650793650793673e+00,-8.006123426290256539e-06,-5.346872533886514633e-05
2.744444444444444464e+00,-1.504435476653031964e-05,-7.163897922871391086e-05
2.745238095238095255e+00,-1.755231628195534532e-05,-7.455154232859358501e-05
2.746031746031746046e+00,-1.638373721392788620e-05,-6.061643525402656354e-05
2.746825396825396837e+00,-1.243968619382747653e-05,-3.205498622897348242e-05
2.747619047619047628e+00,-6.354000431929035942e-06,5.840806527264163010e-06
2.748412698412698418e+00,1.486289616009867391e-06,4.614433152178875112e-05
2.749206349206349209e+00,1.063834536207582160e-05,8.195365608215521703e-05
2.750000000000000000e+00,2.021135351004859287e-05,1.077913608426837210e-04
2.750793650793650791e+00,2.862419642292277997e-05,1.204224729738438807e-04
2.751587301587301582e+00,3.369572028237183438e-05,1.190087113668663151e-04
2.752380952380952372e+00,3.311698835851148784e-05,1.047297562745373858e-04
2.753174603174603163e+00,2.518966593330204811e-05,8.012933658401360853e-05
2.753968253968253954e+00,9.575238819838486942e-06,4.847318186706733308e-05
2.754761904761904745e+00,-1.225037606163878390e-05,1.333356844048574670e-05
2.755555555555555536e+00,-3.706446416698156679e-05,-2.154966777623753144e-05
2.756349206349206327e+00,-6.053052734119574005e-05,-5.228182329252548566e-05
2.757142857142857117e+00,-7.822611832869702606e-05,-7.497400118467700803e-05
2.757936507936507908e+00,-8.674229767769128427e-05,-8.627117692958026799e-05
2.758730158730158699e+00,-8.450031267568392239e-05,-8.423216424500963107e-05
2.759523809523809490e+00,-7.203283172119891577e-05,-6.926284243461401321e-05
2.760317460317460281e+00,-5.167234364837833136e-05,-4.465030955367135947e-05
2.761111111111111072e+00,-2.679999546745392985e-05,-1.631531700596267756e-05
2.761904761904761862e+00,-9.479267284064809813e-07,8.343325198159900707e-06
2.762698412698412653e+00,2.293667992195803199e-05,2.230768271333011179e-05
2.763492063492063444e+00,4.286186138126192032e-05,2.100714359245962269e-05
2.764285714285714235e+00,5.775905891422359093e-05,3.938094981147965582e-06
2.765079365079365026e+00,6.717184125657064194e-05,-2.476672842651047199e-05
2.765873015873015817e+00,7.088227195825142727e-05,-5.713087546840191206e-05
2.766666666666666607e+00,6.869351865302361984e-05,-8.334378178650036909e-05
2.767460317460317398e+00,6.049539927296506878e-05,-9.440961382773581595e-05
2.768253968253968189e+00,4.658420188511822150e-05,-8.464125684122735481e-05
2.769047619047618980e+00,2.805155213321029284e-05,-5.327804082883104598e-05
2.769841269841269771e+00,6.979983809561096764e-06,-4.799800510044283441e-06
2.770634920634920562e+00,-1.375790566608004973e-05,5.210504733820393717e-05
2.771428571428571352e+00,-3.111862319740720163e-05,1.065915104092078831e-04
2.772222222222222143e+00,-4.273303294483206237e-05,1.481288317556303828e-04
2.773015873015872934e+00,-4.764942005404290389e-05,1.686942176454839866e-04
2.773809523809523725e+00,-4.665698327666170696e-05,1.641526659559323367e-04
2.774603174603174516e+00,-4.202503079903400287e-05,1.346415332371882787e-04
2.775396825396825307e+00,-3.671757101898817774e-05,8.412758390909826751e-05
2.776190476190476097e+00,-3.334327898146470900e-05,1.946649996546347914e-05
2.776984126984126888e+00,-3.320254262334060665e-05,-5.074314237740847939e-05
2.777777777777777679e+00,-3.577002560521008213e-05,-1.173445142403949565e-04
2.778571428571428470e+00,-3.881809446023131712e-05,-1.717750721000772525e-04
2.779365079365079261e+00,-3.918094418630114600e-05,-2.071323775874635829e-04
2.780158730158730052e+00,-3.393405699455926338e-05,-2.190537679796171065e-04
2.780952380952380842e+00,-2.158951349271229537e-05,-2.062675852492635166e-04
2.781746031746031633e+00,-2.861059700823973688e-06,-1.706906899486438788e-04
2.782539682539682424e+00,1.932196850177475713e-05,-1.170331756147121872e-04
2.783333333333333215e+00,4.060281299624746702e-05,-5.198752079314963539e-05
2.784126984126984006e+00,5.652601265018405567e-05,1.682168713120577928e-05
2.784920634920634797e+00,6.392445616923818634e-05,8.190334342462275621e-05
2.785714285714285587e+00,6.185492556182320965e-05,1.367880334299921379e-04
2.786507936507936378e+00,5.175404516358891909e-05,1.766567655701869132e-04
2.787301587301587169e+00,3.679784240180107997e-05,1.987400674585574690e-04
2.788095238095237960e+00,2.075206710624024969e-05,2.025242860750839109e-04
2.788888888888888751e+00,6.772160396097239436e-06,1.897107870440929548e-04
2.789682539682539542e+00,-3.406530614267524982e-06,1.638251193849549496e-04
2.790476190476190332e+00,-9.634086620602024399e-06,1.294693786428233976e-04
2.791269841269841123e+00,-1.288471107635156739e-05,9.138439804710549435e-05
2.792063492063491914e+00,-1.443259307965345763e-05,5.358951398437870406e-05
2.792857142857142705e+00,-1.505029038314826050e-05,1.882990659363716995e-05
2.793650793650793496e+00,-1.457288661985571303e-05,-1.156411974080136515e-05
2.794444444444444287e+00,-1.199944300262670673e-05,-3.743159684509836290e-05
2.795238095238095077e+00,-6.077447369420466970e-06,-5.926621463539993254e-05
2.796031746031745868e+00,3.883932094180440832e-06,-7.760308108150768718e-05
2.796825396825396659e+00,1.732928262163693553e-05,-9.250053281625289546e-05
2.797619047619047450e+00,3.221896005787421892e-05,-1.032919383547450183e-04
2.798412698412698241e+00,4.538117065538046358e-05,-1.087059428137068768e-04
2.799206349206349032e+00,5.336021015229286998e-05,-1.073285877673786859e-04
2.799999999999999822e+00,5.346767313396209176e-05,-9.824531059254936578e-05
2.800793650793650613e+00,4.466279195379461037e-05,-8.160767200610728853e-05
2.801587301587301404e+00,2.795211008392064673e-05,-5.887824386695064829e-05
2.802380952380952195e+00,6.172904207287675603e-06,-3.264817272793860408e-05
2.803174603174602986e+00,-1.676173993073704717e-05,-6.130366582593699691e-06
2.803968253968253777e+00,-3.689818679448963031e-05,1.744136597508758778e-05
2.804761904761904567e+00,-5.121214454754161022e-05,3.531907943490790930e-05
2.805555555555555358e+00,-5.820884347919598288e-05,4.560153237772586021e-05
2.806349206349206149e+00,-5.800709151707518377e-05,4.747833883875931209e-05
2.807142857142856940e+00,-5.196167336158207542e-05,4.135525363315098712e-05
2.807936507936507731e+00,-4.203009849444421794e-05,2.879106299219324458e-05
2.808730158730158522e+00,-3.014049137511324940e-05,1.218611645304720383e-05
2.809523809523809312e+00,-1.777042747914020808e-05,-5.723997965496046939e-06
2.810317460317460103e+00,-5.834388600648350925e-06,-2.239358394242780222e-05
2.811111111111110894e+00,5.155543899055853481e-06,-3.582307900732809047e-05
2.811904761904761685e+00,1.479630635018186947e-05,-4.467214084539821925e-05
2.812698412698412920e+00,2.254751323642509604e-05,-4.819554693232796778e-05
2.813492063492063711e+00,2.767550990398250020e-05,-4.613670659737185428e-05
2.814285714285714501e+00,2.943886348150983706e-05,-3.869107945226498411e-05
2.815079365079365292e+00,2.745229888245163935e-05,-2.657303352906965525e-05
2.815873015873016083e+00,2.206830339329959813e-05,-1.112708537963330891e-05
2.816666666666666874e+00,1.457382586403452075e-05,5.640041674019842993e-06
2.817460317460317665e+00,7.044547487000725963e-06,2.122450276530827638e-05
2.818253968253968456e+00,1.829283535470346481e-06,3.301726522900984908e-05
2.819047619047619246e+00,8.040880467554983334e-07,3.882769048969139723e-05
2.819841269841270037e+00,4.661834685464904538e-06,3.736441054153548331e-05
2.820634920634920828e+00,1.252166070912268467e-05,2.851897065713388351e-05
2.821428571428571619e+00,2.203820754975469739e-05,1.339527291568446149e-05
2.822222222222222410e+00,3.001012740598902386e-05,-5.870384358525360281e-06
2.823015873015873201e+00,3.330978823429585703e-05,-2.640899516561045923e-05
2.823809523809523991e+00,2.984518740034556336e-05,-4.496850432141968846e-05
2.824603174603174782e+00,1.924800705698560368e-05,-5.829553863349296825e-05
2.825396825396825573e+00,3.059064711199537735e-06,-6.357381027754438398e-05
2.826190476190476364e+00,-1.566379090555007611e-05,-5.894220903014781775e-05
2.826984126984127155e+00,-3.320128570028622628e-05,-4.404988633292308955e-05
2.827777777777777946e+00,-4.621560370410887679e-05,-2.049454015230203755e-05
2.828571428571428736e+00,-5.263296163541347040e-05,8.093220643889760990e-06
2.829365079365079527e+00,-5.207599895532952683e-05,3.652208506989223873e-05
2.830158730158730318e+00,-4.572768199266371555e-05,5.908755827240095589e-05
2.830952380952381109e+00,-3.572144850880525568e-05,7.095134778946623143e-05
2.831746031746031900e+00,-2.431588904603271904e-05,6.941576089790530996e-05
2.832539682539682691e+00,-1.316756770657667220e-05,5.466313227629318513e-05
2.833333333333333481e+00,-2.954744039371593394e-06,2.974456046475175566e-05
2.834126984126984272e+00,6.540621892921860586e-06,-1.148321650873902770e-07
2.834920634920635063e+00,1.596079919722224205e-05,-2.863875045097353877e-05
2.835714285714285854e+00,2.572313899815240203e-05,-4.975529017658606828e-05
2.836507936507936645e+00,3.547174654873805057e-05,-5.874288723844735803e-05
2.837301587301587436e+00,4.387179337049041864e-05,-5.309972760133521464e-05
2.838095238095238226e+00,4.886283441190525330e-05,-3.303416084936383303e-05
2.838888888888889017e+00,4.831176734562174854e-05,-1.522390408028701036e-06
2.839682539682539808e+00,4.083885768661459911e-05,3.608410575785628451e-05
2.840476190476190599e+00,2.649834735198554610e-05,7.288782229104631151e-05
2.841269841269841390e+00,7.027863313529908352e-06,1.016527430515018878e-04
2.842063492063492181e+00,-1.446254902389387437e-05,1.162488654011807588e-04
2.842857142857142971e+00,-3.427213119910682212e-05,1.130718258487111149e-04
2.843650793650793762e+00,-4.908781937912735948e-05,9.207195964859192158e-05
2.844444444444444553e+00,-5.681794330453122244e-05,5.703049107772988009e-05
2.845238095238095344e+00,-5.701432198966306821e-05,1.488464882670787608e-05
2.846031746031746135e+00,-5.078779699364215745e-05,-2.581224540932992170e-05
2.846825396825396925e+00,-4.030771692086203718e-05,-5.691825334514173299e-05
2.847619047619047716e+00,-2.810022250118726978e-05,-7.265591514295647907e-05
2.848412698412698507e+00,-1.638952885758595740e-05,-7.092251930049477311e-05
2.849206349206349298e+00,-6.669084066380721648e-06,-5.357943730735429923e-05
2.850000000000000089e+00,4.193004772460279051e-07,-2.567792874688001230e-05
2.850793650793650880e+00,4.934964585022531860e-06,6.072115916152628126e-06
2.851587301587301670e+00,7.333367328346632163e-06,3.507300145133446256e-05
2.852380952380952461e+00,8.147960088154858606e-06,5.633081996784134468e-05
2.853174603174603252e+00,7.773414405342117065e-06,6.731571635818243754e-05
2.853968253968254043e+00,6.406290558250155749e-06,6.807618800255559770e-05
2.854761904761904834e+00,4.132575147893455212e-06,6.071480706188309818e-05
2.855555555555555625e+00,1.096431096206107187e-06,4.848313235063230825e-05
2.856349206349206415e+00,-2.342645796944129101e-06,3.480308305675265662e-05
2.857142857142857206e+00,-5.547835774008716838e-06,2.247422526455814480e-05
2.857936507936507997e+00,-7.681658481610306006e-06,1.321715282940039432e-05
2.858730158730158788e+00,-7.910564527699969267e-06,7.579870613254792664e-06
2.859523809523809579e+00,-5.676385685272017048e-06,5.133836635799714187e-06
2.860317460317460370e+00,-9.411095760591353786e-07,4.829431816391272560e-06
2.861111111111111160e+00,5.692049383212745007e-06,5.372819345608487099e-06
2.861904761904761951e+00,1.304642163462520567e-05,5.520758084349161945e-06
2.862698412698412742e+00,1.963195502015956166e-05,4.251178667720848612e-06
2.863492063492063533e+00,2.403074695189237622e-05,8.328667961178498550e-07
2.864285714285714324e+00,2.529122083498550015e-05,-5.139646445473897692e-06
2.865079365079365115e+00,2.320661750135561549e-05,-1.368307523793007201e-05
2.865873015873015905e+00,1.839234008129960412e-05,-2.432363078993226153e-05
2.866666666666666696e+00,1.214512574933725305e-05,-3.601902861638547437e-05
2.867460317460317487e+00,6.135324988125210903e-06,-4.720899271852458431e-05
2.868253968253968278e+00,2.024433737742556019e-06,-5.606807831517634426e-05
2.869047619047619069e+00,1.102215062599882723e-06,-6.093599429210887750e-05
2.869841269841269860e+00,4.009962122048160775e-06,-6.079276155607358427e-05
2.870634920634920650e+00,1.058022955804616987e-05,-5.559897465353523950e-05
2.871428571428571441e+00,1.979912827990934374e-05,-4.636469211039251473e-05
2.872222222222222232e+00,2.989167704799208807e-05,-3.491721316932669790e-05
2.873015873015873023e+00,3.853538105453620114e-05,-2.345050160652000992e-05
2.873809523809523814e+00,4.320878599825967977e-05,-1.400692441701876056e-05
2.874603174603174605e+00,4.166960966933339999e-05,-8.045759690031090559e-06
2.875396825396825395e+00,3.252400960206335522e-05,-6.204327587212734289e-06
2.876190476190476186e+00,1.579425844955943060e-05,-8.284856279028953685e-06
2.876984126984126977e+00,-6.669081363615233561e-06,-1.343225517207215507e-05
2.877777777777777768e+00,-3.112159108794282884e-05,-2.042455980780035176e-05
2.878571428571428559e+00,-5.237211855556404692e-05,-2.798429897866445604e-05
2.879365079365079350e+00,-6.479484428959716850e-05,-3.502842421065452297e-05
2.880158730158730140e+00,-6.376689743267518280e-05,-4.079843317658621944e-05
2.880952380952380931e+00,-4.718596270243080414e-05,-4.484940939301317313e-05
2.881746031746031722e+00,-1.659650132145603605e-05,-4.692563932598571547e-05
2.882539682539682513e+00,2.251770015588275257e-05,-4.679850744809439675e-05
2.883333333333333304e+00,6.152391229513731589e-05,-4.416563225678513642e-05
2.884126984126984095e+00,9.046460771538411213e-05,-3.868891844545895438e-05
2.884920634920634885e+00,1.005498884464298446e-04,-3.018598998648825034e-05
2.885714285714285676e+00,8.670169999376058285e-05,-1.891303945067880773e-05
2.886507936507936467e+00,4.942525058960297088e-05,-5.823063878879538509e-06
2.887301587301587258e+00,-4.618361053725131114e-06,7.329462791562938203e-06
2.888095238095238049e+00,-6.365430117793264772e-05,1.813801088479188254e-05
2.888888888888888840e+00,-1.133295179985601819e-04,2.398237623315852454e-05
2.889682539682539630e+00,-1.401905199487248608e-04,2.269510221267232198e-05
2.890476190476190421e+00,-1.352480888323704994e-04,1.329350306949694310e-05
2.891269841269841212e+00,-9.666697295766778773e-05,-3.449844856345205809e-06
2.892063492063492003e+00,-3.075843046067005144e-05,-2.481606170497041545e-05
2.892857142857142794e+00,4.913337853838698843e-05,-4.645538949306388815e-05
2.893650793650793585e+00,1.256429066333916808e-04,-6.318859378596850668e-05
2.894444444444444375e+00,1.814836649559332222e-04,-7.011780266648352442e-05
2.895238095238095166e+00,2.035085943624412124e-04,-6.376202696352297090e-05
2.896031746031745957e+00,1.856699202517834546e-04,-4.291547506288625113e-05
2.896825396825396748e+00,1.301785433322268657e-04,-9.010288105356485138e-06
2.897619047619047539e+00,4.666449755399800821e-05,3.408076308823116611e-05
2.898412698412698330e+00,-5.031217622869122184e-05,8.070302817902159204e-05
2.899206349206349120e+00,-1.445704906051146186e-04,1.243388617084627377e-04
2.899999999999999911e+00,-2.214032286860684621e-04,1.585803486811884853e-04
2.900793650793650702e+00,-2.696616756870852546e-04,1.780163417677795208e-04
2.901587301587301493e+00,-2.826280381100936857e-04,1.789663454288211201e-04
2.902380952380952284e+00,-2.580701864685114224e-04,1.600273718148216659e-04
2.903174603174603075e+00,-1.981077140874760187e-04,1.224016792479833355e-04
2.903968253968253865e+00,-1.092752108528001177e-04,6.996790648384525126e-05
2.904761904761904656e+00,-2.646189582723992385e-06,9.054587275189284116e-06
2.905555555555555447e+00,1.065648491515749067e-04,-5.212618983538733420e-05
2.906349206349206238e+00,2.005770071270314826e-04,-1.044142569470553415e-04
2.907142857142857029e+00,2.620507285978452509e-04,-1.389859474661798923e-04
2.907936507936507819e+00,2.780651984331766573e-04,-1.488702861729476192e-04
2.908730158730158610e+00,2.439141405672299982e-04,-1.304531658504766553e-04
2.909523809523809401e+00,1.653140013860431186e-04,-8.462371104336729847e-05
2.910317460317460192e+00,5.799942126573386282e-05,-1.719972784871156448e-05
2.911111111111110983e+00,-5.545326396159899019e-05,6.162743751852641113e-05
2.911904761904761774e+00,-1.507917913743891155e-04,1.388680563700623715e-04
2.912698412698412564e+00,-2.078359876214872957e-04,2.010753948249148634e-04
2.913492063492063355e+00,-2.152668381896136998e-04,2.369251735268691696e-04
2.914285714285714146e+00,-1.732221030391649581e-04,2.393794584405252196e-04
2.915079365079364937e+00,-9.306052188167266315e-05,2.068980971991140293e-04
2.915873015873015728e+00,5.616634934466187902e-06,1.434836156793018608e-04
2.916666666666666519e+00,9.989129296159821405e-05,5.771095918573785027e-05
2.917460317460317309e+00,1.690823714970007016e-04,-3.887250776939643154e-05
2.918253968253968100e+00,1.994405426742250299e-04,-1.335570810039080850e-04
2.919047619047618891e+00,1.867859891007669698e-04,-2.141825503421929773e-04
2.919841269841269682e+00,1.365553858096087711e-04,-2.705924533609479045e-04
2.920634920634920473e+00,6.150918935053969322e-05,-2.957728687690158471e-04
2.921428571428571264e+00,-2.201909982092348317e-05,-2.866428100536459983e-04
2.922222222222222054e+00,-9.814717362816080656e-05,-2.444336971863232764e-04
2.923015873015872845e+00,-1.546442875222833041e-04,-1.745650173590897582e-04
2.923809523809523636e+00,-1.846398597536501687e-04,-8.595035357257689904e-05
2.924603174603174427e+00,-1.867642075814187588e-04,1.022477565655804195e-05
2.925396825396825218e+00,-1.641442618906627129e-04,1.020680752802933372e-04
2.926190476190476009e+00,-1.228958202665230619e-04,1.786129633625499198e-04
2.926984126984126799e+00,-7.066783806835926396e-05,2.312635463233636080e-04
2.927777777777777590e+00,-1.551972378322052018e-05,2.548910877480055131e-04
2.928571428571428381e+00,3.487803302572070168e-05,2.484888052100740698e-04
2.929365079365079172e+00,7.389908166343011947e-05,2.152870269487291240e-04
2.930158730158729963e+00,9.665423408028925019e-05,1.622161672792048041e-04
2.930952380952380754e+00,1.007739621568490317e-04,9.868069165752010028e-05
2.931746031746031544e+00,8.713797884930218039e-05,3.479566623451449175e-05
2.932539682539682335e+00,6.024089433054637935e-05,-2.054827063867053230e-05
2.933333333333333126e+00,2.783803280061909350e-05,-6.131269036062511005e-05
2.934126984126983917e+00,-3.442633228840133672e-07,-8.521657945163937269e-05
2.934920634920634708e+00,-1.474815140810550517e-05,-9.372341187194292039e-05
2.935714285714285499e+00,-8.536535810204340361e-06,-9.119412115908057917e-05
2.936507936507936289e+00,2.013362370099619950e-05,-8.351311479776794236e-05
2.937301587301587080e+00,6.685681221424261101e-05,-7.658302847161243252e-05
2.938095238095238315e+00,1.212972068980952014e-04,-7.503095928135791249e-05
2.938888888888889106e+00,1.692533700625286491e-04,-8.133311061988949837e-05
2.939682539682539897e+00,1.961387510818220605e-04,-9.542784315647040308e-05
2.940476190476190688e+00,1.910261302148057454e-04,-1.148004594730413864e-04
2.941269841269841478e+00,1.500509515577573821e-04,-1.349845460834500188e-04
2.942063492063492269e+00,7.800684189289570079e-05,-1.504003842406861403e-04
2.942857142857143060e+00,-1.251043351475584723e-05,-1.554154096278179142e-04
2.943650793650793851e+00,-1.042227759650692374e-04,-1.454710999078996246e-04
2.944444444444444642e+00,-1.795925837583440296e-04,-1.181013028568690182e-04
2.945238095238095433e+00,-2.251955854335163632e-04,-7.368162982705657178e-05
2.946031746031746223e+00,-2.347832250221606456e-04,-1.577993336087793122e-05
2.946825396825397014e+00,-2.102469525427710115e-04,4.899774656963091672e-05
2.947619047619047805e+00,-1.603586469174243725e-04,1.117388238501037308e-04
2.948412698412698596e+00,-9.782497688506879951e-05,1.625255112998056424e-04
2.949206349206349387e+00,-3.567603696656526142e-05,1.921584574005379359e-04
2.950000000000000178e+00,1.586097630900173958e-05,1.940058772475788018e-04
2.950793650793650968e+00,5.113841644908583207e-05,1.655940370870500927e-04
2.951587301587301759e+00,6.922560849522176854e-05,1.095687780546964276e-04
2.952380952380952550e+00,7.271850655985722940e-05,3.376162412235866390e-05
2.953174603174603341e+00,6.591754047433691539e-05,-4.974858985153132572e-05
2.953968253968254132e+00,5.312725864522165601e-05,-1.265084919998927875e-04
2.954761904761904923e+00,3.760050332991045786e-05,-1.822454649598165939e-04
2.955555555555555713e+00,2.127820354532443679e-05,-2.056851556433007041e-04
2.956349206349206504e+00,5.147005569325957121e-06,-1.910784929011268582e-04
2.957142857142857295e+00,-1.012648162777746094e-05,-1.398245502899884171e-04
2.957936507936508086e+00,-2.361898256647485854e-05,-6.064140049254854598e-05
2.958730158730158877e+00,-3.386370171728996485e-05,3.200618366726330825e-05
2.959523809523809668e+00,-3.896087263003814781e-05,1.210492681299673792e-04
2.960317460317460458e+00,-3.706896144756892993e-05,1.907937718972143877e-04
2.961111111111111249e+00,-2.713141486770416031e-05,2.305925723426988734e-04
2.961904761904762040e+00,-9.574381113304638539e-06,2.370634412869504525e-04
2.962698412698412831e+00,1.334662710890092109e-05,2.141728886109981475e-04
2.963492063492063622e+00,3.779774130531685897e-05,1.712519338627025583e-04
2.964285714285714413e+00,5.922979952847510159e-05,1.197121923819087518e-04
2.965079365079365203e+00,7.356759671789911447e-05,6.962173074426245326e-05
2.965873015873015994e+00,7.825342320278577419e-05,2.726067783230699671e-05
2.966666666666666785e+00,7.274000286447330512e-05,-5.654828082670637976e-06
2.967460317460317576e+00,5.831310236380224453e-05,-3.104264489789995940e-05
2.968253968253968367e+00,3.744438471339713487e-05,-5.240089215264390210e-05
2.969047619047619158e+00,1.304631243690008065e-05,-7.256423324273888955e-05
2.969841269841269948e+00,-1.204898006531636867e-05,-9.216005556393345771e-05
2.970634920634920739e+00,-3.528009433114229757e-05,-1.092643992087476997e-04
2.971428571428571530e+00,-5.434778955627402595e-05,-1.202271382783631515e-04
2.972222222222222321e+00,-6.724870098188280023e-05,-1.212096500297225920e-04
2.973015873015873112e+00,-7.251002932584133822e-05,-1.098000622087995257e-04
2.973809523809523903e+00,-6.958359571125104031e-05,-8.613681503265313306e-05
2.974603174603174693e+00,-5.918708752496895615e-05,-5.319067881807996382e-05
2.975396825396825484e+00,-4.334732589127766503e-05,-1.613978636688928118e-05
2.976190476190476275e+00,-2.501837524448778216e-05,1.894063065202967431e-05
2.976984126984127066e+00,-7.346572176097047072e-06,4.663062063474325667e-05
2.977777777777777857e+00,7.174683241899613978e-06,6.344574669440108017e-05
2.978571428571428648e+00,1.736183113827018194e-05,6.845525891470793218e-05
2.979365079365079438e+00,2.358410021617615067e-05,6.311618081001378144e-05
2.980158730158730229e+00,2.751625193485903435e-05,5.048836015577874399e-05
2.980952380952381020e+00,3.148250454679432620e-05,3.418506467781897367e-05
2.981746031746031811e+00,3.759154524726890449e-05,1.744933945279386164e-05
2.982539682539682602e+00,4.691945034595353808e-05,2.634532311236032016e-06
2.983333333333333393e+00,5.898588074978903070e-05,-8.838647285291613819e-06
2.984126984126984183e+00,7.169414141710883951e-05,-1.619288119073268028e-05
2.984920634920634974e+00,8.178320429987107380e-05,-1.895334980793550323e-05
2.985714285714285765e+00,8.569359097985220766e-05,-1.682580302232710641e-05
2.986507936507936556e+00,8.061298695910255907e-05,-9.903757205299887386e-06
2.987301587301587347e+00,6.538717999949733844e-05,9.214490096742110027e-07
2.988095238095238138e+00,4.100002307778027427e-05,1.365684707212836183e-05
2.988888888888888928e+00,1.045170123201307781e-05,2.533077898536901086e-05
2.989682539682539719e+00,-2.194230928387231081e-05,3.267169327931001741e-05
2.990476190476190510e+00,-5.161913358752673011e-05,3.316539359797870474e-05
2.991269841269841301e+00,-7.487245530462596224e-05,2.605957597341327023e-05
2.992063492063492092e+00,-8.965539014527479172e-05,1.283647306593559010e-05
2.992857142857142883e+00,-9.584593955039225467e-05,-3.125444590868425546e-06
2.993650793650793673e+00,-9.490442793560989248e-05,-1.762967500527962063e-05
2.994444444444444464e+00,-8.903927498325888649e-05,-2.708583474142270466e-05
2.995238095238095255e+00,-8.017727521907137074e-05,-2.973924333877874101e-05
2.996031746031746046e+00,-6.915609718042287492e-05,-2.624477097350601273e-05
2.996825396825396837e+00,-5.552631264271288972e-05,-1.937776178323478076e-05
2.997619047619047628e+00,-3.811347538236190593e-05,-1.299437032980077213e-05
2.998412698412698418e+00,-1.612952571020505121e-05,-1.061968338299389174e-05
2.999206349206349209e+00,9.676397437512506740e-06,-1.416418995302972761e-05
3.000000000000000000e+00,3.641310479158937875e-05,-2.321269989131653731e-05
3.000793650793650791e+00,5.937852511573096792e-05,-3.512382537539527060e-05
3.001587301587301582e+00,7.332680097467092993e-05,-4.590030619624534477e-05
3.002380952380952372e+00,7.424728145434857909e-05,-5.153427923175129226e-05
3.003174603174603163e+00,6.095943564862047370e-05,-4.937460588856665240e-05
3.003968253968253954e+00,3.584738817036983418e-05,-3.905172637513062652e-05
3.004761904761904745e+00,4.389273489802509004e-06,-2.263890023020370505e-05
3.005555555555555536e+00,-2.636412217349506915e-05,-3.990914201179451063e-06
3.006349206349206327e+00,-4.979080417796871223e-05,1.250379973805373337e-05
3.007142857142857117e+00,-6.147254927757731695e-05,2.330621767050769004e-05
3.007936507936507908e+00,-6.020042875631456366e-05,2.674723770039301934e-05
3.008730158730158699e+00,-4.799630411259508424e-05,2.333447822949167262e-05
3.009523809523809490e+00,-2.926095029267965455e-05,1.527563247172871225e-05
3.010317460317460281e+00,-9.378215817046800626e-06,5.450045424289987598e-06
3.011111111111111072e+00,6.803650150697870003e-06,-3.737643424060215555e-06
3.011904761904761862e+00,1.620690091060028538e-05,-1.115957062897812699e-05
3.012698412698412653e+00,1.816879426337817104e-05,-1.711294848367465909e-05
3.013492063492063444e+00,1.435738005191417949e-05,-2.278059009222633917e-05
3.014285714285714235e+00,8.024217573583246010e-06,-2.926224746826940962e-05
3.015079365079365026e+00,2.844891378730732281e-06,-3.662462444649162632e-05
3.015873015873015817e+00,1.708200997936636248e-06,-4.341537588258202832e-05
3.016666666666666607e+00,5.816367565836845567e-06,-4.688630045316169031e-05
3.017460317460317398e+00,1.435214249053388398e-05,-4.386644424078137795e-05
3.018253968253968189e+00,2.478781556225951945e-05,-3.195865523238689048e-05
3.019047619047618980e+00,3.371444636555296834e-05,-1.061176699158752661e-05
3.019841269841269771e+00,3.792058231929460046e-05,1.832587825970870079e-05
3.020634920634920562e+00,3.539012349873597559e-05,5.078029773817189081e-05
3.021428571428571352e+00,2.592728315248274759e-05,8.132293878704861931e-05
3.022222222222222143e+00,1.123404344291855998e-05,1.044928726582263899e-04
3.023015873015872934e+00,-5.572037289290583365e-06,1.161871051542673642e-04
3.023809523809523725e+00,-2.084525567048302609e-05,1.147142866691038736e-04
3.024603174603174516e+00,-3.142441338286452909e-05,1.012092191351802160e-04
3.025396825396825307e+00,-3.545195387421145981e-05,7.929678408166025672e-05
3.026190476190476097e+00,-3.275561621908021224e-05,5.410898244455664727e-05
3.026984126984126888e+00,-2.471372479237591275e-05,3.093764316894269086e-05
3.027777777777777679e+00,-1.370735343132859414e-05,1.390597051923209447e-05
3.028571428571428470e+00,-2.382740802694328217e-06,5.032851668454906807e-06
3.029365079365079261e+00,7.031762289519274455e-06,3.936820366351052508e-06
3.030158730158730052e+00,1.317450084371677158e-05,8.220365209728836700e-06
3.030952380952380842e+00,1.569257076313997922e-05,1.436425331072399134e-05
3.031746031746031633e+00,1.510808722402033097e-05,1.881933140172651313e-05
3.032539682539682424e+00,1.250657304774252008e-05,1.895590686486298298e-05
3.033333333333333215e+00,9.165094735445424761e-06,1.362193340056916295e-05
3.034126984126984006e+00,6.220264921551067451e-06,3.224670735555429205e-06
3.034920634920634797e+00,4.440618559747257948e-06,-1.059018929733511787e-05
3.035714285714285587e+00,4.129492947322639883e-06,-2.549367522659309171e-05
3.036507936507936378e+00,5.151143801810760956e-06,-3.907959792295327212e-05
3.037301587301587169e+00,7.048529578588791955e-06,-4.937771940076832492e-05
3.038095238095237960e+00,9.208844119232929281e-06,-5.518980692244309229e-05
3.038888888888888751e+00,1.103244386343605934e-05,-5.621963617106547778e-05
3.039682539682539542e+00,1.206901948751067960e-05,-5.300963159312784814e-05
3.040476190476190332e+00,1.209785483352863050e-05,-4.672488574659507647e-05
3.041269841269841123e+00,1.114425073194950558e-05,-3.884293614539133401e-05
3.042063492063491914e+00,9.439313890567466097e-06,-3.081790746461355777e-05
3.042857142857142705e+00,7.341883072350350154e-06,-2.379058435512750283e-05
3.043650793650793496e+00,5.246139057407747432e-06,-1.840685255774209876e-05
3.044444444444444287e+00,3.495945583485612597e-06,-1.478042210311049990e-05
3.045238095238095077e+00,2.320258023197112112e-06,-1.259545156027845995e-05
3.046031746031745868e+00,1.797170138549853571e-06,-1.130517071190120488e-05
3.046825396825396659e+00,1.849250497211445809e-06,-1.035916524954632979e-05
3.047619047619047450e+00,2.268937306984378078e-06,-9.390638094947736529e-06
3.048412698412698241e+00,2.768736042007269175e-06,-8.312546878651921067e-06
3.049206349206349032e+00,3.046954207926284544e-06,-7.300830991675806002e-06
3.049999999999999822e+00,2.856796505411606594e-06,-6.675513310891726721e-06
3.050793650793650613e+00,2.065670568756020888e-06,-6.718694529035593697e-06
3.051587301587301404e+00,6.925866507712065652e-07,-7.487600737306704409e-06
3.052380952380952195e+00,-1.085635413968069571e-06,-8.687188006259918336e-06
3.053174603174602986e+00,-2.963913347433908655e-06,-9.655745246422619210e-06
3.053968253968253777e+00,-4.572028067009338407e-06,-9.487168537330744440e-06
3.054761904761904567e+00,-5.560723140119052653e-06,-7.272388527735732418e-06
3.055555555555555358e+00,-5.690892179919291333e-06,-2.403447676028860403e-06
3.056349206349206149e+00,-4.898396895450293556e-06,5.140938365343166426e-06
3.057142857142856940e+00,-3.307265234565465184e-06,1.461509895073224458e-05
3.057936507936507731e+00,-1.178734814340077495e-06,2.450644635498141379e-05
3.058730158730158522e+00,1.188570153022674629e-06,3.276236495767395423e-05
3.059523809523809312e+00,3.565228179948316086e-06,3.723877908060021548e-05
3.060317460317460103e+00,5.854368118450317424e-06,3.628714721274214569e-05
3.061111111111110894e+00,8.079764195679357640e-06,2.931349002110991684e-05
3.061904761904761685e+00,1.030173431917200239e-05,1.710237029132402129e-05
3.062698412698412920e+00,1.249861519684943400e-05,1.741933586691129194e-06
3.063492063492063711e+00,1.447002720367078408e-05,-1.388749776289868306e-05
3.064285714285714501e+00,1.581231809260268362e-05,-2.693672789881274181e-05
3.065079365079365292e+00,1.598895458519753617e-05,-3.546908684184037506e-05
3.065873015873016083e+00,1.448078839734553149e-05,-3.910404030785067530e-05
3.066666666666666874e+00,1.096844763417954948e-05,-3.918764365862695644e-05
3.067460317460317665e+00,5.484090617455220800e-06,-3.839345909194823056e-05
3.068253968253968456e+00,-1.522531798796488559e-06,-3.983114078182413100e-05
3.069047619047619246e+00,-9.231960861373772012e-06,-4.590158158695967580e-05
3.069841269841270037e+00,-1.660988704978577036e-05,-5.724109343136530865e-05
3.070634920634920828e+00,-2.263104662261916051e-05,-7.210259587800533999e-05
3.071428571428571619e+00,-2.651579815668766367e-05,-8.641735547433758370e-05
3.072222222222222410e+00,-2.791870865417633816e-05,-9.459818002335266141e-05
3.073015873015873201e+00,-2.701740054416489883e-05,-9.094077628040903353e-05
3.073809523809523991e+00,-2.447215947267559309e-05,-7.130035572286933128e-05
3.074603174603174782e+00,-2.125993700410036189e-05,-3.459444638536841480e-05
3.075396825396825573e+00,-1.842126917298062583e-05,1.635196910947290353e-05
3.076190476190476364e+00,-1.678317852036500989e-05,7.499105225707265265e-05
3.076984126984127155e+00,-1.672805956571949662e-05,1.323510502040690722e-04
3.077777777777777946e+00,-1.806812612284621001e-05,1.791338555951921014e-04
3.078571428571428736e+00,-2.006170974856577303e-05,2.079533098286488269e-04
3.079365079365079527e+00,-2.157625078095644098e-05,2.149710571221724695e-04
3.080158730158730318e+00,-2.136739499180728160e-05,2.004360643370073369e-04
3.080952380952381109e+00,-1.841035328894754348e-05,1.680877489205439125e-04
3.081746031746031900e+00,-1.219859467737834552e-05,1.237914147818765644e-04
3.082539682539682691e+00,-2.926749109915889549e-06,7.395825849432547164e-05
3.083333333333333481e+00,8.496431893719845073e-06,2.424578285212683224e-05
3.084126984126984272e+00,2.061048110572337612e-05,-2.116717142741725708e-05
3.084920634920635063e+00,3.169512519126600520e-05,-5.967614404896309506e-05
3.085714285714285854e+00,4.011067781868978059e-05,-8.986614893105665189e-05
3.086507936507936645e+00,4.459837065926483264e-05,-1.109195081123649405e-04
3.087301587301587436e+00,4.447266378234903642e-05,-1.221163925214217459e-04
3.088095238095238226e+00,3.967682136688705267e-05,-1.226570357808031266e-04
3.088888888888889017e+00,3.071554048696968056e-05,-1.118882894956811403e-04
3.089682539682539808e+00,1.850900910016065306e-05,-8.984076361385194033e-05
3.090476190476190599e+00,4.223053333065716496e-06,-5.783790241613943612e-05
3.091269841269841390e+00,-1.087910013618218008e-05,-1.888141045960948860e-05
3.092063492063492181e+00,-2.553976455728965129e-05,2.242650650489276109e-05
3.092857142857142971e+00,-3.856738988900459123e-05,6.050989395596854237e-05
3.093650793650793762e+00,-4.888055565505327986e-05,8.987791007376999964e-05
3.094444444444444553e+00,-5.556973405522414657e-05,1.063202832294454022e-04
3.095238095238095344e+00,-5.799772252674030863e-05,1.078671207795463873e-04
3.096031746031746135e+00,-5.592660406927947369e-05,9.520795046630753161e-05
3.096825396825396925e+00,-4.962345211524892794e-05,7.144801292588671764e-05
3.097619047619047716e+00,-3.988249764567248189e-05,4.129489021840778015e-05
3.098412698412698507e+00,-2.792198640813059755e-05,9.929312724112929767e-06
3.099206349206349298e+00,-1.516180953549880225e-05,-1.812243049120296104e-05
3.100000000000000089e+00,-2.938885092958275542e-06,-3.982582353390592424e-05
3.100793650793650880e+00,7.753621870179967928e-06,-5.399249207267168633e-05
3.101587301587301670e+00,1.642204416786989890e-05,-6.110100525387261023e-05
3.102380952380952461e+00,2.307712809236799043e-05,-6.269888148073549236e-05
3.103174603174603252e+00,2.809375000812617507e-05,-6.063979591493526354e-05
3.103968253968254043e+00,3.198015974699832607e-05,-5.645218021063557254e-05
3.104761904761904834e+00,3.514165796477124355e-05,-5.104394358292809998e-05
3.105555555555555625e+00,3.772400519049485060e-05,-4.477020873678560093e-05
3.106349206349206415e+00,3.959092450105258857e-05,-3.773020926504909580e-05
3.107142857142857206e+00,4.043785012506499515e-05,-3.009273281308541672e-05
3.107936507936507997e+00,3.999013149262200899e-05,-2.228212148888239456e-05
3.108730158730158788e+00,3.819978759930100180e-05,-1.495040248455639069e-05
3.109523809523809579e+00,3.535471405205327860e-05,-8.776198962707597114e-06
3.110317460317460370e+00,3.204865368924948797e-05,-4.230239297549791614e-06
3.111111111111111160e+00,2.901640023772993280e-05,-1.479244685332894487e-06
3.111904761904761951e+00,2.689445261538370033e-05,-5.246840669103474321e-07
3.112698412698412742e+00,2.599931188317819821e-05,-1.518803801607507798e-06
3.113492063492063533e+00,2.621020228452261639e-05,-5.063575801745022114e-06
3.114285714285714324e+00,2.700345469821566273e-05,-1.226133185112995121e-05
3.115079365079365115e+00,2.762926399038730913e-05,-2.436168443670446197e-05
3.115873015873015905e+00,2.736912840993479686e-05,-4.201054820140996584e-05
3.116666666666666696e+00,2.578053236404656055e-05,-6.432135787873913149e-05
3.117460317460317487e+00,2.283389848501601182e-05,-8.818810348135053994e-05
3.118253968253968278e+00,1.887945307961217187e-05,-1.083120847207505726e-04
3.119047619047619069e+00,1.444431876639737664e-05,-1.182033408722672817e-04
3.119841269841269860e+00,9.933059380766879340e-06,-1.119897481224823541e-04
3.120634920634920650e+00,5.353605176677610275e-06,-8.644749897696619859e-05
3.121428571428571441e+00,1.867459078109582676e-07,-4.249164016221667662e-05
3.122222222222222232e+00,-6.537129824707805542e-06,1.448562208335404835e-05
3.123015873015873023e+00,-1.596555867852121781e-05,7.564798630706586207e-05
3.123809523809523814e+00,-2.903014376595937105e-05,1.308543009381967165e-04
3.124603174603174605e+00,-4.604030384662013915e-05,1.712323148950914236e-04
3.125396825396825395e+00,-6.637920695000868007e-05,1.913441765747858831e-04
3.126190476190476186e+00,-8.839541169083304562e-05,1.902556832108438431e-04
3.126984126984126977e+00,-1.095379926571704837e-04,1.712486040343273415e-04
3.127777777777777768e+00,-1.267198078114021523e-04,1.404146572560404467e-04
3.128571428571428559e+00,-1.368311214581053648e-04,1.047161712425095166e-04
3.129365079365079350e+00,-1.372878636618443682e-04,7.018310112489677501e-05
3.130158730158730140e+00,-1.265004112036599202e-04,4.076309075120188464e-05
3.130952380952380931e+00,-1.041850582340360213e-04,1.804107501520956828e-05
3.131746031746031722e+00,-7.148962543574208890e-05,1.712449369806581776e-06
3.132539682539682513e+00,-3.094177785826168986e-05,-9.552718346891432178e-06
3.133333333333333304e+00,1.376035147779610388e-05,-1.729571525198596139e-05
3.134126984126984095e+00,5.810444301606327157e-05,-2.284186828499440094e-05
3.134920634920634885e+00,9.726300014512639035e-05,-2.735763100414758685e-05
3.135714285714285676e+00,1.267149245720818388e-04,-3.221745149027921114e-05
3.136507936507936467e+00,1.429281368426212843e-04,-3.931815395116132700e-05
3.137301587301587258e+00,1.439918828781370510e-04,-5.096455361486190217e-05
3.138095238095238049e+00,1.300554573065146107e-04,-6.913327992682037463e-05
3.138888888888888840e+00,1.034384868273702268e-04,-9.424867288567729520e-05
3.139682539682539630e+00,6.833479128973141137e-05,-1.239469443724048161e-04
3.140476190476190421e+00,3.012708444107948275e-05,-1.524894229459947245e-04
3.141269841269841212e+00,-5.562300817177097632e-06,-1.713739164959875822e-04
3.142063492063492003e+00,-3.387291493389687108e-05,-1.712811890772163561e-04
3.142857142857142794e+00,-5.151643709410315289e-05,-1.449411092187272902e-04
3.143650793650793585e+00,-5.719732645125861174e-05,-9.004361251220732753e-05
3.144444444444444375e+00,-5.156394913080183310e-05,-1.114065656445026355e-05
3.145238095238095166e+00,-3.676277053340533526e-05,8.032069747024075924e-05
3.146031746031745957e+00,-1.579054573524935236e-05,1.681418939959455656e-04
3.146825396825396748e+00,8.124473141872224312e-06,2.352433415549831869e-04
3.147619047619047539e+00,3.194455569186503176e-05,2.681311820690087527e-04
3.148412698412698330e+00,5.300466783577836692e-05,2.605297900724036172e-04
3.149206349206349120e+00,6.903410350006708148e-05,2.149909900272887195e-04
3.149999999999999911e+00,7.816314639424589111e-05,1.419869838010596119e-04
3.150793650793650702e+00,7.904638288709757183e-05,5.684670414901739848e-05
3.151587301587301493e+00,7.114674427100180286e-05,-2.443757391978219212e-05
3.152380952380952284e+00,5.509778984949983532e-05,-8.923712276477474526e-05
3.153174603174603075e+00,3.295495540661505838e-05,-1.310001197064763524e-04
3.153968253968253865e+00,8.123431791878709261e-06,-1.499654403332368105e-04
3.154761904761904656e+00,-1.515823436461908931e-05,-1.518187350536565484e-04
3.155555555555555447e+00,-3.272485441341930205e-05,-1.448696410589685754e-04
3.156349206349206238e+00,-4.154840938787393855e-05,-1.367874582928941434e-04
3.157142857142857029e+00,-4.062331909206229644e-05,-1.320331891372423139e-04
3.157936507936507819e+00,-3.135730677991624036e-05,-1.308077678578737572e-04
3.158730158730158610e+00,-1.729207821403241167e-05,-1.297256231341810504e-04
3.159523809523809401e+00,-3.194497692002501887e-06,-1.237719320243040662e-04
3.160317460317460192e+00,6.222551929409194781e-06,-1.086630436196373749e-04
3.161111111111110983e+00,7.554771009519285664e-06,-8.265938066665975655e-05
3.161904761904761774e+00,-4.497117628955511077e-07,-4.719261558080658928e-05
3.162698412698412564e+00,-1.669017284577834742e-05,-6.219701518097094258e-06
3.163492063492063355e+00,-3.816140550932441849e-05,3.525344398816862752e-05
3.164285714285714146e+00,-6.085103652167585145e-05,7.277300687649624201e-05
3.165079365079364937e+00,-8.077821546765956136e-05,1.035478915132295350e-04
3.165873015873015728e+00,-9.486631553985444088e-05,1.267779259371931938e-04
3.166666666666666519e+00,-1.014288825033876602e-04,1.432497346481975242e-04
3.167460317460317309e+00,-1.001873866797814373e-04,1.544666884603125708e-04
3.168253968253968100e+00,-9.189434425034784400e-05,1.616597943466750579e-04
3.169047619047618891e+00,-7.776159041649679680e-05,1.650289159647187114e-04
3.169841269841269682e+00,-5.894594349086021282e-05,1.635090775218666075e-04
3.170634920634920473e+00,-3.629917680024257690e-05,1.552034826809819328e-04
3.171428571428571264e+00,-1.046289661893024592e-05,1.383606190627222239e-04
3.172222222222222054e+00,1.776456361004496819e-05,1.125033403896371617e-04
3.173015873015872845e+00,4.698115740379789807e-05,7.921049491082888052e-05
3.173809523809523636e+00,7.488969825868742314e-05,4.218041540267874611e-05
3.174603174603174427e+00,9.835368682722909497e-05,6.492870692509105031e-06
3.175396825396825218e+00,1.138723580366167220e-04,-2.271012908448238917e-05
3.176190476190476009e+00,1.183859638118645187e-04,-4.169487035124545159e-05
3.176984126984126799e+00,1.101752580057890776e-04,-4.927000332702764627e-05
3.177777777777777590e+00,8.954748500135110739e-05,-4.720014707349775104e-05
3.178571428571428381e+00,5.904467382297294266e-05,-3.974483012570688721e-05
3.179365079365079172e+00,2.306086508264858489e-05,-3.244876848218086345e-05
3.180158730158729963e+00,-1.304391554391288628e-05,-3.054820782626676141e-05
3.180952380952380754e+00,-4.407275073359174144e-05,-3.747656596934288248e-05
3.181746031746031544e+00,-6.602658441142864119e-05,-5.390996943439873185e-05
3.182539682539682335e+00,-7.675467534747205500e-05,-7.760386284802121804e-05
3.183333333333333126e+00,-7.608402338056919430e-05,-1.040079307860213194e-04
3.184126984126983917e+00,-6.548501073636549198e-05,-1.274111343987511516e-04
3.184920634920634708e+00,-4.748023358255657595e-05,-1.422479504035542726e-04
3.185714285714285499e+00,-2.504745255208952476e-05,-1.442244904560066794e-04
3.186507936507936289e+00,-1.198741917145016664e-06,-1.310677057377886948e-04
3.187301587301587080e+00,2.121782916623341569e-05,-1.028761072263353638e-04
3.188095238095238315e+00,3.958001133420219642e-05,-6.216076501455740008e-05
3.188888888888889106e+00,5.157115603709066962e-05,-1.366676662490888860e-05
3.189682539682539897e+00,5.540721799167850058e-05,3.601556306118563501e-05
3.190476190476190688e+00,5.022998913059979032e-05,7.913227647659282758e-05
3.191269841269841478e+00,3.653932275840760994e-05,1.078422878702276708e-04
3.192063492063492269e+00,1.643351442710016102e-05,1.156846590796960510e-04
3.192857142857143060e+00,-6.562339084449078813e-06,9.922574147569238165e-05
3.193650793650793851e+00,-2.815936723048113085e-05,5.946562314187583492e-05
3.194444444444444642e+00,-4.432663354668068883e-05,2.483781203369655707e-06
3.195238095238095433e+00,-5.235732486828749074e-05,-6.110522190754582444e-05
3.196031746031746223e+00,-5.160321660604694205e-05,-1.180142547491992055e-04
3.196825396825397014e+00,-4.359405780117918351e-05,-1.551600800499706382e-04
3.197619047619047805e+00,-3.147459948523371575e-05,-1.628546904669368094e-04
3.198412698412698596e+00,-1.894466128484285011e-05,-1.374227334807065644e-04
3.199206349206349387e+00,-9.072585500530930933e-06,-8.244394752872381403e-05
3.200000000000000178e+00,-3.395711530096440262e-06,-8.158753646741564972e-06
3.200793650793650968e+00,-1.609815326800801608e-06,7.091322599589925779e-05
3.201587301587301759e+00,-1.929496028278193046e-06,1.395315507977354136e-04
3.202380952380952550e+00,-1.957161559492058884e-06,1.854381120496408964e-04
3.203174603174603341e+00,2.817037428935896992e-07,2.020953427721090996e-04
3.203968253968254132e+00,5.532337578339056385e-06,1.896989098751859901e-04
3.204761904761904923e+00,1.303739731606432188e-05,1.543309771577324634e-04
3.205555555555555713e+00,2.089565272372511889e-05,1.057258644267223765e-04
3.206349206349206504e+00,2.690583227042970862e-05,5.446482359812997479e-05
3.207142857142857295e+00,2.955302380702314884e-05,9.440236956377404492e-06
3.207936507936508086e+00,2.872749031829202186e-05,-2.378890288396571896e-05
3.208730158730158877e+00,2.585874685002352525e-05,-4.346933900035837019e-05
3.209523809523809668e+00,2.337183328932238111e-05,-5.103829916307137880e-05
3.210317460317460458e+00,2.364655615363098489e-05,-4.981541120191872353e-05
3.211111111111111249e+00,2.788037927116245054e-05,-4.355950306089836563e-05
3.211904761904762040e+00,3.533044379290669560e-05,-3.538832092931654263e-05
3.212698412698412831e+00,4.329483422338218236e-05,-2.730659169839734968e-05
3.213492063492063622e+00,4.791625802296688408e-05,-2.029048121841097553e-05
3.214285714285714413e+00,4.555645225262985876e-05,-1.468513228981098655e-05
3.215079365079365203e+00,3.423655637088945919e-05,-1.063333507216540401e-05
3.215873015873015994e+00,1.458166011894822886e-05,-8.325282288686032162e-06
3.216666666666666785e+00,-1.011757402283619126e-05,-7.984680829724808413e-06
3.217460317460317576e+00,-3.477415783911149403e-05,-9.644549308042536597e-06
3.218253968253968367e+00,-5.399587318370792962e-05,-1.287831037522306026e-05
3.219047619047619158e+00,-6.366816760925113198e-05,-1.669215412784895081e-05
3.219841269841269948e+00,-6.209579894085480629e-05,-1.971797924114081617e-05
3.220634920634920739e+00,-5.036304946831668264e-05,-2.068746762644801501e-05
3.221428571428571530e+00,-3.186215876840907879e-05,-1.900060762388787523e-05
3.222222222222222321e+00,-1.120974857704073121e-05,-1.512903566857159532e-05
3.223015873015873112e+00,7.064324114472469345e-06,-1.065371670812739905e-05
3.223809523809523903e+00,1.964775951970487071e-05,-7.878368218409068148e-06
3.224603174603174693e+00,2.509252006561193317e-05,-9.109421319752340930e-06
3.225396825396825484e+00,2.385598438710682628e-05,-1.580927843824154956e-05
3.226190476190476275e+00,1.781295844456584425e-05,-2.789555711693930202e-05
3.226984126984127066e+00,9.471404655061044090e-06,-4.344584902017646443e-05
3.227777777777777857e+00,1.194419671812658069e-06,-5.895459692450376175e-05
3.228571428571428648e+00,-5.309174014708351521e-06,-7.011247168682922576e-05
3.229365079365079438e+00,-9.097146591712782280e-06,-7.291299744927105570e-05
3.230158730158730229e+00,-9.754445299604754677e-06,-6.478517540555021631e-05
3.230952380952381020e+00,-6.994340578126997047e-06,-4.542119565040111061e-05
3.231746031746031811e+00,-3.570571656317643233e-07,-1.703099386727136729e-05
3.232539682539682602e+00,1.078386156262618044e-05,1.608144062071503161e-05
3.233333333333333393e+00,2.684381386800337656e-05,4.850091891732873095e-05
3.234126984126984183e+00,4.740384327012501326e-05,7.493171079228492550e-05
3.234920634920634974e+00,7.061797695413468809e-05,9.129863176721252484e-05
