Timestamp,Flexor carpi radialis,Extensor digitorum
2.000000000000000000e+00,-6.281096942281596964e-06,-8.692747244609765118e-06
2.000793650793650791e+00,-2.467704632739525377e-06,-7.996783810281345978e-06
2.001587301587301582e+00,2.285207075850099726e-06,-8.138983590511478621e-06
2.002380952380952372e+00,7.881694743214529255e-06,-8.684071765047053914e-06
2.003174603174603163e+00,1.385385562604802953e-05,-9.020320302180374832e-06
2.003968253968253954e+00,1.939325831943747769e-05,-8.566572818017806893e-06
2.004761904761904745e+00,2.351265015964661091e-05,-6.933466327071848846e-06
2.005555555555555536e+00,2.529098811842238491e-05,-4.017816821917898923e-06
2.006349206349206327e+00,2.412877431168459808e-05,-3.103452906696340564e-08
2.007142857142857117e+00,1.993981244121287018e-05,4.522333114555650586e-06
2.007936507936507908e+00,1.322316876137785330e-05,8.899051767738405319e-06
2.008730158730158699e+00,4.987534623201159335e-06,1.220462378242941869e-05
2.009523809523809490e+00,-3.463082983862839567e-06,1.353401831625685288e-05
2.010317460317460281e+00,-1.083093419686326029e-05,1.218102168957810606e-05
2.011111111111111072e+00,-1.612671120958137166e-05,7.886000122608463351e-06
2.011904761904761862e+00,-1.887813262871060381e-05,1.032333642655939253e-06
2.012698412698412653e+00,-1.918091367948091290e-05,-7.317828971698282747e-06
2.013492063492063444e+00,-1.758450416357709023e-05,-1.560655243563641327e-05
2.014285714285714235e+00,-1.486268619263183566e-05,-2.214303190676474446e-05
2.015079365079365026e+00,-1.175546076232625095e-05,-2.552745215566364369e-05
2.015873015873015817e+00,-8.771328892082543756e-06,-2.499932272782957014e-05
2.016666666666666607e+00,-6.108463619348161351e-06,-2.061578211412111233e-05
2.017460317460317398e+00,-3.702607091678456790e-06,-1.323032911041710456e-05
2.018253968253968189e+00,-1.360287733003510947e-06,-4.297274526780809846e-06
2.019047619047618980e+00,1.091588097207106519e-06,4.440931123143130403e-06
2.019841269841269771e+00,3.704376035968671165e-06,1.131407173487852222e-05
2.020634920634920562e+00,6.387350062088186656e-06,1.506144095250444012e-05
2.021428571428571352e+00,8.959130573361213980e-06,1.508119987332939797e-05
2.022222222222222143e+00,1.123061654419003986e-05,1.154376811203576244e-05
2.023015873015872934e+00,1.307208980720846300e-05,5.349931939741172611e-06
2.023809523809523725e+00,1.443248519350324373e-05,-2.052774232212847286e-06
2.024603174603174516e+00,1.530498550861351904e-05,-8.956167293825169069e-06
2.025396825396825307e+00,1.565785265589841093e-05,-1.372769908670209391e-05
2.026190476190476097e+00,1.536506357711009478e-05,-1.514171929504624421e-05
2.026984126984126888e+00,1.417481056478083986e-05,-1.265234659030408122e-05
2.027777777777777679e+00,1.174480617279497994e-05,-6.559010820718184073e-06
2.028571428571428470e+00,7.752160944677115455e-06,1.974268535305408941e-06
2.029365079365079261e+00,2.055255967845369881e-06,1.106607405975251068e-05
2.030158730158730052e+00,-5.145470509954203550e-06,1.842664082329570287e-05
2.030952380952380842e+00,-1.321649860193933658e-05,2.179934488778498324e-05
2.031746031746031633e+00,-2.112619978404158203e-05,1.948082781269440311e-05
2.032539682539682424e+00,-2.762074762435304042e-05,1.083361990078008738e-05
2.033333333333333215e+00,-3.150108862629768196e-05,-3.338519291599470292e-06
2.034126984126984006e+00,-3.191803447404540554e-05,-2.071128784272577506e-05
2.034920634920634797e+00,-2.859293350836396950e-05,-3.777509129569014772e-05
2.035714285714285587e+00,-2.189931648491243299e-05,-5.056667665362899882e-05
2.036507936507936378e+00,-1.278948442036696424e-05,-5.560755486754084836e-05
2.037301587301587169e+00,-2.594881395602752335e-06,-5.077247028661980162e-05
2.038095238095237960e+00,7.243719516574200942e-06,-3.586026222116068428e-05
2.038888888888888751e+00,1.545091527773321882e-05,-1.275100178402928626e-05
2.039682539682539542e+00,2.113515377108734160e-05,1.488471084781005153e-05
2.040476190476190332e+00,2.390543185242883646e-05,4.229530686664838496e-05
2.041269841269841123e+00,2.386711996579520220e-05,6.464543746199574790e-05
2.042063492063491914e+00,2.151146542813662827e-05,7.805307758065369961e-05
2.042857142857142705e+00,1.754330780988069751e-05,8.038289958088262158e-05
2.043650793650793496e+00,1.270462112861320089e-05,7.159752294787616377e-05
2.044444444444444287e+00,7.642198627202090696e-06,5.361744642536437949e-05
2.045238095238095077e+00,2.842507222383556889e-06,2.977211751801724831e-05
2.046031746031745868e+00,-1.371453702093492424e-06,4.005281842300303244e-06
2.046825396825396659e+00,-4.805820261582221143e-06,-1.996279316771146871e-05
2.047619047619047450e+00,-7.354039109533317047e-06,-3.930827810076103790e-05
2.048412698412698241e+00,-8.970536122746390482e-06,-5.244666507769675821e-05
2.049206349206349032e+00,-9.668057413196236587e-06,-5.898179812157070819e-05
2.049999999999999822e+00,-9.530436780639038355e-06,-5.933582353842053656e-05
2.050793650793650613e+00,-8.721984987763559919e-06,-5.425720591732217376e-05
2.051587301587301404e+00,-7.475579100045356966e-06,-4.445200088476086600e-05
2.052380952380952195e+00,-6.053391452113448466e-06,-3.052099767774669727e-05
2.053174603174602986e+00,-4.690480386038565438e-06,-1.321870013659183614e-05
2.053968253968253777e+00,-3.543246540384151110e-06,6.153073289051966735e-06
2.054761904761904567e+00,-2.665078343912815654e-06,2.552532639965417874e-05
2.055555555555555358e+00,-2.019232705239169522e-06,4.226207496342284872e-05
2.056349206349206149e+00,-1.520770235039163664e-06,5.379331305873128014e-05
2.057142857142856940e+00,-1.086191059126594941e-06,5.843375803504732439e-05
2.057936507936507731e+00,-6.685707224952040838e-07,5.602389407623613755e-05
2.058730158730158522e+00,-2.660119759157879370e-07,4.810719722348065535e-05
2.059523809523809312e+00,9.489050279531891822e-08,3.754445086824763551e-05
2.060317460317460103e+00,3.875110338642995506e-07,2.765731960214167393e-05
2.061111111111110894e+00,6.076436282879511652e-07,2.114465306966867923e-05
2.061904761904761685e+00,7.760151825629369082e-07,1.911189501329108747e-05
2.062698412698412920e+00,9.190358222315331087e-07,2.056419176765324861e-05
2.063492063492063711e+00,1.040327384687465108e-06,2.260772122193378710e-05
2.064285714285714501e+00,1.103683089859510036e-06,2.138794527702593578e-05
2.065079365079365292e+00,1.043903626740204829e-06,1.351428628410431226e-05
2.065873015873016083e+00,8.061942317891255830e-07,-2.521825026459154200e-06
2.066666666666666874e+00,3.961533560559224997e-07,-2.548901589216260563e-05
2.067460317460317665e+00,-8.746400794677256618e-08,-5.146888884630511384e-05
2.068253968253968456e+00,-4.597657491492544366e-07,-7.480425250948209823e-05
2.069047619047619246e+00,-5.017317796170014319e-07,-8.961338546069219798e-05
2.069841269841270037e+00,-4.162064150297387557e-08,-9.141445902463589044e-05
2.070634920634920828e+00,9.651979443052702972e-07,-7.843497179219523230e-05
2.071428571428571619e+00,2.392307992832324360e-06,-5.228098137427669104e-05
2.072222222222222410e+00,3.957176004614201145e-06,-1.777678874894791716e-05
2.073015873015873201e+00,5.295383391568078468e-06,1.803329860895334810e-05
2.073809523809523991e+00,6.070500583419629274e-06,4.751898086517002552e-05
2.074603174603174782e+00,6.081312392448845054e-06,6.434827302646360778e-05
2.075396825396825573e+00,5.329024879622031635e-06,6.514252916859996452e-05
2.076190476190476364e+00,4.021686770285551792e-06,5.045099412677734452e-05
2.076984126984127155e+00,2.514708535834861484e-06,2.474497759280303326e-05
2.077777777777777946e+00,1.208091634789576649e-06,-4.619452693225091181e-06
2.078571428571428736e+00,4.358446294354737469e-07,-2.923485168005096542e-05
2.079365079365079527e+00,3.842820052257376333e-07,-4.180546900984824879e-05
2.080158730158730318e+00,1.061486957077177762e-06,-3.808025004942599049e-05
2.080952380952381109e+00,2.317173949870867893e-06,-1.806237333989880870e-05
2.081746031746031900e+00,3.893298759353777611e-06,1.380906978425823762e-05
2.082539682539682691e+00,5.480499075979773611e-06,4.956054704537288122e-05
2.083333333333333481e+00,6.763355404280347496e-06,7.947399204846235634e-05
2.084126984126984272e+00,7.450248037516931422e-06,9.436439047350443469e-05
2.084920634920635063e+00,7.293032897513504088e-06,8.781858432167679706e-05
2.085714285714285854e+00,6.105156295621819562e-06,5.785755585873675051e-05
2.086507936507936645e+00,3.785733703897984935e-06,7.607289605024133958e-06
2.087301587301587436e+00,3.529522956145838207e-07,-5.519681928090284254e-05
2.088095238095238226e+00,-4.017222162788757904e-06,-1.197520668921220105e-04
2.088888888888889017e+00,-8.960567018009128285e-06,-1.743963098024330311e-04
2.089682539682539808e+00,-1.392312352929761927e-05,-2.089571648779762743e-04
2.090476190476190599e+00,-1.820887954773880911e-05,-2.167312808641778173e-04
2.091269841269841390e+00,-2.108556261346537683e-05,-1.957214519382835007e-04
2.092063492063492181e+00,-2.193747963428031459e-05,-1.489390347676356342e-04
2.092857142857142971e+00,-2.043108896250564428e-05,-8.373731606956962047e-05
2.093650793650793762e+00,-1.664109530190032530e-05,-1.029394788751727158e-05
2.094444444444444553e+00,-1.108374636785351998e-05,6.045666839602895261e-05
2.095238095238095344e+00,-4.628705851606686063e-06,1.189683729176010181e-04
2.096031746031746135e+00,1.693930899363185659e-06,1.587806040199453829e-04
2.096825396825396925e+00,6.933055496685215858e-06,1.773771150520834399e-04
2.097619047619047716e+00,1.043074486974018308e-05,1.760882277039911863e-04
2.098412698412698507e+00,1.195840192339799370e-05,1.591977581100434923e-04
2.099206349206349298e+00,1.175321825362224439e-05,1.325752732511799130e-04
2.100000000000000089e+00,1.045613828153695704e-05,1.021752182867190396e-04
2.100793650793650880e+00,8.963096130864763822e-06,7.271533205860065215e-05
2.101587301587301670e+00,8.210108699610648783e-06,4.683138989883680144e-05
2.102380952380952461e+00,8.928660707037278381e-06,2.494228695960826946e-05
2.103174603174603252e+00,1.142602161296389427e-05,5.860814702111782130e-06
2.103968253968254043e+00,1.545067686147076478e-05,-1.210221873868119908e-05
2.104761904761904834e+00,2.018639218590569538e-05,-3.000031265991721048e-05
2.105555555555555625e+00,2.438618433034275113e-05,-4.753334418074550927e-05
2.106349206349206415e+00,2.662503523660825135e-05,-6.299330565374309068e-05
2.107142857142857206e+00,2.562607642091805049e-05,-7.383265701345497378e-05
2.107936507936507997e+00,2.059625848589094284e-05,-7.759275354588019314e-05
2.108730158730158788e+00,1.149221168975779570e-05,-7.284273309371545760e-05
2.109523809523809579e+00,-8.627477182148104142e-07,-5.981883583764405427e-05
2.110317460317460370e+00,-1.485727919830216986e-05,-4.056963996955380194e-05
2.111111111111111160e+00,-2.835536378088139361e-05,-1.855566854154747740e-05
2.111904761904761951e+00,-3.908310416688599848e-05,2.198089109280035400e-06
2.112698412698412742e+00,-4.506159259447879879e-05,1.815324860632551860e-05
2.113492063492063533e+00,-4.501861084514443336e-05,2.717648420114194191e-05
2.114285714285714324e+00,-3.871988593401262001e-05,2.901875813978481306e-05
2.115079365079365115e+00,-2.715088516717665680e-05,2.521457384774950690e-05
2.115873015873015905e+00,-1.246552160587615377e-05,1.847885757720077896e-05
2.116666666666666696e+00,2.369741783495628622e-06,1.183398525217154363e-05
2.117460317460317487e+00,1.423940180777077190e-05,7.736959960853036946e-06
2.118253968253968278e+00,2.072654839882159412e-05,7.423388493653911574e-06
2.119047619047619069e+00,2.088577488048200869e-05,1.059715231928472027e-05
2.119841269841269860e+00,1.562797821963865860e-05,1.551116921693387242e-05
2.120634920634920650e+00,7.500623976474213477e-06,1.941769195100460929e-05
2.121428571428571441e+00,-1.202194583264601759e-07,1.931382932392163222e-05
2.122222222222222232e+00,-4.152694422720473894e-06,1.285786542602812817e-05
2.123015873015873023e+00,-2.832174970493947910e-06,-7.305917841697366070e-07
2.123809523809523814e+00,3.731303981134381038e-06,-2.004160955322072400e-05
2.124603174603174605e+00,1.362796829046304217e-05,-4.139111497363355693e-05
2.125396825396825395e+00,2.378854683767687899e-05,-5.945261704578931410e-05
2.126190476190476186e+00,3.095456128409696135e-05,-6.853681558468489366e-05
2.126984126984126977e+00,3.267050724700849292e-05,-6.417710491543207423e-05
2.127777777777777768e+00,2.799815094353550471e-05,-4.451863587956204823e-05
2.128571428571428559e+00,1.773769512128431424e-05,-1.105558651987508878e-05
2.129365079365079350e+00,4.101396541350556733e-06,3.150463131693915749e-05
2.130158730158730140e+00,-1.002022616720013520e-05,7.616490165945713779e-05
2.130952380952380931e+00,-2.192000483935312768e-05,1.150350319157371419e-04
2.131746031746031722e+00,-2.976919084856966373e-05,1.408313463984487779e-04
2.132539682539682513e+00,-3.295478799705863285e-05,1.481972003375116396e-04
2.133333333333333304e+00,-3.202001512835169134e-05,1.346747023389283809e-04
2.134126984126984095e+00,-2.829656482359263277e-05,1.012127404078391442e-04
2.134920634920634885e+00,-2.338596139460641179e-05,5.211381530531831476e-05
2.135714285714285676e+00,-1.865992857474576714e-05,-5.629395836998468442e-06
2.136507936507936467e+00,-1.492123047568458990e-05,-6.354275241137851814e-05
2.137301587301587258e+00,-1.230612539867809034e-05,-1.132096859300546786e-04
2.138095238095238049e+00,-1.042680728396453517e-05,-1.478081830643722329e-04
2.138888888888888840e+00,-8.669476637901971103e-06,-1.632887788670263883e-04
2.139682539682539630e+00,-6.513233272808974223e-06,-1.589259088627188905e-04
2.140476190476190421e+00,-3.739464222839816191e-06,-1.371518890794662870e-04
2.141269841269841212e+00,-4.591277993196040258e-07,-1.027823889863076619e-04
2.142063492063492003e+00,3.027252712877385311e-06,-6.188898151343969823e-05
2.142857142857142794e+00,6.441078507152679495e-06,-2.062141966141543207e-05
2.143650793650793585e+00,9.677622940488103678e-06,1.576786822571710030e-05
2.144444444444444375e+00,1.280176565660552005e-05,4.355268258379094138e-05
2.145238095238095166e+00,1.588071662134383640e-05,6.078848190350534926e-05
2.146031746031745957e+00,1.874331524903819136e-05,6.725707895359959553e-05
2.146825396825396748e+00,2.080764540581898420e-05,6.420622003325438139e-05
2.147619047619047539e+00,2.110440859275354735e-05,5.398514316077098369e-05
2.148412698412698330e+00,1.855088357515993755e-05,3.964048905642966454e-05
2.149206349206349120e+00,1.242312963574494318e-05,2.449430073438038446e-05
2.149999999999999911e+00,2.863758836992533913e-06,1.170505787115008251e-05
2.150793650793650702e+00,-8.807438656424708447e-06,3.826862330978850847e-06
2.151587301587301493e+00,-2.018957011210196646e-05,2.416927950455595364e-06
2.152380952380952284e+00,-2.836881214843602693e-05,7.766482785975553055e-06
2.153174603174603075e+00,-3.080443218218330921e-05,1.882418890179769538e-05
2.153968253968253865e+00,-2.620034949319900231e-05,3.334576976735474359e-05
2.154761904761904656e+00,-1.500686973873600765e-05,4.825435197462468051e-05
2.155555555555555447e+00,6.478329266648266025e-07,6.015287363780713988e-05
2.156349206349206238e+00,1.755198289267853102e-05,6.590795414105463557e-05
2.157142857142857029e+00,3.228685949324902209e-05,6.322221100239638089e-05
2.157936507936507819e+00,4.207883479675049047e-05,5.111060743823016506e-05
2.158730158730158610e+00,4.538566302959494523e-05,3.018450339411467623e-05
2.159523809523809401e+00,4.210381112086244521e-05,2.643244166579150170e-06
2.160317460317460192e+00,3.340920171215964167e-05,-2.808712285067637240e-05
2.161111111111110983e+00,2.133519790096030994e-05,-5.803280100327004912e-05
2.161904761904761774e+00,8.237729809318585135e-06,-8.351427070270305171e-05
2.162698412698412564e+00,-3.706099759480936889e-06,-1.019119825529015425e-04
2.163492063492063355e+00,-1.286443801631648779e-05,-1.121155209053655336e-04
2.164285714285714146e+00,-1.834095413250703930e-05,-1.145119053656934010e-04
2.165079365079364937e+00,-1.999603427711294019e-05,-1.105283791479116982e-04
2.165873015873015728e+00,-1.833297397899205929e-05,-1.019053727608264183e-04
2.166666666666666519e+00,-1.429602336848895069e-05,-8.997204906535587556e-05
2.167460317460317309e+00,-9.031866203789926185e-06,-7.519128491930447743e-05
2.168253968253968100e+00,-3.662070516695298682e-06,-5.713664256661096644e-05
2.169047619047618891e+00,8.985383174669617801e-07,-3.490528261574148367e-05
2.169841269841269682e+00,4.058281330573631465e-06,-7.818284565714149554e-06
2.170634920634920473e+00,5.593441296671587410e-06,2.384153637465887172e-05
2.171428571428571264e+00,5.624052481821709169e-06,5.833387644117337854e-05
2.172222222222222054e+00,4.530183042119864004e-06,9.243311466544135450e-05
2.173015873015872845e+00,2.825205974165084536e-06,1.219476236327465753e-04
2.173809523809523636e+00,1.010023780734117250e-06,1.426492320633881549e-04
2.174603174603174427e+00,-5.610400975623084148e-07,1.512830585150273452e-04
2.175396825396825218e+00,-1.769153746570474221e-06,1.462835350602766657e-04
2.176190476190476009e+00,-2.746814787362387447e-06,1.279738839261080924e-04
2.176984126984126799e+00,-3.809913288763783231e-06,9.828399588435530858e-05
2.177777777777777590e+00,-5.322367805185959371e-06,6.022548404622727459e-05
2.178571428571428381e+00,-7.538136892975870341e-06,1.740332554580118190e-05
2.179365079365079172e+00,-1.048011614257750552e-05,-2.627418794184274879e-05
2.180158730158729963e+00,-1.390177599399510117e-05,-6.671178025057849452e-05
2.180952380952380754e+00,-1.733699666538830305e-05,-9.974360560877795312e-05
2.181746031746031544e+00,-2.020208183282725159e-05,-1.214566437243556234e-04
2.182539682539682335e+00,-2.190204781555421114e-05,-1.288124053111287207e-04
2.183333333333333126e+00,-2.191566318081182002e-05,-1.204385756100907751e-04
2.184126984126983917e+00,-1.986473941912075524e-05,-9.726885647604377786e-05
2.184920634920634708e+00,-1.558506690842294208e-05,-6.268704141971424794e-05
2.185714285714285499e+00,-9.203428381897906787e-06,-2.202038205368248930e-05
2.186507936507936289e+00,-1.200567534045484145e-06,1.848695054801475273e-05
2.187301587301587080e+00,7.578925976879236900e-06,5.288908079049978655e-05
2.188095238095238315e+00,1.600883033650936144e-05,7.659531517646445695e-05
2.188888888888889106e+00,2.286962493198004283e-05,8.704634221267713401e-05
2.189682539682539897e+00,2.711303546283003253e-05,8.394253508946861446e-05
2.190476190476190688e+00,2.812886364941947942e-05,6.907120436516066178e-05
2.191269841269841478e+00,2.592014179448605377e-05,4.584079058955436824e-05
2.192063492063492269e+00,2.111364909345574508e-05,1.864710318549132290e-05
2.192857142857143060e+00,1.479214462097986453e-05,-7.822384031313375980e-06
2.193650793650793851e+00,8.205277960037172586e-06,-2.927555785157764535e-05
2.194444444444444642e+00,2.460970954968625069e-06,-4.244153111500524952e-05
2.195238095238095433e+00,-1.703508413362170323e-06,-4.556868688719969480e-05
2.196031746031746223e+00,-4.014533356215153714e-06,-3.870559994382155372e-05
2.196825396825397014e+00,-4.619509618649849118e-06,-2.368146364128470970e-05
2.197619047619047805e+00,-3.952156191336157778e-06,-3.749391609356584353e-06
2.198412698412698596e+00,-2.565852781687131755e-06,1.707136639471168598e-05
2.199206349206349387e+00,-9.878228299163630232e-07,3.483613037589573124e-05
2.200000000000000178e+00,3.748413099720834625e-07,4.650344038894576112e-05
2.200793650793650968e+00,1.271923575186593227e-06,5.052260620074067545e-05
2.201587301587301759e+00,1.603804371364687999e-06,4.700724324784788185e-05
2.202380952380952550e+00,1.392860271989017504e-06,3.746474570376491742e-05
2.203174603174603341e+00,7.474595491036347485e-07,2.420929068269823668e-05
2.203968253968254132e+00,-1.759520788083012586e-07,9.679235146152522493e-06
2.204761904761904923e+00,-1.211652358412978912e-06,-4.121584411942455389e-06
2.205555555555555713e+00,-2.221413745639204748e-06,-1.591837372906341547e-05
2.206349206349206504e+00,-3.122909880524597618e-06,-2.517204012828376156e-05
2.207142857142857295e+00,-3.903201344986915319e-06,-3.187904580135929831e-05
2.207936507936508086e+00,-4.613919208782557856e-06,-3.629772404238963045e-05
2.208730158730158877e+00,-5.348605911285436417e-06,-3.872195660310008862e-05
2.209523809523809668e+00,-6.205687569280751453e-06,-3.936685006679359013e-05
2.210317460317460458e+00,-7.243497646559458818e-06,-3.836644202041026924e-05
2.211111111111111249e+00,-8.437368514802526259e-06,-3.583891240596109190e-05
2.211904761904762040e+00,-9.651978844851930489e-06,-3.196186074967159247e-05
2.212698412698412831e+00,-1.064244273307011385e-05,-2.701458900491098564e-05
2.213492063492063622e+00,-1.109279779704663453e-05,-2.137147074969578161e-05
2.214285714285714413e+00,-1.069028504842393398e-05,-1.545501086906307916e-05
2.215079365079365203e+00,-9.220746247334540979e-06,-9.670647054299986046e-06
2.215873015873015994e+00,-6.659297091340344254e-06,-4.346878534491695956e-06
2.216666666666666785e+00,-3.225822250650538799e-06,3.025294528547551552e-07
2.217460317460317576e+00,6.201261586108705475e-07,4.187083354927964060e-06
2.218253968253968367e+00,4.255004818859807295e-06,7.318854652321865493e-06
2.219047619047619158e+00,7.024537794142860497e-06,9.766757474201285446e-06
2.219841269841269948e+00,8.398966467833200882e-06,1.159545422320279732e-05
2.220634920634920739e+00,8.103633847507138395e-06,1.280757396847779393e-05
2.221428571428571530e+00,6.186069293165418170e-06,1.331481485794679054e-05
2.222222222222222321e+00,3.004022808252747535e-06,1.295860484498951840e-05
2.223015873015873112e+00,-8.546543727294231874e-07,1.158271709004316652e-05
2.223809523809523903e+00,-4.691513566224421564e-06,9.137578643019629256e-06
2.224603174603174693e+00,-7.823109728225305083e-06,5.779089376005816438e-06
2.225396825396825484e+00,-9.686546017423569715e-06,1.919499481913132142e-06
2.226190476190476275e+00,-9.912138020538185883e-06,-1.801488114198384547e-06
2.226984126984127066e+00,-8.363208927310093377e-06,-4.630500651515804840e-06
2.227777777777777857e+00,-5.150309218881388426e-06,-5.871418482058534359e-06
2.228571428571428648e+00,-6.274239780169158503e-07,-5.063182622705679171e-06
2.229365079365079438e+00,4.627391113740286679e-06,-2.112563823827917594e-06
2.230158730158730229e+00,9.851837737490735575e-06,2.653076070345105226e-06
2.230952380952381020e+00,1.416981523315899056e-05,8.523135475275615009e-06
2.231746031746031811e+00,1.670122221039722305e-05,1.451944086966304657e-05
2.232539682539682602e+00,1.670993035940214033e-05,1.956469589371837318e-05
2.233333333333333393e+00,1.377304727245904067e-05,2.267197964148815281e-05
2.234126984126984183e+00,7.938270754136932491e-06,2.312304271290449088e-05
2.234920634920634974e+00,-1.762452905025258482e-07,2.060737719098112408e-05
2.235714285714285765e+00,-9.388193372040900948e-06,1.530056994195620512e-05
2.236507936507936556e+00,-1.809789604913362743e-05,7.866446039168925063e-06
2.237301587301587347e+00,-2.457268600163020411e-05,-6.252176486832924002e-07
2.238095238095238138e+00,-2.731467294718296652e-05,-8.860757628164581010e-06
2.238888888888888928e+00,-2.541638113093992729e-05,-1.550258201357276145e-05
2.239682539682539719e+00,-1.880098086428349188e-05,-1.943040345375779724e-05
2.240476190476190510e+00,-8.274870406269197842e-06,-1.995963375229624714e-05
2.241269841269841301e+00,4.623752192137468258e-06,-1.699253244912242317e-05
2.242063492063492092e+00,1.793764330455050997e-05,-1.106414955145831549e-05
2.242857142857142883e+00,2.967978976082583014e-05,-3.259960845804694294e-06
2.243650793650793673e+00,3.820215092397824839e-05,4.993157716222232896e-06
2.244444444444444464e+00,4.246463103966151623e-05,1.222792460759274292e-05
2.245238095238095255e+00,4.216019191715878329e-05,1.726014840889599948e-05
2.246031746031746046e+00,3.768913079028116391e-05,1.944344157267254467e-05
2.246825396825396837e+00,3.000712031712207198e-05,1.877516913974154199e-05
2.247619047619047628e+00,2.039558872550738765e-05,1.582460875239589691e-05
2.248412698412698418e+00,1.021463156854340017e-05,1.152044370877218785e-05
2.249206349206349209e+00,6.920049983416959771e-07,6.877076125989437273e-06
2.250000000000000000e+00,-7.221249821358616584e-06,2.740747100591583947e-06
2.250793650793650791e+00,-1.292571117476887791e-05,-3.887076062887087870e-07
2.251587301587301582e+00,-1.619465004384915675e-05,-2.433859345354844459e-06
2.252380952380952372e+00,-1.715882885956506639e-05,-3.709376859146323275e-06
2.253174603174603163e+00,-1.626180946124896099e-05,-4.798245502410370692e-06
2.253968253968253954e+00,-1.418157870442204489e-05,-6.361937768689636246e-06
2.254761904761904745e+00,-1.171459224339659561e-05,-8.924174129221520822e-06
2.255555555555555536e+00,-9.631190376132077880e-06,-1.267553561457832428e-05
2.256349206349206327e+00,-8.527806933508569977e-06,-1.734729966310487884e-05
2.257142857142857117e+00,-8.710517415910577399e-06,-2.219553510885857061e-05
2.257936507936507908e+00,-1.014117084047244839e-05,-2.611800591320936814e-05
2.258730158730158699e+00,-1.246333112844431961e-05,-2.789580654054000576e-05
2.259523809523809490e+00,-1.510499395914684757e-05,-2.651379475878457272e-05
2.260317460317460281e+00,-1.743353983322006763e-05,-2.148064953812225028e-05
2.261111111111111072e+00,-1.892180132141992830e-05,-1.305483496026274338e-05
2.261904761904761862e+00,-1.927859466930750387e-05,-2.295494202578077347e-06
2.262698412698412653e+00,-1.850534780508408345e-05,9.103223277586831188e-06
2.263492063492063444e+00,-1.686102444318966323e-05,1.917681624722431899e-05
2.264285714285714235e+00,-1.474593458264704424e-05,2.617032329650325169e-05
2.265079365079365026e+00,-1.254343839581596514e-05,2.899804383594983300e-05
2.265873015873015817e+00,-1.047566512257764580e-05,2.753778164088787635e-05
2.266666666666666607e+00,-8.525573972831010662e-06,2.266040264215605647e-05
2.267460317460317398e+00,-6.452738651414466548e-06,1.598150841571511173e-05
2.268253968253968189e+00,-3.894637491960698519e-06,9.409734341846358541e-06
2.269047619047618980e+00,-5.143321887289583244e-07,4.623121790372227249e-06
2.269841269841269771e+00,3.858138360087237389e-06,2.620681003859386047e-06
2.270634920634920562e+00,9.135986007560384318e-06,3.473952668590760527e-06
2.271428571428571352e+00,1.496189874958627837e-05,6.348482260488659971e-06
2.272222222222222143e+00,2.077100295514062322e-05,9.787543563221544479e-06
2.273015873015872934e+00,2.591077983497980247e-05,1.217106386671502141e-05
2.273809523809523725e+00,2.978273086669048882e-05,1.220902291195461387e-05
2.274603174603174516e+00,3.196481349269682389e-05,9.321478042170179294e-06
2.275396825396825307e+00,3.228224531659173416e-05,3.798976087049266124e-06
2.276190476190476097e+00,3.081428696599891013e-05,-3.290778262999308751e-06
2.276984126984126888e+00,2.784590833632012618e-05,-1.040896469675923252e-05
2.277777777777777679e+00,2.378687605643107160e-05,-1.596790107564539826e-05
2.278571428571428470e+00,1.908469859599429437e-05,-1.874973428047311118e-05
2.279365079365079261e+00,1.415476633761861416e-05,-1.821304791551778553e-05
2.280158730158730052e+00,9.343116003789990454e-06,-1.461655766710374610e-05
2.280952380952380842e+00,4.924547152159236239e-06,-8.937741530116384529e-06
2.281746031746031633e+00,1.123182613766841405e-06,-2.610485653586539590e-06
2.282539682539682424e+00,-1.868793921177824485e-06,2.854780441562698236e-06
2.283333333333333215e+00,-3.896926334724537515e-06,6.271986003477448321e-06
2.284126984126984006e+00,-4.881646753776713610e-06,7.084327006314432190e-06
2.284920634920634797e+00,-4.872612094719810908e-06,5.465818703343586227e-06
2.285714285714285587e+00,-4.092515809450294844e-06,2.169407968609454641e-06
2.286507936507936378e+00,-2.943324667372690748e-06,-1.831229345733979010e-06
2.287301587301587169e+00,-1.959969572451917941e-06,-5.765317572361333554e-06
2.288095238095237960e+00,-1.712785787569611383e-06,-9.377271894353211780e-06
2.288888888888888751e+00,-2.675797569908238954e-06,-1.299621536909881182e-05
2.289682539682539542e+00,-5.092444640207244274e-06,-1.733243952938113517e-05
2.290476190476190332e+00,-8.880222137526466825e-06,-2.307576418870065666e-05
2.291269841269841123e+00,-1.361198377834995218e-05,-3.043792681302629206e-05
2.292063492063491914e+00,-1.858882004811443129e-05,-3.879600478989059031e-05
2.292857142857142705e+00,-2.298619716810530497e-05,-4.656495925226125855e-05
2.293650793650793496e+00,-2.603003276433152750e-05,-5.137115272041071270e-05
2.294444444444444287e+00,-2.715493691739899806e-05,-5.053037638664369379e-05
2.295238095238095077e+00,-2.611035450142655811e-05,-4.176496828676160488e-05
2.296031746031745868e+00,-2.300028890947935473e-05,-2.402595195687196771e-05
2.296825396825396659e+00,-1.825846882097676086e-05,1.792429469653085745e-06
2.297619047619047450e+00,-1.256939902583016561e-05,3.253449356981917470e-05
2.298412698412698241e+00,-6.749037133221484728e-06,6.314629275183218377e-05
2.299206349206349032e+00,-1.601713820094687908e-06,8.781488136794147624e-05
2.299999999999999822e+00,2.225070804540087752e-06,1.015994896756324271e-04
2.300793650793650613e+00,4.361228770206477650e-06,1.019128003826145107e-04
2.301587301587301404e+00,4.783376845160077778e-06,8.918573181653055939e-05
2.302380952380952195e+00,3.815603608110321706e-06,6.645968478618834760e-05
2.303174603174602986e+00,2.060883260707000490e-06,3.821732052900430910e-05
2.303968253968253777e+00,2.771596716133109866e-07,9.067336839586616801e-06
2.304761904761904567e+00,-7.804816098176646985e-07,-1.721430614013369517e-05
2.305555555555555358e+00,-5.271148165219851784e-07,-3.811560326541553749e-05
2.306349206349206149e+00,1.304687949009950509e-06,-5.239195244707922720e-05
2.307142857142856940e+00,4.573177456894866660e-06,-5.984171653623332693e-05
2.307936507936507731e+00,8.725541659186337258e-06,-6.102390294712830356e-05
2.308730158730158522e+00,1.290269359796998370e-05,-5.699777651447501792e-05
2.309523809523809312e+00,1.613720188680501812e-05,-4.907950630035242111e-05
2.310317460317460103e+00,1.759891538334004368e-05,-3.859330285662640253e-05
2.311111111111110894e+00,1.682165052410015732e-05,-2.664776968946213324e-05
2.311904761904761685e+00,1.384143058573988967e-05,-1.402079980863018300e-05
2.312698412698412920e+00,9.195324534092002314e-06,-1.221735730396880572e-06
2.313492063492063711e+00,3.768543376656004795e-06,1.127518917664161790e-05
2.314285714285714501e+00,-1.472152756622339672e-06,2.271459596226286623e-05
2.315079365079365292e+00,-5.774794064381103657e-06,3.179994471803301485e-05
2.315873015873016083e+00,-8.823761337134486757e-06,3.663239594005127114e-05
2.316666666666666874e+00,-1.080190495080365833e-05,3.494490762840214660e-05
2.317460317460317665e+00,-1.226576689130095823e-05,2.464074444858209260e-05
2.318253968253968456e+00,-1.387759973530958409e-05,4.540756199589268791e-06
2.319047619047619246e+00,-1.609308578944197346e-05,-2.484887875579096987e-05
2.319841269841270037e+00,-1.892236439773132550e-05,-6.079004844622776173e-05
2.320634920634920828e+00,-2.185757345219672637e-05,-9.822130719289458279e-05
2.321428571428571619e+00,-2.399913703115288572e-05,-1.302753996342079776e-04
2.322222222222222410e+00,-2.433672471769769347e-05,-1.494120845738544016e-04
2.323015873015873201e+00,-2.208133373233253814e-05,-1.489879281554839770e-04
2.323809523809523991e+00,-1.692896244983509453e-05,-1.249159891966420441e-04
2.324603174603174782e+00,-9.168368807982471181e-06,-7.698349719209689201e-05
2.325396825396825573e+00,3.924619333795462315e-07,-9.443618250458057225e-06
2.326190476190476364e+00,1.064141099800236043e-05,6.933759638293965919e-05
2.326984126984127155e+00,2.043466595233932261e-05,1.481838571669968061e-04
2.327777777777777946e+00,2.883179606712470448e-05,2.151474898849223738e-04
2.328571428571428736e+00,3.522338407448284795e-05,2.598591108833147711e-04
2.329365079365079527e+00,3.933045990917668507e-05,2.756121595919108162e-04
2.330158730158730318e+00,4.110895483512736701e-05,2.606265610577936705e-04
2.330952380952381109e+00,4.062688482932183239e-05,2.181727161119215359e-04
2.331746031746031900e+00,3.798083381747293150e-05,1.555968788158684443e-04
2.332539682539682691e+00,3.328524545404253223e-05,8.260451264054489301e-05
2.333333333333333481e+00,2.672502859201718407e-05,9.306248463802480793e-06
2.334126984126984272e+00,1.863278556358278828e-05,-5.550496563004730650e-05
2.334920634920635063e+00,9.546101222553545721e-06,-1.055301334973287117e-04
2.335714285714285854e+00,2.118064747203722822e-07,-1.374701256941218556e-04
2.336507936507936645e+00,-8.477677045624530742e-06,-1.509159296850598941e-04
2.337301587301587436e+00,-1.561151229590549238e-05,-1.478044133852159472e-04
2.338095238095238226e+00,-2.042723232628189977e-05,-1.316651069459848038e-04
2.338888888888889017e+00,-2.247644261698148764e-05,-1.068489844592944026e-04
2.339682539682539808e+00,-2.174189993752901213e-05,-7.785646065012630115e-05
2.340476190476190599e+00,-1.866675855866146196e-05,-4.881318531006690790e-05
2.341269841269841390e+00,-1.407859499762276206e-05,-2.310051778188055530e-05
2.342063492063492181e+00,-9.020018974174770469e-06,-3.129966932895186773e-06
2.342857142857142971e+00,-4.526552519002055984e-06,9.755592091605584971e-06
2.343650793650793762e+00,-1.411080560974666757e-06,1.527480703503527221e-05
2.344444444444444553e+00,-1.129065053602112669e-07,1.411662452068933202e-05
2.345238095238095344e+00,-6.464116330676039465e-07,7.782638691325285735e-06
2.346031746031746135e+00,-2.649676813349883344e-06,-1.626968226306152422e-06
2.346825396825396925e+00,-5.504124539731554117e-06,-1.168020521569314100e-05
2.347619047619047716e+00,-8.484522703611858187e-06,-1.992883571971134946e-05
2.348412698412698507e+00,-1.090417613084828672e-05,-2.425897775307532943e-05
2.349206349206349298e+00,-1.223272091960368289e-05,-2.324471400548163422e-05
2.350000000000000089e+00,-1.217425681773662306e-05,-1.645144706492473487e-05
2.350793650793650880e+00,-1.069975467724186205e-05,-4.618688629112590661e-06
2.351587301587301670e+00,-8.032914581267163560e-06,1.035478660293534444e-05
2.352380952380952461e+00,-4.594863355386083539e-06,2.568839164435957073e-05
2.353174603174603252e+00,-9.187411149361940154e-07,3.827648310561024172e-05
2.353968253968254043e+00,2.451465698899676501e-06,4.544138528067565697e-05
2.354761904761904834e+00,5.061100025421076285e-06,4.567319739125966346e-05
2.355555555555555625e+00,6.624010115037640424e-06,3.907873396848165543e-05
2.356349206349206415e+00,7.060573590758914329e-06,2.733626616064981866e-05
2.357142857142857206e+00,6.484303501308652668e-06,1.315406397338415956e-05
2.357936507936507997e+00,5.145176596892065989e-06,-5.611460902070586034e-07
2.358730158730158788e+00,3.352900316111011710e-06,-1.152174542864321669e-05
2.359523809523809579e+00,1.405594237297816883e-06,-1.859683753086822567e-05
2.360317460317460370e+00,-4.589976191297453960e-07,-2.192824237970042092e-05
2.361111111111111160e+00,-2.083298301833843061e-06,-2.262861040164180321e-05
2.361904761904761951e+00,-3.382497286246920602e-06,-2.218586481583084065e-05
2.362698412698412742e+00,-4.318194259903028642e-06,-2.177176213436505313e-05
2.363492063492063533e+00,-4.866676867121749522e-06,-2.167432285416117708e-05
2.364285714285714324e+00,-4.997451857327418222e-06,-2.104462150796539675e-05
2.365079365079365115e+00,-4.673010124762142319e-06,-1.806738219390176240e-05
2.365873015873015905e+00,-3.868976059994300012e-06,-1.054179500335599460e-05
2.366666666666666696e+00,-2.599864775265990049e-06,3.269834775805525429e-06
2.367460317460317487e+00,-9.299101168605074852e-07,2.375220692883184642e-05
2.368253968253968278e+00,1.040953882797998912e-06,4.925279168313096659e-05
2.369047619047619069e+00,3.203594842095256740e-06,7.583610531783301057e-05
2.369841269841269860e+00,5.450746661654249022e-06,9.768029341163784085e-05
2.370634920634920650e+00,7.652766065751892362e-06,1.082202804902109499e-04
2.371428571428571441e+00,9.608513107069025348e-06,1.018975877773767281e-04
2.372222222222222232e+00,1.101276483909968972e-05,7.604039052956594450e-05
2.373015873015873023e+00,1.148652941433576833e-05,3.218427812011037914e-05
2.373809523809523814e+00,1.068615433676991718e-05,-2.374050556513572827e-05
2.374603174603174605e+00,8.459508957150045375e-06,-8.250674772161230026e-05
2.375396825396825395e+00,4.983771395047524619e-06,-1.336419542857653347e-04
2.376190476190476186e+00,8.177657129718257351e-07,-1.678183815736488966e-04
2.376984126984126977e+00,-3.170622148825188452e-06,-1.789533252345485543e-04
2.377777777777777768e+00,-5.998853741063876532e-06,-1.655537279961619211e-04
2.378571428571428559e+00,-6.840315752719108035e-06,-1.310444267338675630e-04
2.379365079365079350e+00,-5.295415514541061247e-06,-8.300655356696263879e-05
2.380158730158730140e+00,-1.578635563068903964e-06,-3.144250831389514109e-05
2.380952380952380931e+00,3.447920622630753784e-06,1.358245666602701623e-05
2.381746031746031722e+00,8.427022551766910532e-06,4.433656910111473447e-05
2.382539682539682513e+00,1.182557508134607695e-05,5.718614496331947639e-05
2.383333333333333304e+00,1.234851259099877864e-05,5.324373459907257597e-05
2.384126984126984095e+00,9.340034965914699057e-06,3.779219336645019156e-05
2.384920634920634885e+00,3.060135615402698792e-06,1.873781355230413439e-05
2.385714285714285676e+00,-5.252855202243146790e-06,4.544806266394902594e-06
2.386507936507936467e+00,-1.358308291243318903e-05,2.133180839240452980e-06
2.387301587301587258e+00,-1.959580978173028923e-05,1.515066417667610097e-05
2.388095238095238049e+00,-2.127513543374437077e-05,4.293255995014162154e-05
2.388888888888888840e+00,-1.758191122289717604e-05,8.037439089606570599e-05
2.389682539682539630e+00,-8.919359158627289698e-06,1.188271339840263807e-04
2.390476190476190421e+00,2.795300354076934689e-06,1.479353893028464962e-04
2.391269841269841212e+00,1.455966263414350972e-05,1.580881652751627453e-04
2.392063492063492003e+00,2.315280979560540718e-05,1.429207829583538792e-04
2.392857142857142794e+00,2.618494850352282694e-05,1.012009156444713162e-04
2.393650793650793585e+00,2.294741139233097359e-05,3.753804457842317271e-05
2.394444444444444375e+00,1.470588238029868258e-05,-3.832736106349180248e-05
2.395238095238095166e+00,4.283561475542269713e-06,-1.134935944174042879e-04
2.396031746031745957e+00,-4.917843183847803961e-06,-1.746378615941808498e-04
2.396825396825396748e+00,-1.007044634013709835e-05,-2.108776133026561857e-04
2.397619047619047539e+00,-9.808234319836391717e-06,-2.160990508538220814e-04
2.398412698412698330e+00,-4.566112969961306301e-06,-1.902172583661842261e-04
2.399206349206349120e+00,3.672576186138170989e-06,-1.390670852991998750e-04
2.399999999999999911e+00,1.206465743090287934e-05,-7.294890210469825379e-05
2.400793650793650702e+00,1.778077711282924193e-05,-4.186201875946561823e-06
2.401587301587301493e+00,1.880115275015880301e-05,5.569922324740119335e-05
2.402380952380952284e+00,1.441358162258344305e-05,9.848038524790655253e-05
2.403174603174603075e+00,5.288642130797444891e-06,1.207423088703506322e-04
2.403968253968253865e+00,-6.852837291259124867e-06,1.240419380605619812e-04
2.404761904761904656e+00,-1.982217742633233485e-05,1.137228281229260476e-04
2.405555555555555447e+00,-3.155830072165213433e-05,9.678695276648660107e-05
2.406349206349206238e+00,-4.052872654176620487e-05,7.948838986194255607e-05
2.407142857142857029e+00,-4.585179602996535182e-05,6.538577202537506413e-05
2.407936507936507819e+00,-4.720112045009230766e-05,5.445774979453810687e-05
2.408730158730158610e+00,-4.463664498732799606e-05,4.356707718023264164e-05
2.409523809523809401e+00,-3.849142935968312353e-05,2.812041829157625400e-05
2.410317460317460192e+00,-2.935905658024240842e-05,4.337812254123134007e-06
2.411111111111110983e+00,-1.813484513555621639e-05,-2.871211414866903152e-05
2.411904761904761774e+00,-6.015568618844000499e-06,-6.808864612737933176e-05
2.412698412698412564e+00,5.618551527970557359e-06,-1.073463919588770154e-04
2.413492063492063355e+00,1.543830307303172868e-05,-1.381354202903887325e-04
2.414285714285714146e+00,2.242743036970009998e-05,-1.524647674269648538e-04
2.415079365079364937e+00,2.605159561912775802e-05,-1.449123418985702710e-04
2.415873015873015728e+00,2.626884851694454273e-05,-1.141468269987935168e-04
2.416666666666666519e+00,2.341464844826180499e-05,-6.335227687205466059e-05
2.417460317460317309e+00,1.805432158304663692e-05,5.380128921041222068e-07
2.418253968253968100e+00,1.087571735303448913e-05,6.852141605304847547e-05
2.419047619047618891e+00,2.631358520019539572e-06,1.315192851599065646e-04
2.419841269841269682e+00,-5.900001947874675675e-06,1.819946699517972918e-04
2.420634920634920473e+00,-1.395098058436539541e-05,2.147720117104257975e-04
2.421428571428571264e+00,-2.079120950337050105e-05,2.271079435958444108e-04
2.422222222222222054e+00,-2.572861307346189884e-05,2.183900713831348102e-04
2.423015873015872845e+00,-2.810541533792856276e-05,1.898169265003860008e-04
2.423809523809523636e+00,-2.733322577136880480e-05,1.441597971347064009e-04
2.424603174603174427e+00,-2.299784867720729324e-05,8.550570276314394501e-05
2.425396825396825218e+00,-1.501831147037290642e-05,1.888770877534397900e-05
2.426190476190476009e+00,-3.795841521840176103e-06,-5.014086421226806374e-05
2.426984126984126799e+00,9.733317701280793321e-06,-1.158296460968705628e-04
2.427777777777777590e+00,2.420054342935651245e-05,-1.723783404687495699e-04
2.428571428571428381e+00,3.804800251209448778e-05,-2.140508492628328543e-04
2.429365079365079172e+00,4.981847423007911192e-05,-2.355348179246492596e-04
2.430158730158729963e+00,5.837592816965744792e-05,-2.327281172300615128e-04
2.430952380952380754e+00,6.299604866299795235e-05,-2.038623287408242429e-04
2.431746031746031544e+00,6.334965045741943238e-05,-1.506067814219047910e-04
2.432539682539682335e+00,5.944599003655411920e-05,-7.867701503321134881e-05
2.433333333333333126e+00,5.158740443631068035e-05,2.450280253586056074e-06
2.434126984126983917e+00,4.034707011212392295e-05,8.085930706985927879e-05
2.434920634920634708e+00,2.655765710718673795e-05,1.443478573670752224e-04
2.435714285714285499e+00,1.129527633361549956e-05,1.828912272526506382e-04
2.436507936507936289e+00,-4.156985630646512230e-06,1.907628590323435505e-04
2.437301587301587080e+00,-1.838613665013905633e-05,1.677623447432449212e-04
2.438095238095238315e+00,-2.998563944021266840e-05,1.192723753753209884e-04
2.438888888888889106e+00,-3.775111194440351319e-05,5.515643257504553168e-05
2.439682539682539897e+00,-4.090356547999563793e-05,-1.227494782759222336e-05
2.440476190476190688e+00,-3.928010891917474212e-05,-7.084721986325984904e-05
2.441269841269841478e+00,-3.342387749548920268e-05,-1.111226211168487064e-04
2.442063492063492269e+00,-2.452406561284855988e-05,-1.283618250592585570e-04
2.442857142857143060e+00,-1.420003953777368259e-05,-1.232346008205276134e-04
2.443650793650793851e+00,-4.176808777459200643e-06,-1.010214475473386196e-04
2.444444444444444642e+00,4.059764068409663426e-06,-6.962277499357446078e-05
2.445238095238095433e+00,9.531456600527401081e-06,-3.715702016710556503e-05
2.446031746031746223e+00,1.189289802075615659e-05,-9.987632556053295982e-06
2.446825396825397014e+00,1.139846770078273504e-05,8.317894460605521233e-06
2.447619047619047805e+00,8.744971855448547350e-06,1.705293984489482671e-05
2.448412698412698596e+00,4.851557090771644732e-06,1.773602876389369974e-05
2.449206349206349387e+00,6.404085453107403014e-07,1.315023730716578618e-05
2.450000000000000178e+00,-3.133290280731787793e-06,6.378944071280189520e-06
2.450793650793650968e+00,-5.976385862390020377e-06,4.511409388420284016e-08
2.451587301587301759e+00,-7.676489375661973402e-06,-4.148592184050288341e-06
2.452380952380952550e+00,-8.264080667189849371e-06,-5.564003745500371941e-06
2.453174603174603341e+00,-7.948302238010149633e-06,-4.497874856333972400e-06
2.453968253968254132e+00,-7.052829841468650396e-06,-1.858795337386402052e-06
2.454761904761904923e+00,-5.962658731433347992e-06,1.248448647050116770e-06
2.455555555555555713e+00,-5.075615378728301625e-06,3.927412933172867658e-06
2.456349206349206504e+00,-4.746002413552492624e-06,5.790974416759268963e-06
2.457142857142857295e+00,-5.217910387835903077e-06,7.086482611566828903e-06
2.457936507936508086e+00,-6.565142705485614420e-06,8.603948249917393342e-06
2.458730158730158877e+00,-8.665241566232706068e-06,1.137418869944673202e-05
2.459523809523809668e+00,-1.122315921526966515e-05,1.622632456009894035e-05
2.460317460317460458e+00,-1.383388885365594901e-05,2.333312318165910214e-05
2.461111111111111249e+00,-1.605812793793018919e-05,3.190403055806409320e-05
2.461904761904762040e+00,-1.749326334499424208e-05,4.017204250049316344e-05
2.462698412698412831e+00,-1.783682898966323449e-05,4.575563490358077785e-05
2.463492063492063622e+00,-1.694022586852384610e-05,4.636230667513817279e-05
2.464285714285714413e+00,-1.484150523194566669e-05,4.065091544143850671e-05
2.465079365079365203e+00,-1.176500471218581294e-05,2.893653990223927152e-05
2.465873015873015994e+00,-8.084396021050826122e-06,1.339521777696962423e-05
2.466666666666666785e+00,-4.253443915457533280e-06,-2.423182861193714661e-06
2.467460317460317576e+00,-7.136594312969992386e-07,-1.467695683766568432e-05
2.468253968253968367e+00,2.203215389882664401e-06,-2.053175884598688251e-05
2.469047619047619158e+00,4.349005069155547288e-06,-1.917356453118054156e-05
2.469841269841269948e+00,5.779413671321445010e-06,-1.212741169338735419e-05
2.470634920634920739e+00,6.708102952997952092e-06,-2.759696088036257476e-06
2.471428571428571530e+00,7.409919247849046374e-06,4.818094407562574950e-06
2.472222222222222321e+00,8.111875288785137214e-06,7.020000941298669369e-06
2.473015873015873112e+00,8.915826676338599763e-06,1.822961213215173228e-06
2.473809523809523903e+00,9.781895025531273837e-06,-1.067947271953395837e-05
2.474603174603174693e+00,1.057442646796039000e-05,-2.829191243394241459e-05
2.475396825396825484e+00,1.114537063695704119e-05,-4.726078163390718718e-05
2.476190476190476275e+00,1.141491579927271581e-05,-6.320780122455536398e-05
2.476984126984127066e+00,1.141193490481366529e-05,-7.223432693676596261e-05
2.477777777777777857e+00,1.125606334058847625e-05,-7.193613992546284217e-05
2.478571428571428648e+00,1.109107769769443518e-05,-6.207826647410405127e-05
2.479365079365079438e+00,1.100308344591598030e-05,-4.473374240767617472e-05
2.480158730158730229e+00,1.096458190504269461e-05,-2.378565919363696926e-05
2.480952380952381020e+00,1.083182855341473774e-05,-3.848369947797297511e-06
2.481746031746031811e+00,1.039508070535642596e-05,1.111861558454241230e-05
2.482539682539682602e+00,9.455608470700709872e-06,1.904195640184147439e-05
2.483333333333333393e+00,7.894483071542719073e-06,2.033783679551365780e-05
2.484126984126984183e+00,5.708951316702243571e-06,1.764024877663088455e-05
2.484920634920634974e+00,3.012628219230714989e-06,1.476143158118672241e-05
2.485714285714285765e+00,1.181794829813291810e-08,1.529062605315506477e-05
2.486507936507936556e+00,-3.026164015538402881e-06,2.135440858520073682e-05
2.487301587301587347e+00,-5.804185099718152330e-06,3.296456077079055964e-05
2.488095238095238138e+00,-8.027515380911959825e-06,4.811928652723131470e-05
2.488888888888888928e+00,-9.443265528661799724e-06,6.352660687524294485e-05
2.489682539682539719e+00,-9.889936623560050067e-06,7.562363288941343405e-05
2.490476190476190510e+00,-9.350233797496670851e-06,8.153428828923175650e-05
2.491269841269841301e+00,-7.988671088243246265e-06,7.971018473754047185e-05
2.492063492063492092e+00,-6.149919262771897708e-06,7.015960498779116384e-05
2.492857142857142883e+00,-4.301466028160031875e-06,5.430990261657806954e-05
2.493650793650793673e+00,-2.924582922413461357e-06,3.461991345706847111e-05
2.494444444444444464e+00,-2.381926173888509169e-06,1.406406948238286630e-05
2.495238095238095255e+00,-2.805587108936456448e-06,-4.413237607368916828e-06
2.496031746031746046e+00,-4.046011223289212247e-06,-1.839426240453216857e-05
2.496825396825396837e+00,-5.700197931908049264e-06,-2.636758476950854237e-05
2.497619047619047628e+00,-7.209657114092499227e-06,-2.793624763498522899e-05
2.498412698412698418e+00,-7.999835762863994747e-06,-2.382547214148925178e-05
2.499206349206349209e+00,-7.627874914512800214e-06,-1.569761645044841884e-05
2.500000000000000000e+00,-5.908123380857686847e-06,-5.818045214985815839e-06
2.500793650793650791e+00,-2.987326821539916971e-06,3.360910862143757261e-06
2.501587301587301582e+00,6.559667207145004848e-07,9.624426314237669901e-06
2.502380952380952372e+00,4.303341441836883619e-06,1.136210932041376538e-05
2.503174603174603163e+00,7.172153732706339930e-06,7.826371703893465274e-06
2.503968253968253954e+00,8.634099377017495272e-06,-7.508202706075297452e-07
2.504761904761904745e+00,8.407684655211069508e-06,-1.319675326281154362e-05
2.505555555555555536e+00,6.651805804925936479e-06,-2.758623362630407641e-05
2.506349206349206327e+00,3.918759600374637224e-06,-4.155242050626468096e-05
2.507142857142857117e+00,9.807762221137100754e-07,-5.267392204669672730e-05
2.507936507936507908e+00,-1.403425994900220093e-06,-5.887784195511124046e-05
2.508730158730158699e+00,-2.694456947045606363e-06,-5.879292545918188604e-05
2.509523809523809490e+00,-2.682561414865099262e-06,-5.199106635621161983e-05
2.510317460317460281e+00,-1.481781441152865794e-06,-3.907073368430973449e-05
2.511111111111111072e+00,5.639499825654241963e-07,-2.156446057091195704e-05
2.511904761904761862e+00,3.008176878876455945e-06,-1.692035691184022185e-06
2.512698412698412653e+00,5.412984932495037890e-06,1.798023661995166035e-05
2.513492063492063444e+00,7.420461488191400217e-06,3.489355614551666257e-05
2.514285714285714235e+00,8.787913764683301184e-06,4.679482396011506193e-05
2.515079365079365026e+00,9.400830345759039056e-06,5.195303111270826421e-05
2.515873015873015817e+00,9.272744000573075930e-06,4.932223781484625910e-05
2.516666666666666607e+00,8.532881985161868261e-06,3.870579783458231825e-05
2.517460317460317398e+00,7.399782482812290675e-06,2.094062238173845144e-05
2.518253968253968189e+00,6.141518413908146553e-06,-1.965196398768826082e-06
2.519047619047618980e+00,5.026256884796081728e-06,-2.687778200045791904e-05
2.519841269841269771e+00,4.268669015922556351e-06,-4.988947367180203402e-05
2.520634920634920562e+00,3.979586603623466841e-06,-6.699234432523959719e-05
2.521428571428571352e+00,4.129488871597351340e-06,-7.493008309745075729e-05
2.522222222222222143e+00,4.539135907247105983e-06,-7.196013134994109172e-05
2.523015873015872934e+00,4.908693037728091895e-06,-5.825324865234737559e-05
2.523809523809523725e+00,4.886827296566512864e-06,-3.580798492229913919e-05
2.524603174603174516e+00,4.165579884911874019e-06,-7.982045452878549458e-06
2.525396825396825307e+00,2.573284092766222078e-06,2.112550913083975046e-05
2.526190476190476097e+00,1.350543781367468594e-07,4.726422758891024221e-05
2.526984126984126888e+00,-2.919122496775281214e-06,6.657096973370527722e-05
2.527777777777777679e+00,-6.200359074182429242e-06,7.610368830216678124e-05
2.528571428571428470e+00,-9.245214195247286978e-06,7.434521500342387184e-05
2.529365079365079261e+00,-1.161265626257169023e-05,6.154703776044754529e-05
2.530158730158730052e+00,-1.296703448555707086e-05,3.976323694399237253e-05
2.530952380952380842e+00,-1.312802222189040650e-05,1.250571202311936861e-05
2.531746031746031633e+00,-1.208229068769069705e-05,-1.592418629481411087e-05
2.532539682539682424e+00,-9.966999329314685479e-06,-4.126981040208725480e-05
2.533333333333333215e+00,-7.044401274762861606e-06,-6.011742776206090790e-05
2.534126984126984006e+00,-3.683474013170603063e-06,-7.047414038173855841e-05
2.534920634920634797e+00,-3.496035539838027532e-07,-7.200211843838439101e-05
2.535714285714285587e+00,2.413205290580710921e-06,-6.587299282087829351e-05
2.536507936507936378e+00,4.029847436045033844e-06,-5.430282481717730952e-05
2.537301587301587169e+00,3.985556071834534133e-06,-3.990894052800139218e-05
2.538095238095237960e+00,1.955692455420830131e-06,-2.506895030135274693e-05
2.538888888888888751e+00,-2.055695936299920542e-06,-1.144742437663645483e-05
2.539682539682539542e+00,-7.617186568616155564e-06,2.056167183968286528e-07
2.540476190476190332e+00,-1.386384740594879130e-05,9.966663349385945206e-06
2.541269841269841123e+00,-1.961779609603381340e-05,1.842759695807464197e-05
2.542063492063491914e+00,-2.362912361060250083e-05,2.628407609600164594e-05
2.542857142857142705e+00,-2.488132790644687290e-05,3.395874119104501116e-05
2.543650793650793496e+00,-2.286924276591159502e-05,4.136659680915325476e-05
2.544444444444444287e+00,-1.775531693169694271e-05,4.787851963857658487e-05
2.545238095238095077e+00,-1.034653620740887689e-05,5.248160702224648173e-05
2.546031746031745868e+00,-1.893715606032170141e-06,5.408207792446673303e-05
2.546825396825396659e+00,6.226586384556221521e-06,5.185668093536832570e-05
2.547619047619047450e+00,1.284856358364221089e-05,4.554523208488738526e-05
2.548412698412698241e+00,1.726658408438907724e-05,3.559815618636213627e-05
2.549206349206349032e+00,1.932446808781765210e-05,2.314087691772812120e-05
2.549999999999999822e+00,1.933484584862271938e-05,9.771239452099121599e-06
2.550793650793650613e+00,1.788416943367197431e-05,-2.752114764208228718e-06
2.551587301587301404e+00,1.561259715395886202e-05,-1.285159000478946485e-05
2.552380952380952195e+00,1.304745878844564692e-05,-1.942273294207708830e-05
2.553174603174602986e+00,1.053040033336865950e-05,-2.201173676865596186e-05
2.553968253968253777e+00,8.237359415361475499e-06,-2.084211079667159600e-05
2.554761904761904567e+00,6.260785284355745189e-06,-1.669223934200080703e-05
2.555555555555555358e+00,4.704677892964523923e-06,-1.066509421129428384e-05
2.556349206349206149e+00,3.736210564421935596e-06,-3.921409733806809785e-06
2.557142857142856940e+00,3.552810568589883807e-06,2.544155905449650571e-06
2.557936507936507731e+00,4.265831388741906658e-06,8.025511784533923026e-06
2.558730158730158522e+00,5.755336473899956666e-06,1.211192427155168408e-05
2.559523809523809312e+00,7.581876414573959249e-06,1.461046764163443187e-05
2.560317460317460103e+00,9.025226929502870929e-06,1.544153590120499382e-05
2.561111111111110894e+00,9.262099101459894668e-06,1.456383403980317837e-05
2.561904761904761685e+00,7.627950074288606584e-06,1.196303350034912372e-05
2.562698412698412920e+00,3.867668779376933660e-06,7.704960862809559824e-06
2.563492063492063711e+00,-1.718683311911561904e-06,2.021717561045790304e-06
2.564285714285714501e+00,-8.292077825198938511e-06,-4.618720739528006758e-06
2.565079365079365292e+00,-1.465438735043279307e-05,-1.150342978826579122e-05
2.565873015873016083e+00,-1.953981664042169186e-05,-1.774573618138785050e-05
2.566666666666666874e+00,-2.193191542719184468e-05,-2.242697015040964810e-05
2.567460317460317665e+00,-2.131629297573434451e-05,-2.477505049310049375e-05
2.568253968253968456e+00,-1.780251823960202952e-05,-2.433188258759005963e-05
2.569047619047619246e+00,-1.208837326196948474e-05,-2.106068410188506604e-05
2.569841269841270037e+00,-5.284085772864693160e-06,-1.536094054630804140e-05
2.570634920634920828e+00,1.347394243644374368e-06,-7.989229299363646673e-06
2.571428571428571619e+00,6.657657729443633600e-06,8.574841405057070010e-08
2.572222222222222410e+00,9.818051973958004662e-06,7.851532298357059302e-06
2.573015873015873201e+00,1.042467198965419599e-05,1.440665177804908286e-05
2.573809523809523991e+00,8.505451367014765909e-06,1.907958693066076199e-05
2.574603174603174782e+00,4.461988941837266046e-06,2.150258240173567582e-05
2.575396825396825573e+00,-1.013642430968764595e-06,2.163803561201936083e-05
2.576190476190476364e+00,-7.021843287240657574e-06,1.975909777883802352e-05
2.576984126984127155e+00,-1.253796431162093178e-05,1.638960066684350955e-05
2.577777777777777946e+00,-1.651179880297808051e-05,1.221122622986584665e-05
2.578571428571428736e+00,-1.800111262735387053e-05,7.947699255488839331e-06
2.579365079365079527e+00,-1.633910843705987589e-05,4.239323100702255272e-06
2.580158730158730318e+00,-1.131193585372726545e-05,1.527037188439823510e-06
2.580952380952381109e+00,-3.302719943621313253e-06,-3.213553208611973274e-08
2.581746031746031900e+00,6.649233542359898080e-06,-6.012400337229598951e-07
2.582539682539682691e+00,1.691759928142856973e-05,-6.423799968465965642e-07
2.583333333333333481e+00,2.550722515934912392e-05,-8.347002745923968087e-07
2.584126984126984272e+00,3.040742825328061812e-05,-1.930700118258795460e-06
2.584920634920635063e+00,3.002511198439711547e-05,-4.561418723095520235e-06
2.585714285714285854e+00,2.360423297523450527e-05,-9.025149853888793044e-06
2.586507936507936645e+00,1.151969359675339522e-05,-1.512024498672639514e-05
2.587301587301587436e+00,-4.650265393372488145e-06,-2.208857008551803726e-05
2.588095238095238226e+00,-2.231831612013697653e-05,-2.870975804504815565e-05
2.588888888888889017e+00,-3.832542943520990918e-05,-3.353836864706252551e-05
2.589682539682539808e+00,-4.953537646045665902e-05,-3.523216287422990865e-05
2.590476190476190599e+00,-5.346193409694511314e-05,-3.289702472157542726e-05
2.591269841269841390e+00,-4.879643034807723377e-05,-2.637058209210358645e-05
2.592063492063492181e+00,-3.572254779112130275e-05,-1.637489675933851536e-05
2.592857142857142971e+00,-1.594421256767135250e-05,-4.489411494448382116e-06
2.593650793650793762e+00,7.595338891502067435e-06,7.070539622105167030e-06
2.594444444444444553e+00,3.126287834966359806e-05,1.584712407348592061e-05
2.595238095238095344e+00,5.144706674766181111e-05,1.965381403144379058e-05
2.596031746031746135e+00,6.527648880829039688e-05,1.713385450400134731e-05
2.596825396825396925e+00,7.117428160614342652e-05,8.256258446939331033e-06
2.597619047619047716e+00,6.911546191513029576e-05,-5.391921799362702874e-06
2.598412698412698507e+00,6.052867398245698297e-05,-2.066526151648018626e-05
2.599206349206349298e+00,4.787593011341218446e-05,-3.336666631353181418e-05
2.600000000000000089e+00,3.402475527955653960e-05,-3.917833226555692271e-05
2.600793650793650880e+00,2.157514249706123858e-05,-3.484157925237544310e-05
2.601587301587301670e+00,1.230770238872699366e-05,-1.927013844762633235e-05
2.602380952380952461e+00,6.880370159533884101e-06,5.788209935455526752e-06
2.603174603174603252e+00,4.830398680553446912e-06,3.585682750422483487e-05
2.603968253968254043e+00,4.855138890350002214e-06,6.467764241376648790e-05
2.604761904761904834e+00,5.272898209107168847e-06,8.575644101704911633e-05
2.605555555555555625e+00,4.525648300068878817e-06,9.403718437413078452e-05
2.606349206349206415e+00,1.588901647849103611e-06,8.720883678277518752e-05
2.607142857142857206e+00,-3.805043429254396481e-06,6.628199691671536869e-05
2.607936507936507997e+00,-1.116364169973375997e-05,3.529553556654475307e-05
2.608730158730158788e+00,-1.942347691314661891e-05,2.727718531006592498e-07
2.609523809523809579e+00,-2.726167231628371556e-05,-3.223623346636993555e-05
2.610317460317460370e+00,-3.343866277770219422e-05,-5.660604670882117751e-05
2.611111111111111160e+00,-3.708587374733993705e-05,-6.922982315073085674e-05
2.611904761904761951e+00,-3.787545785575379098e-05,-6.906202741690987176e-05
2.612698412698412742e+00,-3.604533236311611896e-05,-5.758243554293056380e-05
2.613492063492063533e+00,-3.229209322682924626e-05,-3.828404463113005803e-05
2.614285714285714324e+00,-2.757514982368273953e-05,-1.586345934321080049e-05
2.615079365079365115e+00,-2.288833983746959875e-05,4.691244941226108188e-06
2.615873015873015905e+00,-1.905079418625596285e-05,1.895436767323645952e-05
2.616666666666666696e+00,-1.655599847105399203e-05,2.375619122314634072e-05
2.617460317460317487e+00,-1.550447348764006936e-05,1.766709215827609922e-05
2.618253968253968278e+00,-1.563090039241394867e-05,1.251532826353327583e-06
2.619047619047619069e+00,-1.641674041532753626e-05,-2.292319251655140376e-05
2.619841269841269860e+00,-1.725533243655627969e-05,-5.054321981912261480e-05
2.620634920634920650e+00,-1.761757618406578196e-05,-7.608622274501075297e-05
2.621428571428571441e+00,-1.716547879441122874e-05,-9.363210707951051526e-05
2.622222222222222232e+00,-1.578337599513754270e-05,-9.788450873022283777e-05
2.623015873015873023e+00,-1.353288549804184530e-05,-8.527461982988413880e-05
2.623809523809523814e+00,-1.056790337795932912e-05,-5.495216453283654514e-05
2.624603174603174605e+00,-7.054998177053879615e-06,-9.412546541007601526e-06
2.625396825396825395e+00,-3.131929199684988523e-06,4.550118185059826345e-05
2.626190476190476186e+00,1.086164784587599907e-06,1.013833891115465335e-04
2.626984126984126977e+00,5.465142478593910408e-06,1.487708963793593294e-04
2.627777777777777768e+00,9.801061292557800676e-06,1.790421240197909896e-04
2.628571428571428559e+00,1.379055974921135435e-05,1.862478268220845476e-04
2.629365079365079350e+00,1.704606160130033002e-05,1.684450749824063559e-04
2.630158730158730140e+00,1.916283224190229264e-05,1.282285474451971992e-04
2.630952380952380931e+00,1.982298034408233546e-05,7.229380796960164514e-05
2.631746031746031722e+00,1.890238628658745047e-05,1.005927008225383129e-05
2.632539682539682513e+00,1.653972122836126267e-05,-4.835653792241649920e-05
2.633333333333333304e+00,1.313788675996037269e-05,-9.426525761579237930e-05
2.634126984126984095e+00,9.293318508893639492e-06,-1.220620035131151439e-04
2.634920634920634885e+00,5.674504781905193540e-06,-1.300058736274949307e-04
2.635714285714285676e+00,2.884998948193308067e-06,-1.200427687360000275e-04
2.636507936507936467e+00,1.344904600639164064e-06,-9.686428599042535160e-05
2.637301587301587258e+00,1.214338043891925271e-06,-6.655315181562417037e-05
2.638095238095238049e+00,2.370551594808529126e-06,-3.519156630915989438e-05
2.638888888888888840e+00,4.440741084859514038e-06,-7.740056661120286338e-06
2.639682539682539630e+00,6.884172158242560691e-06,1.262638678843143525e-05
2.640476190476190421e+00,9.108379259274997872e-06,2.467696670449962804e-05
2.641269841269841212e+00,1.059554417650601555e-05,2.885634473258906252e-05
2.642063492063492003e+00,1.101067414823074037e-05,2.674886629264780396e-05
2.642857142857142794e+00,1.026670910961202896e-05,2.045937954780515709e-05
2.643650793650793585e+00,8.532645434042704553e-06,1.206656853112263099e-05
2.644444444444444375e+00,6.184354779938366813e-06,3.250156885672374341e-06
2.645238095238095166e+00,3.709381588550754934e-06,-4.866135672475126720e-06
2.646031746031745957e+00,1.585366401287691017e-06,-1.166852909496443430e-05
2.646825396825396748e+00,1.574985284648418427e-07,-1.686384116007274195e-05
2.647619047619047539e+00,-4.571530769001622172e-07,-2.024123291682311510e-05
2.648412698412698330e+00,-4.136629536194674127e-07,-2.149023674291486267e-05
2.649206349206349120e+00,-1.163557718430993424e-07,-2.015818238504711739e-05
2.649999999999999911e+00,-1.277623816206894997e-07,-1.577624119774687054e-05
2.650793650793650702e+00,-1.023686349940134330e-06,-8.111114794801799934e-06
2.651587301587301493e+00,-3.222851151946525890e-06,2.567701090810122567e-06
2.652380952380952284e+00,-6.829849921346674869e-06,1.534741034360879026e-05
2.653174603174603075e+00,-1.153353952762209203e-05,2.876827430061160593e-05
2.653968253968253865e+00,-1.659730678025850167e-05,4.116112492215056695e-05
2.654761904761904656e+00,-2.096177403844647175e-05,5.109373981223450453e-05
2.655555555555555447e+00,-2.345515550737174156e-05,5.771622469130434114e-05
2.656349206349206238e+00,-2.307482459993531041e-05,6.084143937832375235e-05
2.657142857142857029e+00,-1.927290842001803947e-05,6.073736829005466043e-05
2.657936507936507819e+00,-1.216099096542078930e-05,5.775186204194990422e-05
2.658730158730158610e+00,-2.558396755075929430e-06,5.196543138921546143e-05
2.659523809523809401e+00,8.148719987364186248e-06,4.305778497147725507e-05
2.660317460317460192e+00,1.830655838351397420e-05,3.048727179424076431e-05
2.661111111111110983e+00,2.636408058844529371e-05,1.393851264343951508e-05
2.661904761904761774e+00,3.120554190310891035e-05,-6.156838334145247097e-06
2.662698412698412564e+00,3.235571310353317067e-05,-2.829238613301971632e-05
2.663492063492063355e+00,3.001736880178226263e-05,-4.994896498994768057e-05
2.664285714285714146e+00,2.495660126091863346e-05,-6.806545495799190006e-05
2.665079365079364937e+00,1.829298335220258379e-05,-7.976074044013522579e-05
2.665873015873015728e+00,1.126510912519978194e-05,-8.305808399802820869e-05
2.666666666666666519e+00,5.026583264796227631e-06,-7.736875166520709593e-05
2.667460317460317309e+00,4.952592730085564214e-07,-6.357482040467755415e-05
2.668253968253968100e+00,-1.750582333677321626e-06,-4.370042746226184070e-05
2.669047619047618891e+00,-1.544728159788883693e-06,-2.033584800079402290e-05
2.669841269841269682e+00,8.229633817122081069e-07,3.916934122669667252e-06
2.670634920634920473e+00,4.609267953636789383e-06,2.675791690117947132e-05
2.671428571428571264e+00,8.695557329001090896e-06,4.621938583501456513e-05
2.672222222222222054e+00,1.175929025124721981e-05,6.055119036107185277e-05
2.673015873015872845e+00,1.253080029271853059e-05,6.817357676159714012e-05
2.673809523809523636e+00,1.009622339752707648e-05,6.784873193363100510e-05
2.674603174603174427e+00,4.181733636671622336e-06,5.906746251963943868e-05
2.675396825396825218e+00,-4.661231109117801560e-06,4.247900981742900581e-05
2.676190476190476009e+00,-1.504943907105461099e-05,2.009993154027086683e-05
2.676984126984126799e+00,-2.499134820376766719e-05,-4.910936473519078226e-06
2.677777777777777590e+00,-3.232746199196879388e-05,-2.892793608662153274e-05
2.678571428571428381e+00,-3.528784560356132351e-05,-4.874991252418803863e-05
2.679365079365079172e+00,-3.299866585424721219e-05,-6.232775716249199405e-05
2.680158730158729963e+00,-2.576119914624736752e-05,-6.902844396513603412e-05
2.680952380952380754e+00,-1.499234283078333030e-05,-6.939309675665907234e-05
2.681746031746031544e+00,-2.833899544408978131e-06,-6.459359326900058638e-05
2.682539682539682335e+00,8.437344840829914954e-06,-5.587983651093256926e-05
2.683333333333333126e+00,1.698956713832093819e-05,-4.423856642777038211e-05
2.684126984126983917e+00,2.180632074535234378e-05,-3.034541111643542164e-05
2.684920634920634708e+00,2.274427697800261754e-05,-1.476784956468135340e-05
2.685714285714285499e+00,2.031230790266492380e-05,1.694445048884644140e-06
2.686507936507936289e+00,1.531570276153099047e-05,1.767504203358053741e-05
2.687301587301587080e+00,8.541981848514924804e-06,3.107764144497909679e-05
2.688095238095238315e+00,6.141700372138267194e-07,3.925560079661998979e-05
2.688888888888889106e+00,-7.963445642470232071e-06,3.962049896493213987e-05
2.689682539682539897e+00,-1.664271972722740210e-05,3.055806989832536948e-05
2.690476190476190688e+00,-2.468419607534305446e-05,1.230697495248374799e-05
2.691269841269841478e+00,-3.114741134178700593e-05,-1.260308373324751811e-05
2.692063492063492269e+00,-3.507216404425401654e-05,-3.958753123355747487e-05
2.692857142857143060e+00,-3.580283358743888296e-05,-6.287152777403671501e-05
2.693650793650793851e+00,-3.331930157724892239e-05,-7.672457766707100355e-05
2.694444444444444642e+00,-2.840746452000880021e-05,-7.673682578532975678e-05
2.695238095238095433e+00,-2.255029923135256918e-05,-6.084317558758762162e-05
2.696031746031746223e+00,-1.752727333989505362e-05,-2.988196432942629647e-05
2.696825396825397014e+00,-1.482866978987748251e-05,1.241826008655649770e-05
2.697619047619047805e+00,-1.507568602147423886e-05,6.000741446375980424e-05
2.698412698412698596e+00,-1.765901500561523809e-05,1.055185693965432226e-04
2.699206349206349387e+00,-2.075956716295531885e-05,1.415367182944400897e-04
2.700000000000000178e+00,-2.180062145289771559e-05,1.619391244044281609e-04
2.700793650793650968e+00,-1.822512746753901196e-05,1.630879833320565339e-04
2.701587301587301759e+00,-8.351469114727407312e-06,1.446230686554617149e-04
2.702380952380952550e+00,7.987066689970003408e-06,1.096064962173676590e-04
2.703174603174603341e+00,2.922947187210455592e-05,6.387363984928858701e-05
2.703968253968254132e+00,5.234233062763472128e-05,1.467480408144638506e-05
2.704761904761904923e+00,7.343438250971204414e-05,-3.101192206059395930e-05
2.705555555555555713e+00,8.855420338155311447e-05,-6.792123734369469486e-05
2.706349206349206504e+00,9.449574581329115298e-05,-9.318632322097565829e-05
2.707142857142857295e+00,8.946083779506766934e-05,-1.061134701653384437e-04
2.707936507936508086e+00,7.345922337655217543e-05,-1.073558772012523689e-04
2.708730158730158877e+00,4.837434968940494998e-05,-9.808012708719688201e-05
2.709523809523809668e+00,1.768625525379843418e-05,-7.960886142489265421e-05
2.710317460317460458e+00,-1.409814443726307478e-05,-5.361413738027791508e-05
2.711111111111111249e+00,-4.221635015089526149e-05,-2.255719788051489580e-05
2.711904761904762040e+00,-6.249972438759267431e-05,1.003914295297841210e-05
2.712698412698412831e+00,-7.214218311677117815e-05,3.976590233277820842e-05
2.713492063492063622e+00,-7.021023364019934410e-05,6.200464734963884389e-05
2.714285714285714413e+00,-5.775258318447342191e-05,7.293838469669856742e-05
2.715079365079365203e+00,-3.747128396250008731e-05,7.057108056243585831e-05
2.715873015873015994e+00,-1.305236808460534694e-05,5.539791803909686180e-05
2.716666666666666785e+00,1.164047404873673281e-05,3.048864225080011954e-05
2.717460317460317576e+00,3.328058466923461677e-05,9.521308168450835393e-07
2.718253968253968367e+00,4.953509078632882550e-05,-2.707054247606047453e-05
2.719047619047619158e+00,5.920884962527010823e-05,-4.764444890733971312e-05
2.719841269841269948e+00,6.212617044804625590e-05,-5.624906203227627102e-05
2.720634920634920739e+00,5.886059757761695613e-05,-5.071426504160333868e-05
2.721428571428571530e+00,5.042819081896233508e-05,-3.169825086732387659e-05
2.722222222222222321e+00,3.802841847568326695e-05,-2.618016684518760380e-06
2.723015873015873112e+00,2.287554185350772158e-05,3.094335441538131177e-05
2.723809523809523903e+00,6.127799671240883660e-06,6.223624917653459488e-05
2.724603174603174693e+00,-1.110633274291780027e-05,8.457785513464332629e-05
2.725396825396825484e+00,-2.772570925883372506e-05,9.261151093894870033e-05
2.726190476190476275e+00,-4.260634808014004054e-05,8.336667036438568008e-05
2.726984126984127066e+00,-5.462313487152209467e-05,5.691224117148838553e-05
2.727777777777777857e+00,-6.273856718106048114e-05,1.646351733918207768e-05
2.728571428571428648e+00,-6.614037767364944827e-05,-3.209520938228554765e-05
2.729365079365079438e+00,-6.438424395155205966e-05,-8.120075780830031853e-05
2.730158730158730229e+00,-5.749848594974004665e-05,-1.229414840114212209e-04
2.730952380952381020e+00,-4.603234485641550757e-05,-1.504752380345001901e-04
2.731746031746031811e+00,-3.105154844269215816e-05,-1.592451907088618943e-04
2.732539682539682602e+00,-1.408417005716537544e-05,-1.477399905971309645e-04
2.733333333333333393e+00,2.994484432072018706e-06,-1.176614129807235768e-04
2.734126984126984183e+00,1.815364681490533414e-05,-7.352123718464417476e-05
2.734920634920634974e+00,2.947577921512165808e-05,-2.181716452523574203e-05
2.735714285714285765e+00,3.547554037352542138e-05,3.001945373523283569e-05
2.736507936507936556e+00,3.541535184893664269e-05,7.474549297614353934e-05
2.737301587301587347e+00,2.954147502117713143e-05,1.063877477344339368e-04
2.738095238095238138e+00,1.915249990738024049e-05,1.211767565866681462e-04
2.738888888888888928e+00,6.426335879945630988e-06,1.181780777138521509e-04
2.739682539682539719e+00,-6.012110001402015989e-06,9.943741703579010076e-05
2.740476190476190510e+00,-1.570840863613195059e-05,6.952301242849927483e-05
2.741269841269841301e+00,-2.101430622700806836e-05,3.451648646440836032e-05
2.742063492063492092e+00,-2.152941748036412163e-05,6.887148374207913578e-07
2.742857142857142883e+00,-1.817486386372185771e-05,-2.679851893179464005e-05
2.743650793650793673e+00,-1.284756135860865272e-05,-4.484234041397232865e-05
2.744444444444444464e+00,-7.766509081572934252e-06,-5.279429698141737326e-05
2.745238095238095255e+00,-4.749077014227722088e-06,-5.225735957303235098e-05
2.746031746031746046e+00,-4.680261000850677608e-06,-4.639128175527318929e-05
2.746825396825396837e+00,-7.346745880557497487e-06,-3.893453529250380101e-05
2.747619047619047628e+00,-1.164708366111083571e-05,-3.318661077381774259e-05
2.748412698412698418e+00,-1.604087450850081361e-05,-3.117205996516597656e-05
2.749206349206349209e+00,-1.903401763112204422e-05,-3.315102710423640516e-05
2.750000000000000000e+00,-1.953318155630470997e-05,-3.757280279999143359e-05
2.750793650793650791e+00,-1.700134890089485823e-05,-4.149586685767163761e-05
2.751587301587301582e+00,-1.144212187270701653e-05,-4.141260882400613205e-05
2.752380952380952372e+00,-3.287126205989853209e-06,-3.431500678570034425e-05
2.753174603174603163e+00,6.745298105328601176e-06,-1.873577669773754791e-05
2.753968253968253954e+00,1.778218812846194287e-05,4.556434169660306096e-06
2.754761904761904745e+00,2.890445883123854675e-05,3.247929224701268049e-05
2.755555555555555536e+00,3.922484403489699640e-05,6.026696625130883208e-05
2.756349206349206327e+00,4.793028842440593074e-05,8.264871954296432698e-05
2.757142857142857117e+00,5.429297098740969288e-05,9.522023341327938634e-05
2.757936507936507908e+00,5.767074821301246349e-05,9.559327247924442644e-05
2.758730158730158699e+00,5.753012022625241526e-05,8.398821484870957945e-05
2.759523809523809490e+00,5.351925831773363861e-05,6.311540990699396250e-05
2.760317460317460281e+00,4.559036504579992596e-05,3.742232703268583897e-05
2.761111111111111072e+00,3.412964418180036165e-05,1.196999703942104792e-05
2.761904761904761862e+00,2.002346764538384067e-05,-8.737914488292947038e-06
2.762698412698412653e+00,4.597182686385143219e-06,-2.170345004528212695e-05
2.763492063492063444e+00,-1.058496731423797570e-05,-2.598011519171646475e-05
2.764285714285714235e+00,-2.400089152689738483e-05,-2.272535665349566030e-05
2.765079365079365026e+00,-3.443349684728436421e-05,-1.477236050665852227e-05
2.765873015873015817e+00,-4.113159612429503778e-05,-5.845567483056973429e-06
2.766666666666666607e+00,-4.384433131394186681e-05,3.820289205111685417e-07
2.767460317460317398e+00,-4.276409479267272710e-05,1.184746209003469530e-06
2.768253968253968189e+00,-3.843480751356236346e-05,-4.539449142912682095e-06
2.769047619047618980e+00,-3.166204071562080553e-05,-1.595196745997158461e-05
2.769841269841269771e+00,-2.342530299885534241e-05,-3.041507222610309854e-05
2.770634920634920562e+00,-1.477240565462812383e-05,-4.410511297742180265e-05
2.771428571428571352e+00,-6.684293287585897349e-06,-5.297808291489389742e-05
2.772222222222222143e+00,7.322340407204216687e-08,-5.384093581250473052e-05
2.773015873015872934e+00,5.068231582907881706e-06,-4.522410656417259235e-05
2.773809523809523725e+00,8.245396875854206961e-06,-2.779499621251449467e-05
2.774603174603174516e+00,9.870860890738501788e-06,-4.192737891831766893e-06
2.775396825396825307e+00,1.039836137833972429e-05,2.164565682030876107e-05
2.776190476190476097e+00,1.030784468636875443e-05,4.543924346326502734e-05
2.776984126984126888e+00,9.974226593430177913e-06,6.351093099788041204e-05
2.777777777777777679e+00,9.604520509346519352e-06,7.349154115395059442e-05
2.778571428571428470e+00,9.249478164003874443e-06,7.464682962489986898e-05
2.779365079365079261e+00,8.866831132943915966e-06,6.780447939917609449e-05
2.780158730158730052e+00,8.398129633993919822e-06,5.495547005275020722e-05
2.780952380952380842e+00,7.823641348965529047e-06,3.867632210458979994e-05
2.781746031746031633e+00,7.175906403666852754e-06,2.154253346234312843e-05
2.782539682539682424e+00,6.513507654054235100e-06,5.669248624513117377e-06
2.783333333333333215e+00,5.873501048657305358e-06,-7.552673142467889037e-06
2.784126984126984006e+00,5.228628916980457233e-06,-1.751969679611841687e-05
2.784920634920634797e+00,4.472583313143994852e-06,-2.431033452743867115e-05
2.785714285714285587e+00,3.444325095379421500e-06,-2.846362608333651980e-05
2.786507936507936378e+00,1.985194323029706626e-06,-3.070622189926120035e-05
2.787301587301587169e+00,8.165615318747904577e-09,-3.169980811380735308e-05
2.788095238095237960e+00,-2.446087945879963860e-06,-3.187273303377495857e-05
2.788888888888888751e+00,-5.186300916805779207e-06,-3.137152830380722420e-05
2.789682539682539542e+00,-7.890544430552927553e-06,-3.012727499583132089e-05
2.790476190476190332e+00,-1.016794071100543336e-05,-2.799561466628673308e-05
2.791269841269841123e+00,-1.165084466568790344e-05,-2.491142485042138638e-05
2.792063492063491914e+00,-1.209573625937509033e-05,-2.100272088255024768e-05
2.792857142857142705e+00,-1.146313755875871925e-05,-1.662829584809245097e-05
2.793650793650793496e+00,-9.947592260366343165e-06,-1.233176517397070993e-05
2.794444444444444287e+00,-7.941993079985961947e-06,-8.730674179616451671e-06
2.795238095238095077e+00,-5.942263123272210138e-06,-6.373418630681761432e-06
2.796031746031745868e+00,-4.418279837511474207e-06,-5.596770572699108713e-06
2.796825396825396659e+00,-3.686572826123311788e-06,-6.411358399822189161e-06
2.797619047619047450e+00,-3.819134299387147847e-06,-8.441966480622188241e-06
2.798412698412698241e+00,-4.614891336877645964e-06,-1.095229829964107436e-05
2.799206349206349032e+00,-5.647644912536853939e-06,-1.297469138655471546e-05
2.799999999999999822e+00,-6.384115700093113683e-06,-1.353294043912536459e-05
2.800793650793650613e+00,-6.339510832445365206e-06,-1.190185516705204851e-05
2.801587301587301404e+00,-5.218736858487476125e-06,-7.819059246690514807e-06
2.802380952380952195e+00,-2.996115053414992641e-06,-1.574174221076146441e-06
2.803174603174602986e+00,8.431372797484508266e-08,6.055044238039703196e-06
2.803968253968253777e+00,3.574082035589190992e-06,1.399324728883790673e-05
2.804761904761904567e+00,6.924503353173391171e-06,2.111642463801644999e-05
2.805555555555555358e+00,9.607027751091543153e-06,2.648132076671662056e-05
2.806349206349206149e+00,1.123033105733715572e-05,2.947758254320742094e-05
2.807142857142856940e+00,1.162938460799291632e-05,2.987831906214130859e-05
2.807936507936507731e+00,1.089731852417996200e-05,2.779766325032188707e-05
2.808730158730158522e+00,9.341685363433593851e-06,2.359000745983251516e-05
2.809523809523809312e+00,7.374856721579035456e-06,1.773826598117862253e-05
2.810317460317460103e+00,5.378781016808667251e-06,1.077053371623796327e-05
2.811111111111110894e+00,3.596796130190549972e-06,3.218561220977065549e-06
2.811904761904761685e+00,2.091254845307813667e-06,-4.395809965395198420e-06
2.812698412698412920e+00,7.746868970662451538e-07,-1.157085272945515864e-05
2.813492063492063711e+00,-5.087750981470011778e-07,-1.784705079887437455e-05
2.814285714285714501e+00,-1.892741907785013171e-06,-2.283878144663199967e-05
2.815079365079365292e+00,-3.428839686559232609e-06,-2.626323837000849788e-05
2.815873015873016083e+00,-5.080128649387862235e-06,-2.795821479361214904e-05
2.816666666666666874e+00,-6.762663450159519851e-06,-2.789038824989440821e-05
2.817460317460317665e+00,-8.405717366951619856e-06,-2.615807812194670591e-05
2.818253968253968456e+00,-9.991728288843513208e-06,-2.298396017022401292e-05
2.819047619047619246e+00,-1.154891124349276554e-05,-1.868638621056275439e-05
2.819841269841270037e+00,-1.309713630203493599e-05,-1.362589910739578684e-05
2.820634920634920828e+00,-1.457474939380631555e-05,-8.142510171384415862e-06
2.821428571428571619e+00,-1.578485921391386429e-05,-2.510892456010568134e-06
2.822222222222222410e+00,-1.639073215390227442e-05,3.067931186554127827e-06
2.823015873015873201e+00,-1.596989033307825797e-05,8.441385321926251478e-06
2.823809523809523991e+00,-1.411628194373134189e-05,1.346567795855595386e-05
2.824603174603174782e+00,-1.056516974211085100e-05,1.797158539000513785e-05
2.825396825396825573e+00,-5.307210470897636236e-06,2.174748950008174818e-05
2.826190476190476364e+00,1.342653723219192037e-06,2.454538934837666918e-05
2.826984126984127155e+00,8.748080828631178943e-06,2.611381458542094534e-05
2.827777777777777946e+00,1.603627157127238419e-05,2.625737152514528340e-05
2.828571428571428736e+00,2.225283020208742129e-05,2.491157658496305214e-05
2.829365079365079527e+00,2.655109367767381686e-05,2.220931643572783394e-05
2.830158730158730318e+00,2.836518147694048699e-05,1.851220314555238687e-05
2.830952380952381109e+00,2.751828926799406913e-05,1.438993708428788820e-05
2.831746031746031900e+00,2.423985802749818930e-05,1.054660392777213439e-05
2.832539682539682691e+00,1.909715106598172869e-05,7.704796557465711860e-06
2.833333333333333481e+00,1.287147409480236103e-05,6.463854448828510027e-06
2.834126984126984272e+00,6.415566596352562629e-06,7.153167308901896930e-06
2.834920634920635063e+00,5.194798512134182418e-07,9.710629681677783299e-06
2.835714285714285854e+00,-4.200135298937139212e-06,1.362498838707927922e-05
2.836507936507936645e+00,-7.378691675775837023e-06,1.797677337531107631e-05
2.837301587301587436e+00,-8.942187478259943625e-06,2.158983630999304518e-05
2.838095238095238226e+00,-9.098333622230697027e-06,2.327192419795599983e-05
2.838888888888889017e+00,-8.278446335507886312e-06,2.209286504399443128e-05
2.839682539682539808e+00,-7.037373899638176678e-06,1.763394361719673864e-05
2.840476190476190599e+00,-5.927692874471363035e-06,1.014467241130548880e-05
2.841269841269841390e+00,-5.370891754100588607e-06,5.598193043773652045e-07
2.842063492063492181e+00,-5.552320134136926853e-06,-9.644593575408452884e-06
2.842857142857142971e+00,-6.367080137305587295e-06,-1.874564799169455755e-05
2.843650793650793762e+00,-7.436799496593244478e-06,-2.517229551129764810e-05
2.844444444444444553e+00,-8.200713116670323066e-06,-2.792903540866742583e-05
2.845238095238095344e+00,-8.064008028608191789e-06,-2.694149269590126399e-05
2.846031746031746135e+00,-6.570306539480573157e-06,-2.321799300983691666e-05
2.846825396825396925e+00,-3.557084289846382294e-06,-1.874743199502435599e-05
2.847619047619047716e+00,7.485272470073550641e-07,-1.610856011852952242e-05
2.848412698412698507e+00,5.729528087167911447e-06,-1.783815208589555130e-05
2.849206349206349298e+00,1.049071892860238637e-05,-2.567952308033024652e-05
2.850000000000000089e+00,1.406590282520728914e-05,-3.989162984252385413e-05
2.850793650793650880e+00,1.567020854942671138e-05,-5.882323331498178474e-05
2.851587301587301670e+00,1.492648359796646697e-05,-7.892789661834394082e-05
2.852380952380952461e+00,1.199479733735567326e-05,-9.530600324581875991e-05
2.853174603174603252e+00,7.554967495041372496e-06,-1.027190987113245726e-04
2.853968253968254043e+00,2.631552496484502824e-06,-9.686288115720938132e-05
2.854761904761904834e+00,-1.697495546612550712e-06,-7.556710456996385678e-05
2.855555555555555625e+00,-4.620024647967025291e-06,-3.957308460710037379e-05
2.856349206349206415e+00,-5.828774295911156336e-06,7.363824321991561481e-06
2.857142857142857206e+00,-5.595125749964359007e-06,5.912469107438777713e-05
2.857936507936507997e+00,-4.649643236250250858e-06,1.084944435607039493e-04
2.858730158730158788e+00,-3.909262950838468234e-06,1.486953066493941218e-04
2.859523809523809579e+00,-4.143819045071561983e-06,1.747095748769302904e-04
2.860317460317460370e+00,-5.695851428346404663e-06,1.839927286525916428e-04
2.861111111111111160e+00,-8.350338920860024799e-06,1.764598175224073946e-04
2.861904761904761951e+00,-1.139914995274261643e-05,1.539475206077527169e-04
2.862698412698412742e+00,-1.387525148952960359e-05,1.195111605973303982e-04
2.863492063492063533e+00,-1.486984323745217536e-05,7.684646149804765165e-05
2.864285714285714324e+00,-1.381716756324189037e-05,2.992868580427846380e-05
2.865079365079365115e+00,-1.065006221965315575e-05,-1.720853647215913782e-05
2.865873015873015905e+00,-5.785947513894863876e-06,-6.068023582606425829e-05
2.866666666666666696e+00,2.979358154736440745e-08,-9.700306644482050420e-05
2.867460317460317487e+00,5.948600431115822939e-06,-1.233619885996559411e-04
2.868253968253968278e+00,1.122571009952398162e-05,-1.378270017588699122e-04
2.869047619047619069e+00,1.534595135460816250e-05,-1.394993962319986418e-04
2.869841269841269860e+00,1.804811624429453548e-05,-1.286178988138202248e-04
2.870634920634920650e+00,1.927169359232198275e-05,-1.066426555824423635e-04
2.871428571428571441e+00,1.907517377865005235e-05,-7.626362019469904829e-05
2.872222222222222232e+00,1.757289314071749537e-05,-4.122541978061358242e-05
2.873015873015873023e+00,1.491459710382543580e-05,-5.894866411481718127e-06
2.873809523809523814e+00,1.130438124381950222e-05,2.537898933003547678e-05
2.874603174603174605e+00,7.035532140964516347e-06,4.892785404994162203e-05
2.875396825396825395e+00,2.509465834659220133e-06,6.222642462711856586e-05
2.876190476190476186e+00,-1.788650874120771876e-06,6.402989723966813517e-05
2.876984126984126977e+00,-5.368022600544105937e-06,5.423837106389326016e-05
2.877777777777777768e+00,-7.848959270683645797e-06,3.367475820844785924e-05
2.878571428571428559e+00,-9.079219382234250815e-06,3.980805571090108268e-06
2.879365079365079350e+00,-9.201213412138284950e-06,-3.226541440869689639e-05
2.880158730158730140e+00,-8.632622645216933639e-06,-7.127865555304342649e-05
2.880952380952380931e+00,-7.952042696774245004e-06,-1.078784967449660426e-04
2.881746031746031722e+00,-7.716304856972979086e-06,-1.357019165504036689e-04
2.882539682539682513e+00,-8.264025245948031443e-06,-1.480587869802896760e-04
2.883333333333333304e+00,-9.572013244461128313e-06,-1.394249575397515082e-04
2.884126984126984095e+00,-1.122244722655139591e-05,-1.072246069953329865e-04
2.884920634920634885e+00,-1.250671085937474151e-05,-5.327528709853166232e-05
2.885714285714285676e+00,-1.264251520065924463e-05,1.576970018708229594e-05
2.886507936507936467e+00,-1.103351320655244437e-05,8.936322781179077170e-05
2.887301587301587258e+00,-7.478760093487066233e-06,1.552590759288522207e-04
2.888095238095238049e+00,-2.256364810067490044e-06,2.023272294538317243e-04
2.888888888888888840e+00,3.944177347746044977e-06,2.231125112378307975e-04
2.889682539682539630e+00,1.020618283978973954e-05,2.153721523745939510e-04
2.890476190476190421e+00,1.561072999430381680e-05,1.822246664089004025e-04
2.891269841269841212e+00,1.942393141783502414e-05,1.310284741463849621e-04
2.892063492063492003e+00,2.120006797486265031e-05,7.146605529102720560e-05
2.892857142857142794e+00,2.079781425642047583e-05,1.341517225719067512e-05
2.893650793650793585e+00,1.833758633837074355e-05,-3.491459300245618576e-05
2.894444444444444375e+00,1.413552520264235015e-05,-6.827369487895243536e-05
2.895238095238095166e+00,8.639370839538052714e-06,-8.493382740710010476e-05
2.896031746031745957e+00,2.375918535978040134e-06,-8.648765792863834202e-05
2.896825396825396748e+00,-4.091079099191350021e-06,-7.699488512035739429e-05
2.897619047619047539e+00,-1.019669803469861117e-05,-6.171468893878820567e-05
2.898412698412698330e+00,-1.540739485673848911e-05,-4.574331671134754924e-05
2.899206349206349120e+00,-1.925371832743199790e-05,-3.287119193387721603e-05
2.899999999999999911e+00,-2.136848996624082743e-05,-2.489276851217898573e-05
2.900793650793650702e+00,-2.153418373377831801e-05,-2.147459820911376663e-05
2.901587301587301493e+00,-1.973510005860350944e-05,-2.055118540725644935e-05
2.902380952380952284e+00,-1.619889833300347772e-05,-1.910855970060502994e-05
2.903174603174603075e+00,-1.140506291137272764e-05,-1.415150341428833070e-05
2.903968253968253865e+00,-6.040152096615651576e-06,-3.633354660292842242e-06
2.904761904761904656e+00,-8.930346376155894886e-07,1.285066450076064917e-05
2.905555555555555447e+00,3.294972783719455234e-06,3.375264353680607694e-05
2.906349206349206238e+00,5.988374784611286874e-06,5.571507097755248704e-05
2.907142857142857029e+00,6.976862354937591446e-06,7.415668195138200129e-05
2.907936507936507819e+00,6.416607459440155334e-06,8.421169747744949126e-05
2.908730158730158610e+00,4.779165678228974318e-06,8.186083391772848298e-05
2.909523809523809401e+00,2.723969375257983010e-06,6.502578325024555407e-05
2.910317460317460192e+00,9.332313276832332351e-07,3.435653115053111101e-05
2.911111111111110983e+00,-4.410855431740841632e-08,-6.537434159836186910e-06
2.911904761904761774e+00,9.926585150317980231e-08,-5.154829785545304518e-05
2.912698412698412564e+00,1.387944881277575182e-06,-9.317733995873225925e-05
2.913492063492063355e+00,3.587611341228084502e-06,-1.240543575430810407e-04
2.914285714285714146e+00,6.275505496081373526e-06,-1.385086542966020560e-04
2.915079365079364937e+00,8.933679516626512505e-06,-1.338073261441671488e-04
2.915873015873015728e+00,1.104425088933360511e-05,-1.107606451254120923e-04
2.916666666666666519e+00,1.217243276813457912e-05,-7.355609251026252397e-05
2.917460317460317309e+00,1.202914111652934331e-05,-2.886480192474668322e-05
2.918253968253968100e+00,1.050950829318063596e-05,1.558395601579164335e-05
2.919047619047618891e+00,7.707111497989551285e-06,5.265536275322533593e-05
2.919841269841269682e+00,3.905708206472972241e-06,7.730908181926477070e-05
2.920634920634920473e+00,-4.500856688381946724e-07,8.755346017017287487e-05
2.921428571428571264e+00,-4.805417661108300982e-06,8.457246841227179573e-05
2.922222222222222054e+00,-8.567279067583074287e-06,7.199793450056104918e-05
2.923015873015872845e+00,-1.119409118096646193e-05,5.459821158079519645e-05
2.923809523809523636e+00,-1.229162494137598006e-05,3.684544002617559563e-05
2.924603174603174427e+00,-1.169690758583449566e-05,2.182026963264065513e-05
2.925396825396825218e+00,-9.528121348064942257e-06,1.073889203459887126e-05
2.926190476190476009e+00,-6.181648620963605015e-06,3.134528248404993764e-06
2.926984126984126799e+00,-2.269063972971219597e-06,-2.497658558944632368e-06
2.927777777777777590e+00,1.495857616434693004e-06,-7.890737996521136893e-06
2.928571428571428381e+00,4.434684410291430221e-06,-1.429851085840615630e-05
2.929365079365079172e+00,6.034698177294076774e-06,-2.204329468054323749e-05
2.930158730158729963e+00,6.044695665715735814e-06,-3.036105323410121887e-05
2.930952380952380754e+00,4.519488572747394914e-06,-3.752437444187353932e-05
2.931746031746031544e+00,1.807510512754992727e-06,-4.120112785815241104e-05
2.932539682539682335e+00,-1.515389170763832950e-06,-3.899376253517824055e-05
2.933333333333333126e+00,-4.755746823274232179e-06,-2.908421527492532194e-05
2.934126984126983917e+00,-7.238064015621368768e-06,-1.088008050620948272e-05
2.934920634920634708e+00,-8.440732578658800779e-06,1.447240948903485682e-05
2.935714285714285499e+00,-8.102727429175246690e-06,4.385712046917761964e-05
2.936507936507936289e+00,-6.274971343505233105e-06,7.236756915063521109e-05
2.937301587301587080e+00,-3.303306201552970359e-06,9.396530414710824110e-05
2.938095238095238315e+00,2.501811719588701420e-07,1.025874673796505241e-04
2.938888888888889106e+00,3.722350563951370526e-06,9.355367365334525502e-05
2.939682539682539897e+00,6.468282261745580738e-06,6.499792980308874500e-05
2.940476190476190688e+00,7.959620614541424748e-06,1.895258267025406039e-05
2.941269841269841478e+00,7.853227941507022984e-06,-3.830968940918572655e-05
2.942063492063492269e+00,6.035139933794835333e-06,-9.695751371078141967e-05
2.942857142857143060e+00,2.647626316737022454e-06,-1.453363460473062671e-04
2.943650793650793851e+00,-1.900578060122676516e-06,-1.724725852587800630e-04
2.944444444444444642e+00,-6.951225613568104246e-06,-1.707960930373978229e-04
2.945238095238095433e+00,-1.165567422693057533e-05,-1.383966645937877930e-04
2.946031746031746223e+00,-1.508614190700506689e-05,-8.014832844510076670e-05
2.946825396825397014e+00,-1.639524125113377021e-05,-7.214039986364394294e-06
2.947619047619047805e+00,-1.500093228568173609e-05,6.519517156331231878e-05
2.948412698412698596e+00,-1.075547325295119740e-05,1.214068541004555450e-04
2.949206349206349387e+00,-4.046425613356883328e-06,1.492794180895159616e-04
2.950000000000000178e+00,4.215881441400435317e-06,1.433745602186422413e-04
2.950793650793650968e+00,1.274175345319506846e-05,1.062756967684936319e-04
2.951587301587301759e+00,2.011107695316055697e-05,4.765963497778213194e-05
2.952380952380952550e+00,2.506594808682767841e-05,-1.848144644986740581e-05
2.953174603174603341e+00,2.677292038788373603e-05,-7.750872970135777281e-05
2.953968253968254132e+00,2.499424258250836293e-05,-1.176026237834855345e-04
2.954761904761904923e+00,2.013470268492592612e-05,-1.321643136360461880e-04
2.955555555555555713e+00,1.316034158876775712e-05,-1.206973287036799296e-04
2.956349206349206504e+00,5.411294258749335636e-06,-8.814008397588354513e-05
2.957142857142857295e+00,-1.650458200056199053e-06,-4.300237839772309384e-05
2.957936507936508086e+00,-6.709771478026252717e-06,5.056116211956544362e-06
2.958730158730158877e+00,-8.838944503257872780e-06,4.747409216348405189e-05
2.959523809523809668e+00,-7.678505820449981790e-06,7.830000569848129775e-05
2.960317460317460458e+00,-3.538120271582381742e-06,9.475679180001482179e-05
2.961111111111111249e+00,2.600363338606369193e-06,9.698942673336533504e-05
2.961904761904762040e+00,9.199392905628233703e-06,8.729879004162571072e-05
2.962698412698412831e+00,1.441840735107159713e-05,6.918089507195563856e-05
2.963492063492063622e+00,1.649331055306578288e-05,4.643323179096400045e-05
2.964285714285714413e+00,1.418527091616075024e-05,2.250326959725338049e-05
2.965079365079365203e+00,7.188268519558055064e-06,1.386632929754371891e-07
2.965873015873015994e+00,-3.641205477863558384e-06,-1.871854984691288318e-05
2.966666666666666785e+00,-1.634124562506812786e-05,-3.291048607976035378e-05
2.967460317460317576e+00,-2.821948430479547109e-05,-4.200650160496487764e-05
2.968253968253968367e+00,-3.647924541716849472e-05,-4.623361018532740513e-05
2.969047619047619158e+00,-3.894459860914978267e-05,-4.636175959740294075e-05
2.969841269841269948e+00,-3.467911176924409240e-05,-4.349847911062778118e-05
2.970634920634920739e+00,-2.429395068053197360e-05,-3.877685633553275345e-05
2.971428571428571530e+00,-9.820204914691730568e-06,-3.298085091685105876e-05
2.972222222222222321e+00,5.825532604589549823e-06,-2.622238238302289362e-05
2.973015873015873112e+00,1.958821245008273307e-05,-1.783239044384046494e-05
2.973809523809523903e+00,2.896189951365235501e-05,-6.607293052942655377e-06
2.974603174603174693e+00,3.240956259260274053e-05,8.569128805670097958e-06
2.975396825396825484e+00,2.947131000987716741e-05,2.790252764785997996e-05
2.976190476190476275e+00,2.067075318488350105e-05,5.000661717471631689e-05
2.976984126984127066e+00,7.372718810379147184e-06,7.173560608900060576e-05
2.977777777777777857e+00,-8.330366968794027671e-06,8.873501674527520700e-05
2.978571428571428648e+00,-2.374142824354133483e-05,9.660868333144459095e-05
2.979365079365079438e+00,-3.579220899968035407e-05,9.231158745603549492e-05
2.980158730158730229e+00,-4.146705026798526439e-05,7.526562083110861388e-05
2.980952380952381020e+00,-3.841265857098725175e-05,4.779857393756025032e-05
2.981746031746031811e+00,-2.561790939508405644e-05,1.474469865196599525e-05
2.982539682539682602e+00,-3.950154297058066241e-06,-1.769153271779974726e-05
2.983333333333333393e+00,2.368969077857662590e-05,-4.349135364476811998e-05
2.984126984126984183e+00,5.273689371525953093e-05,-5.835208096002441008e-05
2.984920634920634974e+00,7.781622310706472570e-05,-6.073340934352294796e-05
2.985714285714285765e+00,9.386001686129207911e-05,-5.208564657852300222e-05
2.986507936507936556e+00,9.719237206051556225e-05,-3.618922873394879615e-05
2.987301587301587347e+00,8.631494060665528183e-05,-1.786642091664855260e-05
2.988095238095238138e+00,6.223239982984518637e-05,-1.567272793793743032e-06
2.988888888888888928e+00,2.827387017889701262e-05,9.665455462313533107e-06
2.989682539682539719e+00,-1.053038725739987817e-05,1.458087624611767494e-05
2.990476190476190510e+00,-4.838089757550230046e-05,1.349466637301319978e-05
2.991269841269841301e+00,-7.976315704821169029e-05,7.714617884301040463e-06
2.992063492063492092e+00,-1.004130900003732182e-04,-1.067659426793203317e-06
2.992857142857142883e+00,-1.079935998384866282e-04,-1.119163415477433014e-05
2.993650793650793673e+00,-1.023443084222067274e-04,-2.117948506199752800e-05
2.994444444444444464e+00,-8.527758843915012553e-05,-2.969770104068705620e-05
2.995238095238095255e+00,-6.001772013666725601e-05,-3.547228625372986883e-05
2.996031746031746046e+00,-3.046764702667979435e-05,-3.728778440682861190e-05
2.996825396825396837e+00,-5.104560016859151893e-07,-3.413048825342731972e-05
2.997619047619047628e+00,2.649007997952158359e-05,-2.544951048250049879e-05
2.998412698412698418e+00,4.791691270264968440e-05,-1.143986711244608870e-05
2.999206349206349209e+00,6.189275240335553104e-05,6.775818675993363473e-06
3.000000000000000000e+00,6.716631721277464329e-05,2.716203621831209694e-05
3.000793650793650791e+00,6.305195828302173145e-05,4.699994995339130109e-05
3.001587301587301582e+00,4.954039309248331105e-05,6.326668609823908140e-05
3.002380952380952372e+00,2.758642049211752165e-05,7.306675486504619790e-05
3.003174603174603163e+00,-5.663495181995241538e-07,7.405462047381651091e-05
3.003968253968253954e+00,-3.127041076286409508e-05,6.483773286350969487e-05
3.004761904761904745e+00,-5.979918429400487634e-05,4.534168609186644395e-05
3.005555555555555536e+00,-8.117330218482736264e-05,1.705718009967480727e-05
3.006349206349206327e+00,-9.129910882399666985e-05,-1.695138628118156545e-05
3.007142857142857117e+00,-8.803746788033642778e-05,-5.235995835664680563e-05
3.007936507936507908e+00,-7.180671862211497689e-05,-8.421306517288548190e-05
3.008730158730158699e+00,-4.550287120114690113e-05,-1.077545363624201480e-04
3.009523809523809490e+00,-1.378889677445417374e-05,-1.192703828885728184e-04
3.010317460317460281e+00,1.798429654448161370e-05,-1.167354342237256199e-04
3.011111111111111072e+00,4.489681687025239438e-05,-1.001222975876022803e-04
3.011904761904761862e+00,6.335331447401331892e-05,-7.135417366721118117e-05
3.012698412698412653e+00,7.160273480844339103e-05,-3.398671469021042409e-05
3.013492063492063444e+00,6.984393332656039415e-05,7.268312120792273392e-06
3.014285714285714235e+00,5.995539723383544288e-05,4.710601006338912682e-05
3.015079365079365026e+00,4.494308077286981746e-05,8.025954148629794419e-05
3.015873015873015817e+00,2.823963491841904037e-05,1.021896000865560420e-04
3.016666666666666607e+00,1.300713845578578971e-05,1.097741005778101147e-04
3.017460317460317398e+00,1.585596964938877691e-06,1.018733570469665015e-04
3.018253968253968189e+00,-4.812612349448316854e-06,7.961577899162962737e-05
3.019047619047618980e+00,-6.129957792375875064e-06,4.628667696349418332e-05
3.019841269841269771e+00,-3.254980248180734908e-06,6.799407318942433568e-06
3.020634920634920562e+00,2.325004555064556067e-06,-3.315473699203102333e-05
3.021428571428571352e+00,8.897858189487758653e-06,-6.808918605464261747e-05
3.022222222222222143e+00,1.484286297234286512e-05,-9.361476444597459519e-05
3.023015873015872934e+00,1.885395584328576461e-05,-1.070567587721240840e-04
3.023809523809523725e+00,2.007685032413543698e-05,-1.077017217939227448e-04
3.024603174603174516e+00,1.818271754791885521e-05,-9.667991097063166606e-05
3.025396825396825307e+00,1.338936355040525296e-05,-7.655638278509678193e-05
3.026190476190476097e+00,6.418545929938907747e-06,-5.073242779444828420e-05
3.026984126984126888e+00,-1.630644158527745139e-06,-2.277679957275482485e-05
3.027777777777777679e+00,-9.494205177453471920e-06,4.173585576138133635e-06
3.028571428571428470e+00,-1.600737662213296336e-05,2.780871572234319350e-05
3.029365079365079261e+00,-2.035617119780558894e-05,4.676604822917658554e-05
3.030158730158730052e+00,-2.224490697487457711e-05,6.051360885286520075e-05
3.030952380952380842e+00,-2.192752674004712354e-05,6.911264885952215424e-05
3.031746031746031633e+00,-2.008993773133223120e-05,7.297836067271130651e-05
3.032539682539682424e+00,-1.761864255184733116e-05,7.270304373477708289e-05
3.033333333333333215e+00,-1.532908420200950581e-05,6.895417963519778000e-05
3.034126984126984006e+00,-1.373803021083738663e-05,6.243260382119729455e-05
3.034920634920634797e+00,-1.294452184524386147e-05,5.385956508481035907e-05
3.035714285714285587e+00,-1.264502589599168381e-05,4.395258334643301626e-05
3.036507936507936378e+00,-1.226665577424967873e-05,3.336562669232546498e-05
3.037301587301587169e+00,-1.117026017057098634e-05,2.261147129483927296e-05
3.038095238095237960e+00,-8.860429243958541657e-06,1.202166996418197012e-05
3.038888888888888751e+00,-5.144427946918819601e-06,1.794731788942243956e-06
3.039682539682539542e+00,-2.025403158999091017e-07,-7.868335459375701144e-06
3.040476190476190332e+00,5.441080227923608793e-06,-1.660514587999179653e-05
3.041269841269841123e+00,1.103391922047520347e-05,-2.380444189306151802e-05
3.042063492063491914e+00,1.576542635369689388e-05,-2.866202836998851887e-05
3.042857142857142705e+00,1.894801884891179992e-05,-3.038721608608318573e-05
3.043650793650793496e+00,2.016171899282453563e-05,-2.849066616092949233e-05
3.044444444444444287e+00,1.932782940426988014e-05,-2.303492738676485838e-05
3.045238095238095077e+00,1.670219452506935536e-05,-1.473811074562306885e-05
3.046031746031745868e+00,1.280331578454987554e-05,-4.890857972164720437e-06
3.046825396825396659e+00,8.302667892414096761e-06,4.868941967939575919e-06
3.047619047619047450e+00,3.903018333568592948e-06,1.284136317793323902e-05
3.048412698412698241e+00,2.234676303482815324e-07,1.754938508221752817e-05
3.049206349206349032e+00,-2.294668948160496480e-06,1.800104354041860461e-05
3.049999999999999822e+00,-3.447615013154505552e-06,1.391384780125434933e-05
3.050793650793650613e+00,-3.282803354231167816e-06,5.863325594913107161e-06
3.051587301587301404e+00,-2.063798259749995769e-06,-4.704408771414162648e-06
3.052380952380952195e+00,-1.990588987947028380e-07,-1.564829210371682493e-05
3.053174603174602986e+00,1.841096916477597276e-06,-2.450501391268864506e-05
3.053968253968253777e+00,3.596640241985539958e-06,-2.900520227117142169e-05
3.054761904761904567e+00,4.671384951648038661e-06,-2.762349917430967150e-05
3.055555555555555358e+00,4.776661610328931496e-06,-2.002355428307763172e-05
3.056349206349206149e+00,3.777358069669510380e-06,-7.266683064739193584e-06
3.057142857142856940e+00,1.738722124881995473e-06,8.299750463613503543e-06
3.057936507936507731e+00,-1.048823827088705476e-06,2.347949897885853030e-05
3.058730158730158522e+00,-4.099353455341171653e-06,3.490723500427797636e-05
3.059523809523809312e+00,-6.832673422634067023e-06,3.981759562756265441e-05
3.060317460317460103e+00,-8.728195027866181388e-06,3.671688412607110688e-05
3.061111111111110894e+00,-9.478554072147664548e-06,2.578357226321588986e-05
3.061904761904761685e+00,-9.081130397083740443e-06,8.883477414533732578e-06
3.062698412698412920e+00,-7.827732491800296050e-06,-1.081732056066786749e-05
3.063492063492063711e+00,-6.194518632786954996e-06,-2.955057921868365324e-05
3.064285714285714501e+00,-4.675936089825129027e-06,-4.378080462657786770e-05
3.065079365079365292e+00,-3.628500736436917160e-06,-5.097131623763181512e-05
3.065873015873016083e+00,-3.182000970521873208e-06,-5.010060797693192632e-05
3.066666666666666874e+00,-3.242340452236786002e-06,-4.181725646544109091e-05
3.067460317460317665e+00,-3.570110797562900421e-06,-2.821557136395290538e-05
3.068253968253968456e+00,-3.892187967233930864e-06,-1.230892261702930246e-05
3.069047619047619246e+00,-4.000124872303904039e-06,2.653562683099845853e-06
3.069841269841270037e+00,-3.804673458173671227e-06,1.385870150721350613e-05
3.070634920634920828e+00,-3.338079949306174740e-06,1.944694937820463498e-05
3.071428571428571619e+00,-2.714269020564262284e-06,1.879154777802428177e-05
3.072222222222222410e+00,-2.067497430943657277e-06,1.252136460753818115e-05
3.073015873015873201e+00,-1.492756879064991239e-06,2.326196055042072174e-06
3.073809523809523991e+00,-1.007695787315814296e-06,-9.383913648697682843e-06
3.074603174603174782e+00,-5.480099046197385554e-07,-1.989248933725526469e-05
3.075396825396825573e+00,1.908598212934607575e-09,-2.661525537279013631e-05
3.076190476190476364e+00,7.521744418768439617e-07,-2.754074616539683502e-05
3.076984126984127155e+00,1.743429534784747960e-06,-2.164664538286818936e-05
3.077777777777777946e+00,2.900403067649646331e-06,-9.225226027580523205e-06
3.078571428571428736e+00,4.025739871969768607e-06,7.998066604826519616e-06
3.079365079365079527e+00,4.845250594157670250e-06,2.707375819389680900e-05
3.080158730158730318e+00,5.096731068050680828e-06,4.440385272630318529e-05
3.080952380952381109e+00,4.634566922875932580e-06,5.656944441229976641e-05
3.081746031746031900e+00,3.510314486751426127e-06,6.116086011419995987e-05
3.082539682539682691e+00,1.992591346909680711e-06,5.733930007727486495e-05
3.083333333333333481e+00,5.094668190490916709e-07,4.596809498444316000e-05
3.084126984126984272e+00,-4.738438168828208688e-07,2.931762404006056652e-05
3.084920634920635063e+00,-6.033539394668192409e-07,1.047870648806009102e-05
3.085714285714285854e+00,2.384193230289633050e-07,-7.328970474032399738e-06
3.086507936507936645e+00,1.873127114295483213e-06,-2.138482892255555567e-05
3.087301587301587436e+00,3.858545336965132753e-06,-2.991771737514122232e-05
3.088095238095238226e+00,5.612612118314701933e-06,-3.232370053713548455e-05
3.088888888888889017e+00,6.599866464426555219e-06,-2.914428618362279046e-05
3.089682539682539808e+00,6.520224039948710269e-06,-2.183584860415819603e-05
3.090476190476190599e+00,5.425875646827071735e-06,-1.239409466458771780e-05
3.091269841269841390e+00,3.711190962836481640e-06,-2.921208555770969273e-06
3.092063492063492181e+00,1.972193933897364763e-06,4.772630615774238554e-06
3.092857142857142971e+00,7.908895674258944931e-07,9.459746907978598595e-06
3.093650793650793762e+00,5.318788434760502583e-07,1.063637301010248046e-05
3.094444444444444553e+00,1.228515541682103896e-06,8.511389998829114683e-06
3.095238095238095344e+00,2.593528306827660251e-06,3.872617113284118270e-06
3.096031746031746135e+00,4.137591366323785345e-06,-2.119852524573551384e-06
3.096825396825396925e+00,5.339832478191400191e-06,-8.165480375334681844e-06
3.097619047619047716e+00,5.800716316422825826e-06,-1.304778642265259560e-05
3.098412698412698507e+00,5.324783193626130726e-06,-1.583171232614254421e-05
3.099206349206349298e+00,3.919316077695624626e-06,-1.601541651517556525e-05
3.100000000000000089e+00,1.734075079215253270e-06,-1.361397927507324623e-05
3.100793650793650880e+00,-1.013471893875368019e-06,-9.154258961885742630e-06
3.101587301587301670e+00,-4.089436911193022643e-06,-3.573256667889097651e-06
3.102380952380952461e+00,-7.256474817936798452e-06,1.966391620824402366e-06
3.103174603174603252e+00,-1.025901477639353127e-05,6.308748911033050718e-06
3.103968253968254043e+00,-1.280730852603295295e-05,8.536103170494517908e-06
3.104761904761904834e+00,-1.458696216310226940e-05,8.150230317435509702e-06
3.105555555555555625e+00,-1.530562064942650257e-05,5.166408722535369160e-06
3.106349206349206415e+00,-1.476648774733272525e-05,1.052959360842292456e-07
3.107142857142857206e+00,-1.294085149940653387e-05,-6.107283169493016578e-06
3.107936507936507997e+00,-1.000730569353422632e-05,-1.230298544113761131e-05
3.108730158730158788e+00,-6.335709741446719922e-06,-1.725900972105020646e-05
3.109523809523809579e+00,-2.413880822050664406e-06,-1.988173181145242151e-05
3.110317460317460370e+00,1.263812056725179402e-06,-1.937325145695897996e-05
3.111111111111111160e+00,4.310260937706888926e-06,-1.538348241956643045e-05
3.111904761904761951e+00,6.518327255145902482e-06,-8.146407224379591459e-06
3.112698412698412742e+00,7.857580558411872253e-06,1.435379939710517094e-06
3.113492063492063533e+00,8.391893186866367026e-06,1.183599094431350979e-05
3.114285714285714324e+00,8.159269113915255565e-06,2.114976651652571482e-05
3.115079365079365115e+00,7.084302235313565498e-06,2.750976469156778180e-05
3.115873015873015905e+00,4.983400552712595160e-06,2.954834329000158457e-05
3.116666666666666696e+00,1.676295193058189233e-06,2.673631445959835103e-05
3.117460317460317487e+00,-2.838900347665001045e-06,1.950050633332107536e-05
3.118253968253968278e+00,-8.225990337751146794e-06,9.109787187888617827e-06
3.119047619047619069e+00,-1.374635883408763717e-05,-2.618212089298125843e-06
3.119841269841269860e+00,-1.833900204432307985e-05,-1.370711500669224703e-05
3.120634920634920650e+00,-2.084436441522026165e-05,-2.241574081398234401e-05
3.121428571428571441e+00,-2.031972247848516612e-05,-2.755090738971220177e-05
3.122222222222222232e+00,-1.635620297788374875e-05,-2.864005168994927068e-05
3.123015873015873023e+00,-9.296226368889174500e-06,-2.594224446473424958e-05
3.123809523809523814e+00,-2.689293641771829168e-07,-2.031351149170094672e-05
3.124603174603174605e+00,8.995289402473776415e-06,-1.296997168348755492e-05
3.125396825396825395e+00,1.655049436843296267e-05,-5.208066753744773355e-06
3.126190476190476186e+00,2.073564571438952733e-05,1.853512309367053883e-06
3.126984126984126977e+00,2.065056122049526487e-05,7.452306897082067883e-06
3.127777777777777768e+00,1.645181003785122032e-05,1.124558244858180006e-05
3.128571428571428559e+00,9.355706244098417867e-06,1.326000373059138048e-05
3.129365079365079350e+00,1.332256618779692882e-06,1.376706573692037847e-05
3.130158730158730140e+00,-5.416297225620459806e-06,1.314617152829772919e-05
3.130952380952380931e+00,-9.028343660427586473e-06,1.179235499800576700e-05
3.131746031746031722e+00,-8.440014930132373706e-06,1.009697743803474419e-05
3.132539682539682513e+00,-3.613029784981283869e-06,8.490258037749940081e-06
3.133333333333333304e+00,4.501898918214646339e-06,7.497789372145322490e-06
3.134126984126984095e+00,1.422871368555105953e-05,7.742572133479821951e-06
3.134920634920634885e+00,2.357044599447455981e-05,9.833304527451092853e-06
3.135714285714285676e+00,3.064862636400488173e-05,1.412467203775208791e-05
3.136507936507936467e+00,3.407932771627180031e-05,2.040678824138766244e-05
3.137301587301587258e+00,3.321450419959354552e-05,2.765479802180278673e-05
3.138095238095238049e+00,2.821405354646699514e-05,3.400808484022652264e-05
3.138888888888888840e+00,1.995182998067636601e-05,3.710536215532763630e-05
3.139682539682539630e+00,9.791826065783215791e-06,3.475810135171146921e-05
3.140476190476190421e+00,-7.053862857174838793e-07,2.575578883038176229e-05
3.141269841269841212e+00,-1.007617244905773767e-05,1.047967176147481465e-05
3.142063492063492003e+00,-1.718643439805061948e-05,-8.956074002085523254e-06
3.142857142857142794e+00,-2.136828906579249130e-05,-2.913311226238818802e-05
3.143650793650793585e+00,-2.245827637800248885e-05,-4.619775483877810388e-05
3.144444444444444375e+00,-2.075954383149766945e-05,-5.687377505912219071e-05
3.145238095238095166e+00,-1.695847551727229605e-05,-5.928429412916332345e-05
3.146031746031745957e+00,-1.201700763065665746e-05,-5.334374028042202583e-05
3.146825396825396748e+00,-7.044626795271162528e-06,-4.065491813867104883e-05
3.147619047619047539e+00,-3.143068378348476434e-06,-2.401049676445727289e-05
3.148412698412698330e+00,-1.222573746571150721e-06,-6.691164268217079265e-06
3.149206349206349120e+00,-1.810527693614444949e-06,8.235315103249873871e-06
3.149999999999999911e+00,-4.899008735543527539e-06,1.845591922487328763e-05
3.150793650793650702e+00,-9.889706543645731399e-06,2.271187086434661557e-05
3.151587301587301493e+00,-1.567955008163130409e-05,2.085068374502019572e-05
3.152380952380952284e+00,-2.088778995719194702e-05,1.368488308588484830e-05
3.153174603174603075e+00,-2.417152094510134644e-05,2.739234457517208819e-06
3.153968253968253865e+00,-2.453938049938035224e-05,-1.003582338145135476e-05
3.154761904761904656e+00,-2.157412045659322410e-05,-2.253339529318165033e-05
3.155555555555555447e+00,-1.551180151793758307e-05,-3.272494116070841610e-05
3.156349206349206238e+00,-7.173861152000060716e-06,-3.886824872142416784e-05
3.157142857142857029e+00,2.216567054419189203e-06,-3.969933469040183815e-05
3.157936507936507819e+00,1.128666331073453169e-05,-3.460266462853632085e-05
3.158730158730158610e+00,1.878079577420600429e-05,-2.373269415040689934e-05
3.159523809523809401e+00,2.378714686005099711e-05,-8.048730528735526465e-06
3.160317460317460192e+00,2.587693851691341313e-05,1.076770396557326526e-05
3.161111111111110983e+00,2.513218928491394452e-05,3.051704238835999602e-05
3.161904761904761774e+00,2.207033226782531470e-05,4.877331534931550358e-05
3.162698412698412564e+00,1.750062297690053336e-05,6.320685341405953136e-05
3.163492063492063355e+00,1.235567566096393317e-05,7.190104846206469863e-05
3.164285714285714146e+00,7.531361941191130777e-06,7.366094760044783951e-05
3.165079365079364937e+00,3.751097225297864600e-06,6.828927429974079497e-05
3.165873015873015728e+00,1.460254734650116140e-06,5.671926793970007348e-05
3.166666666666666519e+00,7.586929351761655207e-07,4.086213085705321662e-05
3.167460317460317309e+00,1.387422164467780702e-06,2.315166109100029750e-05
3.168253968253968100e+00,2.786376532323089825e-06,5.963936400950451955e-06
3.169047619047618891e+00,4.225951010348759699e-06,-8.835764588370046714e-06
3.169841269841269682e+00,4.989629691099742229e-06,-2.007443980491239636e-05
3.170634920634920473e+00,4.563053966072819919e-06,-2.720874281126566387e-05
3.171428571428571264e+00,2.778929410784394801e-06,-3.015185941058192437e-05
3.172222222222222054e+00,-1.216451039484602505e-07,-2.913238488352956612e-05
3.173015873015872845e+00,-3.530363614840895396e-06,-2.466439745069497484e-05
3.173809523809523636e+00,-6.612198850366610094e-06,-1.761016646377852447e-05
3.174603174603174427e+00,-8.520858571960037922e-06,-9.240724540142676740e-06
3.175396825396825218e+00,-8.644487276843167085e-06,-1.190657243015341143e-06
3.176190476190476009e+00,-6.819484627102373169e-06,4.746589988274094043e-06
3.176984126984126799e+00,-3.444460410800787886e-06,6.970271010112932014e-06
3.177777777777777590e+00,5.580033713167383816e-07,4.499589895234728456e-06
3.178571428571428381e+00,3.945286428742068253e-06,-2.644621687643981420e-06
3.179365079365079172e+00,5.485867027891348225e-06,-1.325577202361691617e-05
3.180158730158729963e+00,4.330980099839993716e-06,-2.508633040577822076e-05
3.180952380952380754e+00,3.136279075800833285e-07,-3.535937735916592649e-05
3.181746031746031544e+00,-5.929082623994415704e-06,-4.153956101689043785e-05
3.182539682539682335e+00,-1.306585172559826766e-05,-4.212269935017767732e-05
3.183333333333333126e+00,-1.939395935279537758e-05,-3.715469743942887896e-05
3.184126984126983917e+00,-2.328200261679159823e-05,-2.826734779691770231e-05
3.184920634920634708e+00,-2.359836763764121951e-05,-1.819161722180430874e-05
3.185714285714285499e+00,-1.999908908441089175e-05,-9.890119040797869468e-06
3.186507936507936289e+00,-1.300022294160144311e-05,-5.567205857885602804e-06
3.187301587301587080e+00,-3.830871612644319297e-06,-5.858411149045559566e-06
3.188095238095238315e+00,5.874494898700905532e-06,-9.478324016391255778e-06
3.188888888888889106e+00,1.444982184070466168e-05,-1.349779288217679947e-05
3.189682539682539897e+00,2.053765667315010499e-05,-1.422652759711541260e-05
3.190476190476190688e+00,2.331764787058484783e-05,-8.455901703348672369e-06
3.191269841269841478e+00,2.258557074536922789e-05,5.341761890169846064e-06
3.192063492063492269e+00,1.869218821590156373e-05,2.628066743597130405e-05
3.192857142857143060e+00,1.238985166858685340e-05,5.106654866903543899e-05
3.193650793650793851e+00,4.651390438245368812e-06,7.474054688047851707e-05
3.194444444444444642e+00,-3.484291323037800336e-06,9.191181888673331953e-05
3.195238095238095433e+00,-1.101546420052039118e-05,9.810806616175023534e-05
3.196031746031746223e+00,-1.703929439186579488e-05,9.089238343761711668e-05
3.196825396825397014e+00,-2.080306649664343115e-05,7.049076526045997871e-05
3.197619047619047805e+00,-2.177523977165632673e-05,3.979515048503898174e-05
3.198412698412698596e+00,-1.974509291157639689e-05,3.741978345323738566e-06
3.199206349206349387e+00,-1.492716913644888834e-05,-3.178636034766142910e-05
3.200000000000000178e+00,-8.019428318086650046e-06,-6.125996094490007270e-05
3.200793650793650968e+00,-1.603644949599313064e-07,-8.065975858037337709e-05
3.201587301587301759e+00,7.240729599742857518e-06,-8.819806515256387058e-05
3.202380952380952550e+00,1.277669320110902691e-05,-8.445138480733510708e-05
3.203174603174603341e+00,1.535169445135116991e-05,-7.195551498818824091e-05
3.203968253968254132e+00,1.444320986367242551e-05,-5.446978957922170349e-05
3.204761904761904923e+00,1.024540847391812264e-05,-3.615630243891568529e-05
3.205555555555555713e+00,3.653089589222169167e-06,-2.084914904657815613e-05
3.206349206349206504e+00,-3.916605774887328733e-06,-1.148621421330701643e-05
3.207142857142857295e+00,-1.082914343490332084e-05,-9.713920780766208921e-06
3.207936507936508086e+00,-1.559568912347738360e-05,-1.566724896653197530e-05
3.208730158730158877e+00,-1.720567539709060275e-05,-2.794171459338099496e-05
3.209523809523809668e+00,-1.534220652557691001e-05,-4.377768849118793460e-05
3.210317460317460458e+00,-1.042326833286559791e-05,-5.945843797855571134e-05
3.211111111111111249e+00,-3.462554292371457720e-06,-7.088399885107263254e-05
3.211904761904762040e+00,4.202248565802016602e-06,-7.423342642073611601e-05
3.212698412698412831e+00,1.122969722101876878e-05,-6.659272870511044259e-05
3.213492063492063622e+00,1.655431738898272849e-05,-4.643864488169543948e-05
3.214285714285714413e+00,1.956180544701445506e-05,-1.393605610860082153e-05
3.215079365079365203e+00,2.013670001879737533e-05,2.892181042014258435e-05
3.215873015873015994e+00,1.859843196728204684e-05,7.830303510128105223e-05
3.216666666666666785e+00,1.556568349187730362e-05,1.287188750440586391e-04
3.217460317460317576e+00,1.179417286271483197e-05,1.735419141821138635e-04
3.218253968253968367e+00,8.023515338457323120e-06,2.059527151782744538e-04
3.219047619047619158e+00,4.854217709057818271e-06,2.202104128985301256e-04
3.219841269841269948e+00,2.665363951095431944e-06,2.129294959713549083e-04
3.220634920634920739e+00,1.579351959599587707e-06,1.839582595905550145e-04
3.221428571428571530e+00,1.476481297811375391e-06,1.365471242345807313e-04
3.222222222222222321e+00,2.053495562824916182e-06,7.673343659759465109e-05
3.223015873015873112e+00,2.908459222404976056e-06,1.215047576666945115e-05
3.223809523809523903e+00,3.627823172255421099e-06,-4.935595762434730318e-05
3.224603174603174693e+00,3.855587438064732317e-06,-1.009395762568462133e-04
3.225396825396825484e+00,3.336657552122892551e-06,-1.375916673225097012e-04
3.226190476190476275e+00,1.939234117210871380e-06,-1.565759802421504414e-04
3.226984126984127066e+00,-3.331805033606566709e-07,-1.575342700211731725e-04
3.227777777777777857e+00,-3.333881921464374722e-06,-1.423566280680262205e-04
3.228571428571428648e+00,-6.773166662774662653e-06,-1.148668101055750913e-04
3.229365079365079438e+00,-1.023813730069928548e-05,-8.030442887399668228e-05
3.230158730158730229e+00,-1.324178484069768840e-05,-4.455666764289406610e-05
3.230952380952381020e+00,-1.530024053052331381e-05,-1.315776819495524148e-05
3.231746031746031811e+00,-1.602375585404778701e-05,9.773041253458158322e-06
3.232539682539682602e+00,-1.519883735645367386e-05,2.234690771038496090e-05
3.233333333333333393e+00,-1.284014459822228039e-05,2.517616301099936325e-05
3.234126984126984183e+00,-9.200043344754949991e-06,2.098891527030859235e-05
3.234920634920634974e+00,-4.736638098506422812e-06,1.371278100682942329e-05
