Timestamp,Flexor carpi radialis,Extensor digitorum
2.000000000000000000e+00,2.502849099694123668e-05,2.010953970624753792e-05
2.000793650793650791e+00,4.410044729411067362e-05,2.602157569682300427e-05
2.001587301587301582e+00,5.748291866731538582e-05,2.427295356423816793e-05
2.002380952380952372e+00,6.314067055757923916e-05,1.481462251595856690e-05
2.003174603174603163e+00,6.063180571032104161e-05,-1.555532953097538357e-07
2.003968253968253954e+00,5.099140736100523226e-05,-1.660226813868376363e-05
2.004761904761904745e+00,3.626481833244312662e-05,-2.958468425592143463e-05
2.005555555555555536e+00,1.888154677078969011e-05,-3.450184076933346812e-05
2.006349206349206327e+00,1.091336559478736658e-06,-2.835845196391993195e-05
2.007142857142857117e+00,-1.536543912717160934e-05,-1.074148248279269935e-05
2.007936507936507908e+00,-2.929222595385311137e-05,1.575576267720071887e-05
2.008730158730158699e+00,-3.985126989589893288e-05,4.582591686658844593e-05
2.009523809523809490e+00,-4.633760433122454222e-05,7.247534076913875038e-05
2.010317460317460281e+00,-4.809772309058975515e-05,8.862661150594626372e-05
2.011111111111111072e+00,-4.467443052213938853e-05,8.894689628583316151e-05
2.011904761904761862e+00,-3.610311900763538059e-05,7.141427711615271534e-05
2.012698412698412653e+00,-2.317582985174762269e-05,3.812131967729460113e-05
2.013492063492063444e+00,-7.492762348994575785e-06,-5.015560657597126677e-06
2.014285714285714235e+00,8.775537252636560627e-06,-4.964027718417488347e-05
2.015079365079365026e+00,2.335405395455322791e-05,-8.705326936621945576e-05
2.015873015873015817e+00,3.439293422860043698e-05,-1.103755897994745179e-04
2.016666666666666607e+00,4.087003595164605881e-05,-1.161199311597552224e-04
2.017460317460317398e+00,4.273144122768627906e-05,-1.047423359248038778e-04
2.018253968253968189e+00,4.074582745664679783e-05,-8.011706100158855171e-05
2.019047619047618980e+00,3.616400879883756189e-05,-4.821849192022667149e-05
2.019841269841269771e+00,3.034128412983041825e-05,-1.548904959870658809e-05
2.020634920634920562e+00,2.446584028336318500e-05,1.261873870477403034e-05
2.021428571428571352e+00,1.945153901710950484e-05,3.258225705619944049e-05
2.022222222222222143e+00,1.594921473273669101e-05,4.310981349564392513e-05
2.023015873015872934e+00,1.437184823125868505e-05,4.489336993499720501e-05
2.023809523809523725e+00,1.485208705997141405e-05,4.003001502137668125e-05
2.024603174603174516e+00,1.713607634481253148e-05,3.134134817048277080e-05
2.025396825396825307e+00,2.050172931445488293e-05,2.175048542816034549e-05
2.026190476190476097e+00,2.381060276084957171e-05,1.378967220471611453e-05
2.026984126984126888e+00,2.574393919591699544e-05,9.252871479668117085e-06
2.027777777777777679e+00,2.517072629668680897e-05,8.985138555960851253e-06
2.028571428571428470e+00,2.150819684323938575e-05,1.280335254364905298e-05
2.029365079365079261e+00,1.491180186226041041e-05,1.955807636753956880e-05
2.030158730158730052e+00,6.190371120636305030e-06,2.735801760243644702e-05
2.030952380952380842e+00,-3.537162925238385425e-06,3.396768691029444835e-05
2.031746031746031633e+00,-1.329874095933293759e-05,3.734396764306340536e-05
2.032539682539682424e+00,-2.262480288710127442e-05,3.620696253217425668e-05
2.033333333333333215e+00,-3.161946906153475449e-05,3.047605737177238981e-05
2.034126984126984006e+00,-4.069656815096579967e-05,2.138612445491024625e-05
2.034920634920634797e+00,-5.010507278713047821e-05,1.116241884540110538e-05
2.035714285714285587e+00,-5.949070250058420843e-05,2.276050804091130959e-06
2.036507936507936378e+00,-6.773116441120812382e-05,-3.514274676544798043e-06
2.037301587301587169e+00,-7.314193972182296338e-05,-5.978568384255840697e-06
2.038095238095237960e+00,-7.396484729951048652e-05,-6.706779813981637742e-06
2.038888888888888751e+00,-6.893490659085009498e-05,-8.644371061835648545e-06
2.039682539682539542e+00,-5.772317876846508116e-05,-1.494557855511574697e-05
2.040476190476190332e+00,-4.113499898505815818e-05,-2.754429866845585503e-05
2.041269841269841123e+00,-2.103246683232505628e-05,-4.602404301249058782e-05
2.042063492063491914e+00,-1.294902375825246910e-08,-6.729691574631018977e-05
2.042857142857142705e+00,1.908116814226846561e-05,-8.629439650577946041e-05
2.043650793650793496e+00,3.371288094950851009e-05,-9.746557046835209795e-05
2.044444444444444287e+00,4.213615513916193139e-05,-9.655598408490297568e-05
2.045238095238095077e+00,4.370448462136076209e-05,-8.204138409009978210e-05
2.046031746031745868e+00,3.893628443976368851e-05,-5.573946825118817922e-05
2.046825396825396659e+00,2.934003124870603261e-05,-2.242911366987934772e-05
2.047619047619047450e+00,1.706925763648657919e-05,1.136799549149663246e-05
2.048412698412698241e+00,4.514279559191324615e-06,3.905374142651242303e-05
2.049206349206349032e+00,-6.070730635257014803e-06,5.558504641648102110e-05
2.049999999999999822e+00,-1.285028231716204136e-05,5.863770895246734412e-05
2.050793650793650613e+00,-1.459671216845934219e-05,4.903340317672036527e-05
2.051587301587301404e+00,-1.081785372630244441e-05,3.038420784678539887e-05
2.052380952380952195e+00,-1.860286737302163188e-06,8.122928470847212432e-06
2.053174603174602986e+00,1.099962687702832529e-05,-1.178000927983186615e-05
2.053968253968253777e+00,2.550946250650543772e-05,-2.410136281191379445e-05
2.054761904761904567e+00,3.851590890212624378e-05,-2.542348671305402901e-05
2.055555555555555358e+00,4.625599358997221694e-05,-1.483428206039606005e-05
2.056349206349206149e+00,4.493074559485142817e-05,5.820472712212646474e-06
2.057142857142856940e+00,3.154790762340957026e-05,3.221539757983418316e-05
2.057936507936507731e+00,4.902006906382930988e-06,5.839182679387252590e-05
2.058730158730158522e+00,-3.356141742601792462e-05,7.808015039723089474e-05
2.059523809523809312e+00,-7.931904768127900028e-05,8.623422495246285441e-05
2.060317460317460103e+00,-1.250598622235519521e-04,8.038964284825582071e-05
2.061111111111110894e+00,-1.617987251816930682e-04,6.145154658012002310e-05
2.061904761904761685e+00,-1.806636409832318934e-04,3.364643483523178263e-05
2.062698412698412920e+00,-1.749627205478349631e-04,3.597111438201598953e-06
2.063492063492063711e+00,-1.419974157673581936e-04,-2.127647175356336907e-05
2.064285714285714501e+00,-8.410152993674318287e-05,-3.464182129470099901e-05
2.065079365079365292e+00,-8.553331068936250462e-06,-3.294990999752011294e-05
2.065873015873016083e+00,7.370130178154398642e-05,-1.649473436473007586e-05
2.066666666666666874e+00,1.502359004838786530e-04,1.047573979181728044e-05
2.067460317460317665e+00,2.096853704483407404e-04,4.067978720033560533e-05
2.068253968253968456e+00,2.439892208845750464e-04,6.555728666497319499e-05
2.069047619047619246e+00,2.498005078184829027e-04,7.741248923175056689e-05
2.069841269841270037e+00,2.287944552996159803e-04,7.135569824341885089e-05
2.070634920634920828e+00,1.869153900081987863e-04,4.649130871070356540e-05
2.071428571428571619e+00,1.328455126790777454e-04,6.029366861635637445e-06
2.072222222222222410e+00,7.611427776090070230e-05,-4.364862874990729509e-05
2.073015873015873201e+00,2.527850614966815193e-05,-9.461362805338010596e-05
2.073809523809523991e+00,-1.348978582584055202e-05,-1.391898049553775662e-04
2.074603174603174782e+00,-3.721921059653150309e-05,-1.714579875485553232e-04
2.075396825396825573e+00,-4.631787878688588880e-05,-1.881433316832411390e-04
2.076190476190476364e+00,-4.418500566483483043e-05,-1.887564618380723901e-04
2.076984126984127155e+00,-3.638499294102608215e-05,-1.750458708409704904e-04
2.077777777777777946e+00,-2.953217383952725725e-05,-1.499990006813337311e-04
2.078571428571428736e+00,-3.003275476041312767e-05,-1.167553099253475143e-04
2.079365079365079527e+00,-4.282908490648138801e-05,-7.780299421317094942e-05
2.080158730158730318e+00,-7.029845541790524777e-05,-3.470564701469706226e-05
2.080952380952381109e+00,-1.114696896232569097e-04,1.160027280246435357e-05
2.081746031746031900e+00,-1.617235412349806172e-04,6.010134082828616617e-05
2.082539682539682691e+00,-2.131215971637371958e-04,1.089059732481338329e-04
2.083333333333333481e+00,-2.554466514135594803e-04,1.547100226149393954e-04
2.084126984126984272e+00,-2.779221516678289034e-04,1.928335430129119539e-04
2.084920634920635063e+00,-2.714094820178300179e-04,2.179499149455573024e-04
2.085714285714285854e+00,-2.306894376148877542e-04,2.253644432962946433e-04
2.086507936507936645e+00,-1.562846807572939841e-04,2.124599654086173535e-04
2.087301587301587436e+00,-5.525810589503162679e-05,1.798192198606168076e-04
2.088095238095238226e+00,5.941009128256222670e-05,1.315999791444732764e-04
2.088888888888889017e+00,1.709139880060445670e-04,7.495184019194688053e-05
2.089682539682539808e+00,2.617966283553176598e-04,1.855820944447935584e-05
2.090476190476190599e+00,3.174651424253469175e-04,-2.932103297343406479e-05
2.091269841269841390e+00,3.291668473242190208e-04,-6.273768913536627734e-05
2.092063492063492181e+00,2.956916838128681988e-04,-7.929400412791590808e-05
2.092857142857142971e+00,2.234417698275230487e-04,-8.034859429444100767e-05
2.093650793650793762e+00,1.249729015335561638e-04,-7.015618530738008767e-05
2.094444444444444553e+00,1.649352332932883255e-05,-5.428317572494236419e-05
2.095238095238095344e+00,-8.502045662999168111e-05,-3.788721343810347292e-05
2.096031746031746135e+00,-1.644913048880333934e-04,-2.445509722010212882e-05
2.096825396825396925e+00,-2.107805204818613163e-04,-1.535737147950427779e-05
2.097619047619047716e+00,-2.179271655552672516e-04,-1.021736034581363723e-05
2.098412698412698507e+00,-1.855911572040389089e-04,-7.777157231815233021e-06
2.099206349206349298e+00,-1.188322163378902866e-04,-6.803585958811751967e-06
2.100000000000000089e+00,-2.739115766479401732e-05,-6.652299611373490069e-06
2.100793650793650880e+00,7.542771417877991143e-05,-7.338335376069761746e-06
2.101587301587301670e+00,1.742901513713769265e-04,-9.215367347389214316e-06
2.102380952380952461e+00,2.538361153585329071e-04,-1.251756019674202738e-05
2.103174603174603252e+00,3.010763477728640026e-04,-1.702848910490245682e-05
2.103968253968254043e+00,3.078364738089341157e-04,-2.205182009797403017e-05
2.104761904761904834e+00,2.726613429943550290e-04,-2.671188408382231988e-05
2.105555555555555625e+00,2.015521978254721197e-04,-3.043583275652637747e-05
2.106349206349206415e+00,1.071464975275773985e-04,-3.332845716382638402e-05
2.107142857142857206e+00,6.383482067956089515e-06,-3.615446858056420862e-05
2.107936507936507997e+00,-8.285283385489578900e-05,-3.984065092462628414e-05
2.108730158730158788e+00,-1.453268163008854317e-04,-4.470505009052738130e-05
2.109523809523809579e+00,-1.714378962116679258e-04,-4.982158899289787344e-05
2.110317460317460370e+00,-1.589345263370943852e-04,-5.290118514942262915e-05
2.111111111111111160e+00,-1.130292926535233139e-04,-5.083105072764371955e-05
2.111904761904761951e+00,-4.498969359672515825e-05,-4.070134483557217453e-05
2.112698412698412742e+00,3.037083452293326292e-05,-2.093041705597171206e-05
2.113492063492063533e+00,9.766467982546799269e-05,7.919750502645158085e-06
2.114285714285714324e+00,1.436941265777033259e-04,4.289184686844890211e-05
2.115079365079365115e+00,1.594785350714812971e-04,7.899905521224358414e-05
2.115873015873015905e+00,1.412829877644023423e-04,1.101231072189776361e-04
2.116666666666666696e+00,9.068126371536700252e-05,1.302773317198509554e-04
2.117460317460317487e+00,1.388827206895932789e-05,1.349874889522371382e-04
2.118253968253968278e+00,-7.935623843411770918e-05,1.224634767863142426e-04
2.119047619047619069e+00,-1.771452202518203345e-04,9.421299415587715341e-05
2.119841269841269860e+00,-2.668979061491137954e-04,5.483946349923735780e-05
2.120634920634920650e+00,-3.369314872407469389e-04,1.098393975656762112e-05
2.121428571428571441e+00,-3.780125937138871886e-04,-3.033632560976521001e-05
2.122222222222222232e+00,-3.846907895501869268e-04,-6.348815756922788773e-05
2.123015873015873023e+00,-3.561359755266568414e-04,-8.549626540636190929e-05
2.123809523809523814e+00,-2.962250585781199519e-04,-9.639798784862583549e-05
2.124603174603174605e+00,-2.127809984210778614e-04,-9.858688388228712578e-05
2.125396825396825395e+00,-1.161074025518079596e-04,-9.544343652143283873e-05
2.126190476190476186e+00,-1.717867568874076870e-05,-8.981787413029604416e-05
2.126984126984126977e+00,7.406260969886081238e-05,-8.295160485531404080e-05
2.127777777777777768e+00,1.499303409267783950e-04,-7.420677071100422676e-05
2.128571428571428559e+00,2.055829238800598014e-04,-6.164542792497137427e-05
2.129365079365079350e+00,2.390426413303820496e-04,-4.320581868256855940e-05
2.130158730158730140e+00,2.508426169436335854e-04,-1.803570815623080156e-05
2.130952380952380931e+00,2.435009141530271575e-04,1.251667178271784631e-05
2.131746031746031722e+00,2.209498137032746160e-04,4.465797291311258456e-05
2.132539682539682513e+00,1.879644656135233958e-04,7.280431226158562386e-05
2.133333333333333304e+00,1.495784928423289151e-04,9.096933699406374693e-05
2.134126984126984095e+00,1.104710509549033080e-04,9.446770982888966564e-05
2.134920634920634885e+00,7.437023490404026486e-05,8.140943918439758206e-05
2.135714285714285676e+00,4.360611971724612175e-05,5.350576558136364120e-05
2.136507936507936467e+00,1.898423485731109910e-05,1.589295515080268512e-05
2.137301587301587258e+00,7.467192068915698707e-08,-2.401592271120260331e-05
2.138095238095238049e+00,-1.416117026146593043e-05,-5.830743936222065334e-05
2.138888888888888840e+00,-2.466308886605359546e-05,-8.041602850976763681e-05
2.139682539682539630e+00,-3.181534720412326685e-05,-8.650388519492008504e-05
2.140476190476190421e+00,-3.548125301794419651e-05,-7.605080925336790872e-05
2.141269841269841212e+00,-3.553798478650172361e-05,-5.162543844850778029e-05
2.142063492063492003e+00,-3.265383430063421437e-05,-1.805352639724431730e-05
2.142857142857142794e+00,-2.888393230914255047e-05,1.867673509254217062e-05
2.143650793650793585e+00,-2.768821053689306789e-05,5.245379688506622231e-05
2.144444444444444375e+00,-3.319428393291580834e-05,7.785301429422623171e-05
2.145238095238095166e+00,-4.884297568286133113e-05,9.073102652241450943e-05
2.146031746031745957e+00,-7.583353770319740104e-05,8.872385296239919525e-05
2.146825396825396748e+00,-1.119264831141816066e-04,7.171470477683388280e-05
2.147619047619047539e+00,-1.511202480098371170e-04,4.216266901498125208e-05
2.148412698412698330e+00,-1.844977809918568713e-04,5.035229444429926143e-06
2.149206349206349120e+00,-2.021820812717356486e-04,-3.289321359481431247e-05
2.149999999999999911e+00,-1.959388293970452315e-04,-6.439826544143891895e-05
2.150793650793650702e+00,-1.616677959018925916e-04,-8.351919298345844849e-05
2.151587301587301493e+00,-1.009781749709666649e-04,-8.707906526122708400e-05
2.152380952380952284e+00,-2.129564591311989061e-05,-7.544635490499438594e-05
2.153174603174603075e+00,6.559262207605840833e-05,-5.224224692506977268e-05
2.153968253968253865e+00,1.461732475076986469e-04,-2.312182005723869947e-05
2.154761904761904656e+00,2.083165208122058102e-04,5.888000619909976831e-06
2.155555555555555447e+00,2.440416915874130870e-04,2.989620054389324549e-05
2.156349206349206238e+00,2.511919824072238227e-04,4.605775704586754604e-05
2.157142857142857029e+00,2.335282849198152438e-04,5.375529564779666595e-05
2.157936507936507819e+00,1.991977990573400134e-04,5.421231516006463295e-05
2.158730158730158610e+00,1.580801651359621193e-04,4.982377389502730625e-05
2.159523809523809401e+00,1.189190074384268727e-04,4.343661681685450564e-05
2.160317460317460192e+00,8.718361022127788147e-05,3.768818237659438575e-05
2.161111111111110983e+00,6.425122004293899400e-05,3.443542969979959158e-05
2.161904761904761774e+00,4.795541033565480887e-05,3.432102878750906431e-05
2.162698412698412564e+00,3.408029990339747764e-05,3.657718554018852484e-05
2.163492063492063355e+00,1.816883974802686893e-05,3.918665526261908802e-05
2.164285714285714146e+00,-2.930587358467745183e-06,3.944611869714369527e-05
2.165079365079364937e+00,-3.013787359454175087e-05,3.482045476877973110e-05
2.165873015873015728e+00,-6.194696534905779091e-05,2.382505086146909226e-05
2.166666666666666519e+00,-9.487794864738184673e-05,6.629204923731821385e-06
2.167460317460317309e+00,-1.243615843149197160e-04,-1.483011782406370108e-05
2.168253968253968100e+00,-1.457872934427045753e-04,-3.725167955711685639e-05
2.169047619047618891e+00,-1.554683657591389824e-04,-5.673914235141776284e-05
2.169841269841269682e+00,-1.513617951408124354e-04,-6.968524600549487285e-05
2.170634920634920473e+00,-1.334763710946394678e-04,-7.352694650077352359e-05
2.171428571428571264e+00,-1.039642771185369624e-04,-6.721334757658030531e-05
2.172222222222222054e+00,-6.690687074868033931e-05,-5.133871039120861527e-05
2.173015873015872845e+00,-2.779978658529397225e-05,-2.798184023374326808e-05
2.173809523809523636e+00,7.246631281351626744e-06,-3.387184264532629600e-07
2.174603174603174427e+00,3.252763592911596163e-05,2.776219229913111651e-05
2.175396825396825218e+00,4.384762041272060993e-05,5.239372367133457919e-05
2.176190476190476009e+00,3.950371122937778521e-05,7.006425045978051814e-05
2.176984126984126799e+00,2.091837179648893292e-05,7.820864256284484537e-05
2.177777777777777590e+00,-7.287917615065772299e-06,7.558346617481696763e-05
2.178571428571428381e+00,-3.791920830559821469e-05,6.250062513041793153e-05
2.179365079365079172e+00,-6.252897750055937272e-05,4.083210904363617915e-05
2.180158730158729963e+00,-7.327149189282579822e-05,1.374850475789409490e-05
2.180952380952380754e+00,-6.489421518487487528e-05,-1.478081232448314699e-05
2.181746031746031544e+00,-3.632834541335620387e-05,-4.062583321325727184e-05
2.182539682539682335e+00,8.664363373121035519e-06,-6.014192828606321027e-05
2.183333333333333126e+00,6.210740190040662482e-05,-7.072502878530882416e-05
2.184126984126983917e+00,1.136083633217489075e-04,-7.122828242205526841e-05
2.184920634920634708e+00,1.528448419749392484e-04,-6.219747695972089230e-05
2.185714285714285499e+00,1.720002865876717321e-04,-4.584455524645031604e-05
2.186507936507936289e+00,1.674611177216196040e-04,-2.568041317209797010e-05
2.187301587301587080e+00,1.403806663650017058e-04,-5.825801930892134270e-06
2.188095238095238315e+00,9.609115066927478475e-05,9.844278429132474599e-06
2.188888888888889106e+00,4.264526071028330010e-05,1.850085932247129316e-05
2.189682539682539897e+00,-1.106834861950255889e-05,1.892446123094064788e-05
2.190476190476190688e+00,-5.715749412428738029e-05,1.173718132840201377e-05
2.191269841269841478e+00,-9.010084933640278443e-05,-7.302955533719895371e-07
2.192063492063492269e+00,-1.074132434427446919e-04,-1.494431117283001572e-05
2.192857142857143060e+00,-1.095522426995654253e-04,-2.700688161471598270e-05
2.193650793650793851e+00,-9.921384371028626060e-05,-3.367038315485663242e-05
2.194444444444444642e+00,-8.030480825973986740e-05,-3.322756591683057400e-05
2.195238095238095433e+00,-5.691953268989320106e-05,-2.593851339426013993e-05
2.196031746031746223e+00,-3.258213219119847223e-05,-1.381075359166324700e-05
2.196825396825397014e+00,-9.875957811284469590e-06,1.752343046382470387e-07
2.197619047619047805e+00,9.564017886255612641e-06,1.307201796944890948e-05
2.198412698412698596e+00,2.482232957000503882e-05,2.281285101282803856e-05
2.199206349206349387e+00,3.540049618448888185e-05,2.861889738219450306e-05
2.200000000000000178e+00,4.098362412152833407e-05,3.089630443571842562e-05
2.200793650793650968e+00,4.136276218883965216e-05,3.076388716377593770e-05
2.201587301587301759e+00,3.652645302010245823e-05,2.946497810932479400e-05
2.202380952380952550e+00,2.686189014419553849e-05,2.789773324530954983e-05
2.203174603174603341e+00,1.335343264424659433e-05,2.639091087080130743e-05
2.203968253968254132e+00,-2.344488924614218967e-06,2.473544906564282850e-05
2.204761904761904923e+00,-1.804099659205864693e-05,2.240656873452231883e-05
2.205555555555555713e+00,-3.134782472261509378e-05,1.887890896109819695e-05
2.206349206349206504e+00,-4.013686656867900031e-05,1.392911323058336863e-05
2.207142857142857295e+00,-4.298034367943597602e-05,7.826932278943237215e-06
2.207936507936508086e+00,-3.944573183862169215e-05,1.342923130236904881e-06
2.208730158730158877e+00,-3.017052168650227647e-05,-4.446778132782535847e-06
2.209523809523809668e+00,-1.670889389720979609e-05,-8.509316304534472554e-06
2.210317460317460458e+00,-1.198137905613818285e-06,-1.024563413839912082e-05
2.211111111111111249e+00,1.407010159491185790e-05,-9.780162347562562728e-06
2.211904761904762040e+00,2.706885216174951292e-05,-8.025613522963876486e-06
2.212698412698412831e+00,3.634418715680688071e-05,-6.465466972220709065e-06
2.213492063492063622e+00,4.114986757507176941e-05,-6.694159011367404639e-06
2.214285714285714413e+00,4.140940732072257731e-05,-9.853127541447391375e-06
2.215079365079365203e+00,3.756508638608147872e-05,-1.616123972979032999e-05
2.215873015873015994e+00,3.039331981114742862e-05,-2.472602179611660506e-05
2.216666666666666785e+00,2.084411273402424957e-05,-3.372852871588961834e-05
2.217460317460317576e+00,9.925779190791264310e-06,-4.093105383602417178e-05
2.218253968253968367e+00,-1.367533904863755910e-06,-4.432570071315535958e-05
2.219047619047619158e+00,-1.209433269480183589e-05,-4.268708038258060312e-05
2.219841269841269948e+00,-2.138245709021825480e-05,-3.584425708134899755e-05
2.220634920634920739e+00,-2.844525113018703564e-05,-2.461961087532666111e-05
2.221428571428571530e+00,-3.262398657189229182e-05,-1.052390249539127458e-05
2.222222222222222321e+00,-3.347119747158704768e-05,4.626824985192754847e-06
2.223015873015873112e+00,-3.086137486753179294e-05,1.902702626063400339e-05
2.223809523809523903e+00,-2.508775175969908994e-05,3.107199260826436942e-05
2.224603174603174693e+00,-1.689252574100350728e-05,3.945316389635763658e-05
2.225396825396825484e+00,-7.390201559662565508e-06,4.322679129376147470e-05
2.226190476190476275e+00,2.120209395737604265e-06,4.190747970720180138e-05
2.226984126984127066e+00,1.040967199452027082e-05,3.559382561285553693e-05
2.227777777777777857e+00,1.655846987516640728e-05,2.508569559420788234e-05
2.228571428571428648e+00,2.009739871038999836e-05,1.191599480976911274e-05
2.229365079365079438e+00,2.100948841155286494e-05,-1.786327787745049811e-06
2.230158730158730229e+00,1.961519524712760303e-05,-1.363952639371961288e-05
2.230952380952381020e+00,1.641430515123449034e-05,-2.150485204057431144e-05
2.231746031746031811e+00,1.196617837088352734e-05,-2.399336673916305411e-05
2.232539682539682602e+00,6.854370643359553088e-06,-2.081582611806743051e-05
2.233333333333333393e+00,1.721935625722616868e-06,-1.285889242402023083e-05
2.234126984126984183e+00,-2.690851032778844859e-06,-1.965180115694873450e-06
2.234920634920634974e+00,-5.593114213725891635e-06,9.515926957703757408e-06
2.235714285714285765e+00,-6.322883374392944613e-06,1.928224238899479005e-05
2.236507936507936556e+00,-4.622298138263230318e-06,2.559288998370604006e-05
2.237301587301587347e+00,-8.842794692562992598e-07,2.761301176252235065e-05
2.238095238095238138e+00,3.782926122977225638e-06,2.550650954305623289e-05
2.238888888888888928e+00,7.768478685097688209e-06,2.026381799606678550e-05
2.239682539682539719e+00,9.422379983330639002e-06,1.332524418912396583e-05
2.240476190476190510e+00,7.622669696957146449e-06,6.116621765153287643e-06
2.241269841269841301e+00,2.241186871312702275e-06,-3.613454898217415338e-07
2.242063492063492092e+00,-5.671515373985210706e-06,-5.762040338473186122e-06
2.242857142857142883e+00,-1.406990798505525812e-05,-1.036629027792836627e-05
2.243650793650793673e+00,-2.043431128085931197e-05,-1.481438968208970295e-05
2.244444444444444464e+00,-2.248911613827211638e-05,-1.970449722276466012e-05
2.245238095238095255e+00,-1.891228710358957779e-05,-2.521837146674751025e-05
2.246031746031746046e+00,-9.824012203515995311e-06,-3.091832918215038081e-05
2.246825396825396837e+00,3.099267049527722623e-06,-3.578440811696048895e-05
2.247619047619047628e+00,1.693263104738745739e-05,-3.847091116186103157e-05
2.248412698412698418e+00,2.815992692184245906e-05,-3.769408031957222321e-05
2.249206349206349209e+00,3.351416988395852895e-05,-3.263246553632719531e-05
2.250000000000000000e+00,3.078949431606153257e-05,-2.322784316650853303e-05
2.250793650793650791e+00,1.942088254680735015e-05,-1.030742475640688096e-05
2.251587301587301582e+00,6.837824273234110645e-07,4.506520681002463091e-06
2.252380952380952372e+00,-2.253974648883230519e-05,1.908560423148557313e-05
2.253174603174603163e+00,-4.636738145082880771e-05,3.122337730756016394e-05
2.253968253968253954e+00,-6.673321553556781376e-05,3.910691644924453733e-05
2.254761904761904745e+00,-8.020135091188441631e-05,4.171849349254513022e-05
2.255555555555555536e+00,-8.458070829232470058e-05,3.906153548491993947e-05
2.256349206349206327e+00,-7.922178131394945748e-05,3.214272304780982874e-05
2.257142857142857117e+00,-6.497809468416580866e-05,2.270763044569001197e-05
2.257936507936507908e+00,-4.390194235053622549e-05,1.280263799456619791e-05
2.258730158730158699e+00,-1.878678972879761479e-05,4.289949915380358569e-06
2.259523809523809490e+00,7.333149252640695380e-06,-1.547931120396905509e-06
2.260317460317460281e+00,3.163992769681341820e-05,-4.214500265243245477e-06
2.261111111111111072e+00,5.188438457597386981e-05,-3.982718324095484310e-06
2.261904761904761862e+00,6.659504622596337342e-05,-1.692561076116255215e-06
2.262698412698412653e+00,7.513077198968193162e-05,1.551272118193308960e-06
2.263492063492063444e+00,7.759669404524345733e-05,4.683418710471967841e-06
2.264285714285714235e+00,7.466902189711491233e-05,6.909244677039874949e-06
2.265079365079365026e+00,6.738293647834720673e-05,7.830989256362344661e-06
2.265873015873015817e+00,5.693118020600904469e-05,7.472684261737310861e-06
2.266666666666666607e+00,4.450715698711358166e-05,6.223483127274844504e-06
2.267460317460317398e+00,3.120767628665195868e-05,4.715954860355755936e-06
2.268253968253968189e+00,1.798797798241455015e-05,3.651205172682874149e-06
2.269047619047618980e+00,5.645199763367846775e-06,3.591929289859702567e-06
2.269841269841269771e+00,-5.191864331326007416e-06,4.766614342941998005e-06
2.270634920634920562e+00,-1.407113685087402820e-05,6.945192387146834463e-06
2.271428571428571352e+00,-2.071286378373585050e-05,9.439079967383201769e-06
2.272222222222222143e+00,-2.498559238059116971e-05,1.124342113053364938e-05
2.273015873015872934e+00,-2.687610710453004992e-05,1.129186294503160363e-05
2.273809523809523725e+00,-2.648106988716175805e-05,8.754807440261510736e-06
2.274603174603174516e+00,-2.403442900292606936e-05,3.294378481200869137e-06
2.275396825396825307e+00,-1.994820964872334509e-05,-4.800918512594653850e-06
2.276190476190476097e+00,-1.481866851054217013e-05,-1.464278080112057846e-05
2.276984126984126888e+00,-9.364529019968934753e-06,-2.491964842031974998e-05
2.277777777777777679e+00,-4.309612047156734523e-06,-3.416256500933656780e-05
2.278571428571428470e+00,-2.564149877381551628e-07,-4.101533078366639438e-05
2.279365079365079261e+00,2.409990549776947882e-06,-4.443768215483046756e-05
2.280158730158730052e+00,3.582439095855144812e-06,-4.381284326695279355e-05
2.280952380952380842e+00,3.471454289352753032e-06,-3.897355726054178284e-05
2.281746031746031633e+00,2.625473820117340325e-06,-3.018059906234046714e-05
2.282539682539682424e+00,1.903859233208468070e-06,-1.808470895342422080e-05
2.283333333333333215e+00,2.363021723789131677e-06,-3.689049401192069922e-06
2.284126984126984006e+00,5.033975432243560329e-06,1.168753177369460118e-05
2.284920634920634797e+00,1.061022904582245277e-05,2.646338003101939012e-05
2.285714285714285587e+00,1.911443982090930716e-05,3.889331586646686139e-05
2.286507936507936378e+00,2.965411662258991601e-05,4.724569823420827775e-05
2.287301587301587169e+00,4.038694959882671863e-05,5.006913927122287513e-05
2.288095238095237960e+00,4.877343696221463017e-05,4.651913931419493189e-05
2.288888888888888751e+00,5.210265918026309840e-05,3.666280659319002123e-05
2.289682539682539542e+00,4.817485599106992626e-05,2.164200963006323360e-05
2.290476190476190332e+00,3.596034212924245226e-05,3.582173083330176051e-06
2.291269841269841123e+00,1.605207403188261886e-05,-1.479460143105803148e-05
2.292063492063491914e+00,-9.221605966001891191e-06,-3.077113859533900245e-05
2.292857142857142705e+00,-3.608188852100700268e-05,-4.225798079413114496e-05
2.293650793650793496e+00,-5.995455797822275785e-05,-4.821775996350127064e-05
2.294444444444444287e+00,-7.637827120258558239e-05,-4.875767583382046048e-05
2.295238095238095077e+00,-8.196808162599997086e-05,-4.489948509685487508e-05
2.296031746031745868e+00,-7.519675591734345304e-05,-3.815129296507955154e-05
2.296825396825396659e+00,-5.679382850857965048e-05,-3.004522429343539850e-05
2.297619047619047450e+00,-2.967209031660798932e-05,-2.177254240884962064e-05
2.298412698412698241e+00,1.581411461438416819e-06,-1.397822162491268048e-05
2.299206349206349032e+00,3.152720894208369863e-05,-6.719081678462930183e-06
2.299999999999999822e+00,5.485618605122311140e-05,4.300710070207864920e-07
2.300793650793650613e+00,6.738026338418099683e-05,8.139256539113084131e-06
2.301587301587301404e+00,6.687500009699153295e-05,1.699103838883568308e-05
2.302380952380952195e+00,5.361151447677391232e-05,2.713122997395477103e-05
2.303174603174602986e+00,3.042760620899050543e-05,3.801890551153604787e-05
2.303968253968253777e+00,2.244953108607306364e-06,4.839322851544610392e-05
2.304761904761904567e+00,-2.494862112981607069e-05,5.652083641550001945e-05
2.305555555555555358e+00,-4.547892886620968423e-05,6.068908107266111820e-05
2.306349206349206149e+00,-5.540330715600597029e-05,5.980458563638207958e-05
2.307142857142856940e+00,-5.356589249193857504e-05,5.388630812274772665e-05
2.307936507936507731e+00,-4.194861367569969232e-05,4.423780439169624725e-05
2.308730158730158522e+00,-2.516942341986747216e-05,3.316066322727098924e-05
2.309523809523809312e+00,-9.232303444899020334e-06,2.322762019014779617e-05
2.310317460317460103e+00,1.473159452639043175e-07,1.633030674334274315e-05
2.311111111111110894e+00,-8.071084824533593815e-07,1.286861325806174483e-05
2.311904761904761685e+00,-1.276537718683170910e-05,1.145781548035762245e-05
2.312698412698412920e+00,-3.295492008149419850e-05,9.351776653881593469e-06
2.313492063492063711e+00,-5.579483858837580443e-05,3.482174120957422114e-06
2.314285714285714501e+00,-7.436201770508214174e-05,-8.254613052031139516e-06
2.315079365079365292e+00,-8.228852335489886944e-05,-2.594216883526802506e-05
2.315873015873016083e+00,-7.553252218406686879e-05,-4.722668588021052845e-05
2.316666666666666874e+00,-5.348960207766988119e-05,-6.773741242594047776e-05
2.317460317460317665e+00,-1.912741254357268946e-05,-8.226928969451441104e-05
2.318253968253968456e+00,2.184290963136302605e-05,-8.637998794149573606e-05
2.319047619047619246e+00,6.243540818196788864e-05,-7.788065829815096893e-05
2.319841269841270037e+00,9.601183390154280199e-05,-5.770916890906087061e-05
2.320634920634920828e+00,1.176030844341336269e-04,-2.986843854921377857e-05
2.321428571428571619e+00,1.246506919195561499e-04,-4.132890775893115832e-07
2.322222222222222410e+00,1.171084999367857265e-04,2.421758979875816782e-05
2.323015873015873201e+00,9.702173963431571309e-05,3.899351278417286171e-05
2.323809523809523991e+00,6.780087874979755930e-05,4.161705426740547494e-05
2.324603174603174782e+00,3.343167178955859162e-05,3.295833013573278236e-05
2.325396825396825573e+00,-2.175703020398098421e-06,1.650149460891577499e-05
2.326190476190476364e+00,-3.557881748330470631e-05,-2.949929958446694636e-06
2.326984126984127155e+00,-6.392372929671843854e-05,-2.082435623472820809e-05
2.327777777777777946e+00,-8.488617553870083049e-05,-3.403438243916901031e-05
2.328571428571428736e+00,-9.659465122348536521e-05,-4.150602963403747113e-05
2.329365079365079527e+00,-9.769767368406599446e-05,-4.387891885879173666e-05
2.330158730158730318e+00,-8.765388475169860370e-05,-4.263697494495574366e-05
2.330952380952381109e+00,-6.717607654002474740e-05,-3.914070525769445630e-05
2.331746031746031900e+00,-3.861189533720616943e-05,-3.399138047746520802e-05
2.332539682539682691e+00,-5.979963707682942423e-06,-2.693805063283244208e-05
2.333333333333333481e+00,2.554107376961693577e-05,-1.728826514437854062e-05
2.334126984126984272e+00,5.066371515785310934e-05,-4.602538322199108091e-06
2.334920634920635063e+00,6.532145543550371594e-05,1.063709556217945661e-05
2.335714285714285854e+00,6.783604792321721243e-05,2.669649793174055108e-05
2.336507936507936645e+00,5.947589736740610013e-05,4.080576628240634981e-05
2.337301587301587436e+00,4.415460139079472533e-05,4.991347987221232804e-05
2.338095238095238226e+00,2.733693212790335060e-05,5.171158073258152338e-05
2.338888888888889017e+00,1.451086335540808820e-05,4.551302084445553187e-05
2.339682539682539808e+00,9.712394720171825584e-06,3.261779666949104041e-05
2.340476190476190599e+00,1.451488771619224731e-05,1.602115265213530483e-05
2.341269841269841390e+00,2.768634301907262104e-05,-4.200732973388051562e-07
2.342063492063492181e+00,4.549650946565739798e-05,-1.305089095397538338e-05
2.342857142857142971e+00,6.251093219928400191e-05,-1.933492598334965443e-05
2.343650793650793762e+00,7.266107823557550337e-05,-1.832856884326036258e-05
2.344444444444444553e+00,7.039701929140244332e-05,-1.060173957739931797e-05
2.345238095238095344e+00,5.177150774087076711e-05,2.285381667573268358e-06
2.346031746031746135e+00,1.534451915655024598e-05,1.846417885237410154e-05
2.346825396825396925e+00,-3.718253599578267410e-05,3.626044621295821329e-05
2.347619047619047716e+00,-1.007038684488689988e-04,5.429373814317108108e-05
2.348412698412698507e+00,-1.669472332197409904e-04,7.117957255178745219e-05
2.349206349206349298e+00,-2.253467814770846161e-04,8.507226785135542249e-05
2.350000000000000089e+00,-2.646095728369642379e-04,9.340226135621028543e-05
2.350793650793650880e+00,-2.748519130599946922e-04,9.310182884127479036e-05
2.351587301587301670e+00,-2.499299858750583195e-04,8.139374751392959193e-05
2.352380952380952461e+00,-1.893746271896225774e-04,5.693062693017881724e-05
2.353174603174603252e+00,-9.928828197702196142e-05,2.084700528204403041e-05
2.353968253968254043e+00,8.255203867832734094e-06,-2.277278974732261036e-05
2.354761904761904834e+00,1.173742184446736772e-04,-6.735474115401005079e-05
2.355555555555555625e+00,2.116781901154586153e-04,-1.052243091756205649e-04
2.356349206349206415e+00,2.778424403572250637e-04,-1.295061384046541279e-04
2.357142857142857206e+00,3.084163215246095045e-04,-1.358338112762311699e-04
2.357936507936507997e+00,3.030115046240630791e-04,-1.232380797909504190e-04
2.358730158730158788e+00,2.675511451850794945e-04,-9.399827997966028205e-05
2.359523809523809579e+00,2.119291756591832677e-04,-5.272338996485265590e-05
2.360317460317460370e+00,1.469477142512517044e-04,-5.166797298792741063e-06
2.361111111111111160e+00,8.157189511916423767e-05,4.279151503466391488e-05
2.361904761904761951e+00,2.133873594037497711e-05,8.578595222602661892e-05
2.362698412698412742e+00,-3.170714183707656170e-05,1.192362854009693048e-04
2.363492063492063533e+00,-7.773203193108746076e-05,1.393961997908420107e-04
2.364285714285714324e+00,-1.171423065724927043e-04,1.433848745949678537e-04
2.365079365079365115e+00,-1.488306857943073793e-04,1.293886798591870697e-04
2.365873015873015905e+00,-1.694625405845770732e-04,9.712711355504807570e-05
2.366666666666666696e+00,-1.741961335160866116e-04,4.850940446395484064e-05
2.367460317460317487e+00,-1.586022903388115699e-04,-1.179239106800941663e-05
2.368253968253968278e+00,-1.209929410391608713e-04,-7.624604131758791589e-05
2.369047619047619069e+00,-6.414161845237172012e-05,-1.351513512852098721e-04
2.369841269841269860e+00,4.414600072012554187e-06,-1.781708822171098954e-04
2.370634920634920650e+00,7.375129819644842899e-05,-1.964341137308079168e-04
2.371428571428571441e+00,1.321984528394672153e-04,-1.847252201985290383e-04
2.372222222222222232e+00,1.703180363130773871e-04,-1.431761973052028691e-04
2.373015873015873023e+00,1.831595104291683460e-04,-7.792608732897129671e-05
2.373809523809523814e+00,1.710628491674329676e-04,-3.848197078080052922e-07
2.374603174603174605e+00,1.388911262124190515e-04,7.492305574785685241e-05
2.375396825396825395e+00,9.415476271345967114e-05,1.335193584909553932e-04
2.376190476190476186e+00,4.478764728186464646e-05,1.643397346393486486e-04
2.376984126984126977e+00,-2.695708881563645164e-06,1.623643998130564067e-04
2.377777777777777768e+00,-4.418919595000958870e-05,1.297444075017335525e-04
2.378571428571428559e+00,-7.800756231811652283e-05,7.509258364888585918e-05
2.379365079365079350e+00,-1.041347176138884270e-04,1.115584234264244448e-05
2.380158730158730140e+00,-1.231467512092472084e-04,-4.843095152283308935e-05
2.380952380952380931e+00,-1.352981260771110767e-04,-9.235010393787849482e-05
2.381746031746031722e+00,-1.401228923915651960e-04,-1.138746303072655429e-04
2.382539682539682513e+00,-1.366427589975502182e-04,-1.117013060640608345e-04
2.383333333333333304e+00,-1.240025630326449849e-04,-8.936464230807217443e-05
2.384126984126984095e+00,-1.021839768288358848e-04,-5.369086522502348644e-05
2.384920634920634885e+00,-7.244541177224749970e-05,-1.292296369444920994e-05
2.385714285714285676e+00,-3.729248926648631528e-05,2.495301998985924142e-05
2.386507936507936467e+00,-1.976237014439323737e-08,5.339699833243620502e-05
2.387301587301587258e+00,3.594180775867709179e-05,6.797511787248257961e-05
2.388095238095238049e+00,6.758634890982860046e-05,6.659073084149321083e-05
2.388888888888888840e+00,9.261903045131704784e-05,4.943372587337488156e-05
2.389682539682539630e+00,1.094451090960484317e-04,1.879086470335457172e-05
2.390476190476190421e+00,1.169604281617950996e-04,-2.118123738411944418e-05
2.391269841269841212e+00,1.142841652050253652e-04,-6.470403955999503253e-05
2.392063492063492003e+00,1.005785611888096811e-04,-1.047416669881363991e-04
2.392857142857142794e+00,7.509776924342778876e-05,-1.336552958780329781e-04
2.393650793650793585e+00,3.757158328992620959e-05,-1.442918827801103283e-04
2.394444444444444375e+00,-1.108576668634606747e-05,-1.314859676765381077e-04
2.395238095238095166e+00,-6.793646850869087617e-05,-9.369199419041995261e-05
2.396031746031745957e+00,-1.274176259493063341e-04,-3.422988133819830452e-05
2.396825396825396748e+00,-1.814007134582822447e-04,3.842731247751239473e-05
2.397619047619047539e+00,-2.202022529633383631e-04,1.116903215685518527e-04
2.398412698412698330e+00,-2.345251240796432022e-04,1.711901318225927645e-04
2.399206349206349120e+00,-2.179196814359926875e-04,2.039668425271127248e-04
2.399999999999999911e+00,-1.690360557285935732e-04,2.017372047621527459e-04
2.400793650793650702e+00,-9.284492389211067764e-05,1.633137641056416067e-04
2.401587301587301493e+00,-2.257294444060980005e-07,9.535464725041671076e-05
2.402380952380952284e+00,9.416583613732917803e-05,1.105251470339443458e-05
2.403174603174603075e+00,1.752075595534293665e-04,-7.295758656429568315e-05
2.403968253968253865e+00,2.307817230351198116e-04,-1.405486365147900910e-04
2.404761904761904656e+00,2.543240318324784389e-04,-1.796969682037580479e-04
2.405555555555555447e+00,2.457483193835769374e-04,-1.847305689646846940e-04
2.406349206349206238e+00,2.106681307848571564e-04,-1.568336438986517041e-04
2.407142857142857029e+00,1.583877254237358787e-04,-1.030322151714951765e-04
2.407936507936507819e+00,9.940384416195513788e-05,-3.423552879804143338e-05
2.408730158730158610e+00,4.312799878797183244e-05,3.706943778397144842e-05
2.409523809523809401e+00,-3.683723519844646287e-06,9.902852780207397948e-05
2.410317460317460192e+00,-3.759327929452158952e-05,1.422498797686230234e-04
2.411111111111110983e+00,-5.829571934289474967e-05,1.610559676810850108e-04
2.411904761904761774e+00,-6.782651466200326554e-05,1.540379745563914674e-04
2.412698412698412564e+00,-6.947931463391453374e-05,1.239189552210215458e-04
2.413492063492063355e+00,-6.673939980607930132e-05,7.688012571875182445e-05
2.414285714285714146e+00,-6.246566028637441051e-05,2.156529185825591398e-05
2.415079365079364937e+00,-5.845398768030888150e-05,-3.210440269821215453e-05
2.415873015873015728e+00,-5.540711983095251340e-05,-7.430657046930671118e-05
2.416666666666666519e+00,-5.323207481470311963e-05,-9.690327732969737792e-05
2.417460317460317309e+00,-5.150222897436072160e-05,-9.509269852702695552e-05
2.418253968253968100e+00,-4.988229450266920756e-05,-6.874654743084964283e-05
2.419047619047618891e+00,-4.834476717880843298e-05,-2.292947794255615108e-05
2.419841269841269682e+00,-4.710385040457194274e-05,3.277758903123928588e-05
2.420634920634920473e+00,-4.632025879982875938e-05,8.616553300750874774e-05
2.421428571428571264e+00,-4.573549915768826814e-05,1.250876465661841005e-04
2.422222222222222054e+00,-4.443578643146511961e-05,1.402738593853033479e-04
2.423015873015872845e+00,-4.090374411080609874e-05,1.275633938162321459e-04
2.423809523809523636e+00,-3.339860574885380833e-05,8.900874098581149942e-05
2.424603174603174427e+00,-2.055758906100456755e-05,3.255312563266667581e-05
2.425396825396825218e+00,-2.003170858893017200e-06,-2.971764230608657336e-05
2.426190476190476009e+00,2.126995293945925123e-05,-8.441213960541531279e-05
2.426984126984126799e+00,4.686346929582874170e-05,-1.200962269188117813e-04
2.427777777777777590e+00,7.129410330671794233e-05,-1.301134203107602149e-04
2.428571428571428381e+00,9.054614866877220886e-05,-1.141394743293479205e-04
2.429365079365079172e+00,1.007169087461384278e-04,-7.799231688436904057e-05
2.430158730158729963e+00,9.866180378596055658e-05,-3.176260100339840716e-05
2.430952380952380754e+00,8.259553063942789693e-05,1.313055103695727763e-05
2.431746031746031544e+00,5.260142106119595356e-05,4.702353825350356979e-05
2.432539682539682335e+00,1.095650440996835120e-05,6.429647640439947309e-05
2.433333333333333126e+00,-3.784661138801414599e-05,6.425383145364273467e-05
2.434126984126983917e+00,-8.746960085714580258e-05,5.049557526357976311e-05
2.434920634920634708e+00,-1.305034902626171995e-04,2.916668529953724920e-05
2.435714285714285499e+00,-1.595777816951123062e-04,6.773536567646333372e-06
2.436507936507936289e+00,-1.686561124927695137e-04,-1.170401746694926021e-05
2.437301587301587080e+00,-1.543005017873762274e-04,-2.387468289873886503e-05
2.438095238095238315e+00,-1.166305260998201887e-04,-2.998523768184714673e-05
2.438888888888889106e+00,-5.969670213349269675e-05,-3.212496016505194443e-05
2.439682539682539897e+00,8.934297912084036044e-06,-3.299863310575879542e-05
2.440476190476190688e+00,7.941106006489083490e-05,-3.475758319077073318e-05
2.441269841269841478e+00,1.414400994019073335e-04,-3.827606359495165596e-05
2.442063492063492269e+00,1.863240565307662609e-04,-4.302724094439543031e-05
2.442857142857143060e+00,2.086849608148918101e-04,-4.745552557664726567e-05
2.443650793650793851e+00,2.074246968306143676e-04,-4.958274514129860602e-05
2.444444444444444642e+00,1.856735386767448617e-04,-4.758247390353642132e-05
2.445238095238095433e+00,1.497571517496440561e-04,-4.016977200927221854e-05
2.446031746031746223e+00,1.074923578497152669e-04,-2.679275523231173752e-05
2.446825396825397014e+00,6.630332860967624571e-05,-7.702428030842549151e-06
2.447619047619047805e+00,3.166502450049494464e-05,1.601328462353093833e-05
2.448412698412698596e+00,6.239496120437926669e-06,4.240213873517981636e-05
2.449206349206349387e+00,-1.015692635417108773e-05,6.867477362892159876e-05
2.450000000000000178e+00,-1.985246830631878180e-05,9.138052653958353639e-05
2.450793650793650968e+00,-2.616389186171607100e-05,1.068086537721962896e-04
2.451587301587301759e+00,-3.215625550780022208e-05,1.116114425008122094e-04
2.452380952380952550e+00,-3.967506646977819040e-05,1.035365795757854282e-04
2.453174603174603341e+00,-4.889875157578279515e-05,8.207417600469203603e-05
2.453968253968254132e+00,-5.848971939760462654e-05,4.881592134345325121e-05
2.454761904761904923e+00,-6.623874365760119539e-05,7.395369179436169941e-06
2.455555555555555713e+00,-6.994987666869957946e-05,-3.700925109686466598e-05
2.456349206349206504e+00,-6.824765403924986827e-05,-7.852446388486293170e-05
2.457142857142857295e+00,-6.103590132676844384e-05,-1.116260856808531780e-04
2.457936507936508086e+00,-4.948868248382609034e-05,-1.321734635876350191e-04
2.458730158730158877e+00,-3.564300768226025474e-05,-1.381962619465859393e-04
2.459523809523809668e+00,-2.179733552229235467e-05,-1.302107533655105071e-04
2.460317460317460458e+00,-9.944538675783715580e-06,-1.109472720671134062e-04
2.461111111111111249e+00,-1.399327944370908135e-06,-8.455596378144095908e-05
2.461904761904762040e+00,3.323387635548256428e-06,-5.553714817000195050e-05
2.462698412698412831e+00,4.412088443905907005e-06,-2.772171691487401794e-05
2.463492063492063622e+00,2.531745530984363279e-06,-3.581406771746067281e-06
2.464285714285714413e+00,-1.429522046441258388e-06,1.598072433040504195e-05
2.465079365079365203e+00,-6.554869373700326298e-06,3.136585350833708794e-05
2.465873015873015994e+00,-1.199348835858150669e-05,4.368470742279630369e-05
2.466666666666666785e+00,-1.696899687613688960e-05,5.405951171689977542e-05
2.467460317460317576e+00,-2.075614865160592648e-05,6.305588568937985419e-05
2.468253968253968367e+00,-2.268996690154593954e-05,7.040925144232485671e-05
2.469047619047619158e+00,-2.224462705555676662e-05,7.509687689587072256e-05
2.469841269841269948e+00,-1.917200245697985619e-05,7.569500735855636355e-05
2.470634920634920739e+00,-1.364698701046690409e-05,7.088907740051788491e-05
2.471428571428571530e+00,-6.348600184575609190e-06,5.998646193006175849e-05
2.472222222222222321e+00,1.581036348298202940e-06,4.330248905411721022e-05
2.473015873015873112e+00,8.719975371166711401e-06,2.232723826456006768e-05
2.473809523809523903e+00,1.366339510178695315e-05,-3.827683457432162590e-07
2.474603174603174693e+00,1.536244398698958496e-05,-2.160245198735796953e-05
2.475396825396825484e+00,1.341110984339483301e-05,-3.807626304156377673e-05
2.476190476190476275e+00,8.195244186743252664e-06,-4.726005464569940162e-05
2.476984126984127066e+00,8.537730074911327880e-07,-4.795794355629273838e-05
2.477777777777777857e+00,-6.946247746453299703e-06,-4.064429749779311626e-05
2.478571428571428648e+00,-1.336924973687697285e-05,-2.735480581595027509e-05
2.479365079365079438e+00,-1.682161767324758526e-05,-1.117935099442615155e-05
2.480158730158730229e+00,-1.632015599627642589e-05,4.482059948171172459e-06
2.480952380952381020e+00,-1.173585717755942856e-05,1.668388107824460683e-05
2.481746031746031811e+00,-3.854318534000669357e-06,2.352654688289624598e-05
2.482539682539682602e+00,5.769381905653890892e-06,2.445551627176575774e-05
2.483333333333333393e+00,1.513828188304014513e-05,2.024066040557483327e-05
2.484126984126984183e+00,2.225740125941352417e-05,1.268821151957263057e-05
2.484920634920634974e+00,2.559871228361077004e-05,4.181433653755357193e-06
2.485714285714285765e+00,2.448183549648098509e-05,-2.847311350312667096e-06
2.486507936507936556e+00,1.927267810072524052e-05,-6.421674472778970044e-06
2.487301587301587347e+00,1.132919040012788228e-05,-5.422057920494769699e-06
2.488095238095238138e+00,2.675009347995770593e-06,1.897542221718544924e-07
2.488888888888888928e+00,-4.542036625272794656e-06,9.370089625751859723e-06
2.489682539682539719e+00,-8.666384559343114563e-06,2.022113681843661391e-05
2.490476190476190510e+00,-9.032814743468027159e-06,3.039678711996332257e-05
2.491269841269841301e+00,-6.166579539574526317e-06,3.759207793723093034e-05
2.492063492063492092e+00,-1.594892478197447826e-06,4.000599683582110270e-05
2.492857142857142883e+00,2.686544916055830390e-06,3.668433330245095644e-05
2.493650793650793673e+00,4.919042175642569393e-06,2.768667990404260779e-05
2.494444444444444464e+00,4.210791013637155861e-06,1.406269428732525999e-05
2.495238095238095255e+00,8.566749541624179109e-07,-2.343168386049430890e-06
2.496031746031746046e+00,-3.780467285387616962e-06,-1.921569228003844814e-05
2.496825396825396837e+00,-7.791288548998937945e-06,-3.416637111436908485e-05
2.497619047619047628e+00,-9.452501724657769820e-06,-4.514445659722855948e-05
2.498412698412698418e+00,-7.897931022345275508e-06,-5.079915363379807912e-05
2.499206349206349209e+00,-3.478247486198731393e-06,-5.072653634647014811e-05
2.500000000000000000e+00,2.326697212497467685e-06,-4.553608068083743726e-05
2.500793650793650791e+00,7.414042817743337767e-06,-3.669426961953809922e-05
2.501587301587301582e+00,9.795565942422415525e-06,-2.615680928089544576e-05
2.502380952380952372e+00,8.293913880957136077e-06,-1.587315802705903080e-05
2.503174603174603163e+00,2.950933679066273419e-06,-7.302724615349443032e-06
2.503968253968253954e+00,-4.975792299194201769e-06,-1.090977137641330344e-06
2.504761904761904745e+00,-1.339831854817559592e-05,2.990607415127511608e-06
2.505555555555555536e+00,-2.002103157491846473e-05,5.819661037108813622e-06
2.506349206349206327e+00,-2.301090155422159538e-05,8.487324936871778875e-06
2.507142857142857117e+00,-2.153494959522504466e-05,1.180156748864312800e-05
2.507936507936507908e+00,-1.602371489201495587e-05,1.590470864128690854e-05
2.508730158730158699e+00,-8.081420420201064652e-06,2.014382470449753697e-05
2.509523809523809490e+00,-4.889050663607530766e-08,2.324632806918762093e-05
2.510317460317460281e+00,5.677730496842837122e-06,2.374790890502016076e-05
2.511111111111111072e+00,7.385336526264293742e-06,2.053291952416985260e-05
2.511904761904761862e+00,4.610930263757141110e-06,1.330785974394892198e-05
2.512698412698412653e+00,-1.660027270395652285e-06,2.848472651172598974e-06
2.513492063492063444e+00,-9.247576454787180449e-06,-9.070342971509590612e-06
2.514285714285714235e+00,-1.540387088295308153e-05,-2.005912948063050098e-05
2.515079365079365026e+00,-1.759579738246760727e-05,-2.771622413044498107e-05
2.515873015873015817e+00,-1.418712626161649128e-05,-3.027706312834925991e-05
2.516666666666666607e+00,-4.834089188955888721e-06,-2.710937154132798472e-05
2.517460317460317398e+00,9.461987896095160264e-06,-1.889001874719592456e-05
2.518253968253968189e+00,2.658560026044335116e-05,-7.403543015603376513e-06
2.519047619047618980e+00,4.370979972623271001e-05,4.964472626719879836e-06
2.519841269841269771e+00,5.777317106767142565e-05,1.586331748227659004e-05
2.520634920634920562e+00,6.597655586876819019e-05,2.353727602044149367e-05
2.521428571428571352e+00,6.627029936445964114e-05,2.715314845443828271e-05
2.522222222222222143e+00,5.779008688521381377e-05,2.683483245109677796e-05
2.523015873015872934e+00,4.116394409312416534e-05,2.344616696209442754e-05
2.523809523809523725e+00,1.858643198055393922e-05,1.823239566119048453e-05
2.524603174603174516e+00,-6.432348763382692221e-06,1.244949134064042415e-05
2.525396825396825307e+00,-2.966914436952877615e-05,7.084748403867859415e-06
2.526190476190476097e+00,-4.705499689943844032e-05,2.721790418669165455e-06
2.526984126984126888e+00,-5.560483752517179229e-05,-4.506563795386818597e-07
2.527777777777777679e+00,-5.414761533507593820e-05,-2.529579917026143447e-06
2.528571428571428470e+00,-4.363514381561400427e-05,-3.752671373922431483e-06
2.529365079365079261e+00,-2.693093372001191380e-05,-4.375894583763701256e-06
2.530158730158730052e+00,-8.127237388345387402e-06,-4.603684348317634858e-06
2.530952380952380842e+00,8.445002798556403047e-06,-4.569134523332483290e-06
2.531746031746031633e+00,1.927904260364588131e-05,-4.342884740888516892e-06
2.532539682539682424e+00,2.256571837839194773e-05,-3.949334637150387947e-06
2.533333333333333215e+00,1.863546997218535500e-05,-3.378493030382458510e-06
2.534126984126984006e+00,9.817738882263026017e-06,-2.591483230394441677e-06
2.534920634920634797e+00,-2.713957497209062406e-07,-1.524204407913957605e-06
2.535714285714285587e+00,-7.815846808550666448e-06,-9.710292370244890116e-08
2.536507936507936378e+00,-9.932877297244943642e-06,1.761232877372701177e-06
2.537301587301587169e+00,-5.514652307968652276e-06,4.074031256548571746e-06
2.538095238095237960e+00,4.454734707253504787e-06,6.766164954835707525e-06
2.538888888888888751e+00,1.717583175654101302e-05,9.619480352505456596e-06
2.539682539682539542e+00,2.881488678673569995e-05,1.225509262066137656e-05
2.540476190476190332e+00,3.557882442193689059e-05,1.416315164068854980e-05
2.541269841269841123e+00,3.479817522103031339e-05,1.479002712914487684e-05
2.542063492063491914e+00,2.571561061001465204e-05,1.367301521298280292e-05
2.542857142857142705e+00,9.740717559237275562e-06,1.059026390679477207e-05
2.543650793650793496e+00,-9.918822444932203281e-06,5.679294274358767761e-06
2.544444444444444287e+00,-2.913679486419717770e-05,-5.215368586792093378e-07
2.545238095238095077e+00,-4.396984953928250052e-05,-7.137432007381713924e-06
2.546031746031745868e+00,-5.162758966401723198e-05,-1.312623758370157226e-05
2.546825396825396659e+00,-5.103364181265123372e-05,-1.751345199984814018e-05
2.547619047619047450e+00,-4.286753930517708295e-05,-1.962247645922503633e-05
2.548412698412698241e+00,-2.915608595182502682e-05,-1.922252176992201724e-05
2.549206349206349032e+00,-1.260791014887523998e-05,-1.654427338436541102e-05
2.549999999999999822e+00,4.074599195214199878e-06,-1.216368599336330219e-05
2.550793650793650613e+00,1.871319846859726812e-05,-6.802891142294333750e-06
2.551587301587301404e+00,2.990384451214802281e-05,-1.126166837610038415e-06
2.552380952380952195e+00,3.700997496789235351e-05,4.387404731669389838e-06
2.553174603174602986e+00,3.999367178566706733e-05,9.434814484468700060e-06
2.553968253968253777e+00,3.920930025473511391e-05,1.373225048693099505e-05
2.554761904761904567e+00,3.525380783071190678e-05,1.677193507865716360e-05
2.555555555555555358e+00,2.889953516480473308e-05,1.763061974199260716e-05
2.556349206349206149e+00,2.107011678797988762e-05,1.499988442686613798e-05
2.557142857142856940e+00,1.279260332889874974e-05,7.544044646563314668e-06
2.557936507936507731e+00,5.078808043126805103e-06,-5.470048784071553186e-06
2.558730158730158522e+00,-1.260228825928986007e-06,-2.350521314375810528e-05
2.559523809523809312e+00,-5.808950264397272631e-06,-4.436593959076803667e-05
2.560317460317460103e+00,-8.662243293751082824e-06,-6.434146750920346862e-05
2.561111111111110894e+00,-1.038098570953869850e-05,-7.894246699394551171e-05
2.561904761904761685e+00,-1.176533099157892766e-05,-8.406142595221456073e-05
2.562698412698412920e+00,-1.351112293840853087e-05,-7.719900642282817506e-05
2.563492063492063711e+00,-1.588862184590040974e-05,-5.833296369870916793e-05
2.564285714285714501e+00,-1.859120960568389269e-05,-3.010765550641041787e-05
2.565079365079365292e+00,-2.083053786168424326e-05,2.734166806101838016e-06
2.565873015873016083e+00,-2.164104364208380767e-05,3.447952355044840998e-05
2.566666666666666874e+00,-2.026461561589611122e-05,5.976235868255826546e-05
2.567460317460317665e+00,-1.646207473887706361e-05,7.469185805708017541e-05
2.568253968253968456e+00,-1.064285965974268747e-05,7.753765348703651051e-05
2.569047619047619246e+00,-3.781596596087154047e-06,6.889348063036479139e-05
2.569841269841270037e+00,2.838614895161604728e-06,5.139940623060340288e-05
2.570634920634920828e+00,7.969808746356647118e-06,2.918827438635318962e-05
2.571428571428571619e+00,1.072437684883575815e-05,7.205195529668847966e-06
2.572222222222222410e+00,1.078545327165485378e-05,-9.537205764221064674e-06
2.573015873015873201e+00,8.441667235037342130e-06,-1.676919507164604294e-05
2.573809523809523991e+00,4.441095272858537698e-06,-1.181086617532486560e-05
2.574603174603174782e+00,-2.812011200580230173e-07,5.679137725264359747e-06
2.575396825396825573e+00,-4.904815777496252870e-06,3.327504120853895720e-05
2.576190476190476364e+00,-8.947720844452353411e-06,6.588817628389576878e-05
2.576984126984127155e+00,-1.233359961194509599e-05,9.650791137996215618e-05
2.577777777777777946e+00,-1.528277332787143929e-05,1.175223136362401520e-04
2.578571428571428736e+00,-1.807245564023239809e-05,1.223944583091894352e-04
2.579365079365079527e+00,-2.075854277039443900e-05,1.073293696014223047e-04
2.580158730158730318e+00,-2.296338372256649167e-05,7.249086759910889439e-05
2.580952380952381109e+00,-2.381448726577831685e-05,2.236606147634586012e-05
2.581746031746031900e+00,-2.207975168692955195e-05,-3.494040826242646392e-05
2.582539682539682691e+00,-1.649642594780657308e-05,-8.939732958600765374e-05
2.583333333333333481e+00,-6.240463686184861123e-06,-1.313199699141298540e-04
2.584126984126984272e+00,8.564507687751213562e-06,-1.536221138772828347e-04
2.584920634920635063e+00,2.643692777401050601e-05,-1.534439577632473880e-04
2.585714285714285854e+00,4.438125571039375791e-05,-1.327441231942161554e-04
2.586507936507936645e+00,5.812350607220410708e-05,-9.774595486229709399e-05
2.587301587301587436e+00,6.280788804614467378e-05,-5.742606065672825204e-05
2.588095238095238226e+00,5.410502194470717121e-05,-2.143213344119100999e-05
2.588888888888889017e+00,2.953437755145487794e-05,2.104284324589877353e-06
2.589682539682539808e+00,-1.032759269323578653e-05,8.395701604882196918e-06
2.590476190476190599e+00,-6.114159736195038124e-05,-2.943235607806284451e-06
2.591269841269841390e+00,-1.149346278450229952e-04,-2.788353141253564326e-05
2.592063492063492181e+00,-1.612186780395206075e-04,-5.904782987278565590e-05
2.592857142857142971e+00,-1.889904569203587181e-04,-8.758137391418561177e-05
2.593650793650793762e+00,-1.892288499255642795e-04,-1.053056620353739049e-04
2.594444444444444553e+00,-1.573051977470188185e-04,-1.065509717288999023e-04
2.595238095238095344e+00,-9.465943543935214028e-05,-8.919163780313378717e-05
2.596031746031746135e+00,-9.204940098447037872e-06,-5.470460178075041083e-05
2.596825396825396925e+00,8.579750351819646252e-05,-7.419586867423500359e-06
2.597619047619047716e+00,1.742539365766277489e-04,4.663394343807244867e-05
2.598412698412698507e+00,2.405670475315122166e-04,1.008633267338237530e-04
2.599206349206349298e+00,2.729048657030048075e-04,1.489883829602956270e-04
2.600000000000000089e+00,2.655114765794763625e-04,1.856295042477776010e-04
2.600793650793650880e+00,2.194853194071736465e-04,2.067083461185462319e-04
2.601587301587301670e+00,1.419954816293944187e-04,2.097688825608709441e-04
2.602380952380952461e+00,4.441636954817378970e-05,1.942655458621791857e-04
2.603174603174603252e+00,-5.990022676225501604e-05,1.617890010107288191e-04
2.603968253968254043e+00,-1.575968380434837027e-04,1.161315410537895159e-04
2.604761904761904834e+00,-2.367264925696248279e-04,6.304805684902826208e-05
2.605555555555555625e+00,-2.876514920885670391e-04,9.576347278916923209e-06
2.606349206349206415e+00,-3.036593095952845904e-04,-3.711957361482308193e-05
2.607142857142857206e+00,-2.815287128375824920e-04,-7.122078152068578489e-05
2.607936507936507997e+00,-2.221170224151085076e-04,-8.964860807784467522e-05
2.608730158730158788e+00,-1.308145998566978270e-04,-9.287682487797439389e-05
2.609523809523809579e+00,-1.754825764237365806e-05,-8.477267330041998261e-05
2.610317460317460370e+00,1.039897304880547805e-04,-7.142031301326036191e-05
2.611111111111111160e+00,2.180319494211009417e-04,-5.928336533406419029e-05
2.611904761904761951e+00,3.091925528609821097e-04,-5.332053164145893556e-05
2.612698412698412742e+00,3.652333824273657262e-04,-5.565871981282933829e-05
2.613492063492063533e+00,3.794838202120947614e-04,-6.518216770493811239e-05
2.614285714285714324e+00,3.522473955958506505e-04,-7.806119183237613919e-05
2.615079365079365115e+00,2.907373220010068095e-04,-8.897404016038095364e-05
2.615873015873015905e+00,2.074657179424100782e-04,-9.263238840802578413e-05
2.616666666666666696e+00,1.174363656771085939e-04,-8.518802074508812709e-05
2.617460317460317487e+00,3.480917768207383894e-05,-6.515893295064256426e-05
2.618253968253968278e+00,-3.016738231859104246e-05,-3.366980905263531042e-05
2.619047619047619069e+00,-7.322263620652720974e-05,5.978924857934624951e-06
2.619841269841269860e+00,-9.661305813846391018e-05,4.919929672216570571e-05
2.620634920634920650e+00,-1.079721005834312483e-04,9.114076601207553232e-05
2.621428571428571441e+00,-1.176803057277661538e-04,1.275418630056974806e-04
2.622222222222222232e+00,-1.353768261293150350e-04,1.552026603785385916e-04
2.623015873015873023e+00,-1.665360996483318556e-04,1.720272169308035052e-04
2.623809523809523814e+00,-2.101283597090595134e-04,1.767468791752888904e-04
2.624603174603174605e+00,-2.581851157297852611e-04,1.685648632777067600e-04
2.625396825396825395e+00,-2.975907178118608696e-04,1.470107222868947267e-04
2.626190476190476186e+00,-3.137277145779797686e-04,1.122001126796411200e-04
2.626984126984126977e+00,-2.949435641043594001e-04,6.545201847851003221e-05
2.627777777777777768e+00,-2.364443433986060611e-04,9.935643772450897840e-06
2.628571428571428559e+00,-1.423313274692606279e-04,-4.910729406355269247e-05
2.629365079365079350e+00,-2.506944321444846955e-05,-1.048801229607296775e-04
2.630158730158730140e+00,9.747723081115785388e-05,-1.502664846318291073e-04
2.630952380952380931e+00,2.064883271428107580e-04,-1.794154411438975236e-04
2.631746031746031722e+00,2.866723939163529555e-04,-1.891299686308425387e-04
2.632539682539682513e+00,3.294148422584243421e-04,-1.795734539439479253e-04
2.633333333333333304e+00,3.337757711802711940e-04,-1.540704337512543087e-04
2.634126984126984095e+00,3.053360474383940521e-04,-1.181139953048890290e-04
2.634920634920634885e+00,2.535893110699483652e-04,-7.794486438039587072e-05
2.635714285714285676e+00,1.889198531633383014e-04,-3.914213047927298786e-05
2.636507936507936467e+00,1.201484876985653861e-04,-5.586882933872104761e-06
2.637301587301587258e+00,5.327388119982394204e-05,2.098852226695606469e-05
2.638095238095238049e+00,-8.459589617125605877e-06,4.081416251412672104e-05
2.638888888888888840e+00,-6.351342718582734766e-05,5.536361564480490920e-05
2.639682539682539630e+00,-1.106792284075837286e-04,6.634410996592404882e-05
2.640476190476190421e+00,-1.480656839658881711e-04,7.472875451283263117e-05
2.641269841269841212e+00,-1.729069549112832260e-04,8.016886897433157387e-05
2.642063492063492003e+00,-1.822609127751355384e-04,8.101336318721153850e-05
2.642857142857142794e+00,-1.742780275293053199e-04,7.494949250953160153e-05
2.643650793650793585e+00,-1.494752666636726848e-04,6.003637141483939428e-05
2.644444444444444375e+00,-1.114220381418365771e-04,3.573373159600025709e-05
2.645238095238095166e+00,-6.644806162037038473e-05,3.521902230364240626e-06
2.646031746031745957e+00,-2.235671843307049519e-05,-3.311944614238755902e-05
2.646825396825396748e+00,1.346569791951957791e-05,-6.933832067993077656e-05
2.647619047619047539e+00,3.589778142941903470e-05,-9.988205616660019652e-05
2.648412698412698330e+00,4.326219245073602515e-05,-1.200836678834738902e-04
2.649206349206349120e+00,3.748488001605496350e-05,-1.266398390152543587e-04
2.649999999999999911e+00,2.325281221966587369e-05,-1.181362706978808947e-04
2.650793650793650702e+00,6.489569354406383632e-06,-9.536761359721231633e-05
2.651587301587301493e+00,-7.375482139574649653e-06,-6.143776647757432318e-05
2.652380952380952284e+00,-1.485363409345620207e-05,-2.151194172773348827e-05
2.653174603174603075e+00,-1.516923613926419919e-05,1.792101817161711430e-05
2.653968253968253865e+00,-1.016378878979692829e-05,5.027444334575620490e-05
2.654761904761904656e+00,-3.393386623725127389e-06,7.035116915222494637e-05
2.655555555555555447e+00,1.265869338898993733e-06,7.568816792259573450e-05
2.656349206349206238e+00,1.025942544003650028e-06,6.732564575233506462e-05
2.657142857142857029e+00,-4.871618348641447185e-06,4.971500404696614579e-05
2.657936507936507819e+00,-1.498487200009830787e-05,2.974798268465709503e-05
2.658730158730158610e+00,-2.628926383442479201e-05,1.516015415877482346e-05
2.659523809523809401e+00,-3.532366329287957226e-05,1.270773215533250296e-05
2.660317460317460192e+00,-3.943520055835592444e-05,2.649476765754645472e-05
2.661111111111110983e+00,-3.767360117504140566e-05,5.672972374626292447e-05
2.661904761904761774e+00,-3.100797910130289193e-05,9.914088655390219300e-05
2.662698412698412564e+00,-2.177467339677480277e-05,1.452843125488281545e-04
2.663492063492063355e+00,-1.255875623066129025e-05,1.839144176930875571e-04
2.664285714285714146e+00,-4.965644618829264959e-06,2.033532708337971778e-04
2.665079365079364937e+00,1.172394597558262453e-06,1.944306355280325913e-04
2.665873015873015728e+00,7.767335491613304625e-06,1.532393998263064771e-04
2.666666666666666519e+00,1.759582191717608030e-05,8.283763995901012134e-05
2.667460317460317309e+00,3.293325341693657604e-05,-6.780317781837937646e-06
2.668253968253968100e+00,5.429409074841585407e-05,-1.006480457553451127e-04
2.669047619047618891e+00,7.982177917946123432e-05,-1.823034174868405416e-04
2.669841269841269682e+00,1.055722392010920375e-04,-2.377976968313278696e-04
2.670634920634920473e+00,1.265404262954889175e-04,-2.590218946099399596e-04
2.671428571428571264e+00,1.379957239054493609e-04,-2.453498505386510773e-04
2.672222222222222054e+00,1.366481572929589144e-04,-2.031766261072551064e-04
2.673015873015872845e+00,1.213324955170630334e-04,-1.436322719332332382e-04
2.673809523809523636e+00,9.312848449263579607e-05,-7.931501716793177149e-05
2.674603174603174427e+00,5.500789270486784244e-05,-2.112718793757025699e-05
2.675396825396825218e+00,1.117951268910048271e-05,2.385573224271846351e-05
2.676190476190476009e+00,-3.367825993602159877e-05,5.301602065461183904e-05
2.676984126984126799e+00,-7.512021472028553688e-05,6.743339906688250191e-05
2.677777777777777590e+00,-1.094358452619629873e-04,7.030768164016160853e-05
2.678571428571428381e+00,-1.338909124861654379e-04,6.533072116065060514e-05
2.679365079365079172e+00,-1.467551149430522416e-04,5.563625519497818021e-05
2.680158730158729963e+00,-1.472469401399724019e-04,4.356736768151900482e-05
2.680952380952380754e+00,-1.355348921496163698e-04,3.105917284600594262e-05
2.681746031746031544e+00,-1.128464487042452378e-04,2.015942725807575613e-05
2.682539682539682335e+00,-8.159886265955076793e-05,1.321819690653894031e-05
2.683333333333333126e+00,-4.536908586893828788e-05,1.252542568480236547e-05
2.684126984126983917e+00,-8.538188415595759624e-06,1.950670926405457823e-05
2.684920634920634708e+00,2.441380931491230917e-05,3.383656329822165858e-05
2.685714285714285499e+00,4.979447255767093666e-05,5.290208890347383920e-05
2.686507936507936289e+00,6.546723493853575011e-05,7.194682382605348270e-05
2.687301587301587080e+00,7.121587483043029427e-05,8.499540222303853529e-05
2.688095238095238315e+00,6.857376631553723965e-05,8.637824794096047925e-05
2.688888888888889106e+00,6.019009238312932915e-05,7.243745113782926713e-05
2.689682539682539897e+00,4.895786734876402441e-05,4.288674786142541848e-05
2.690476190476190688e+00,3.718716651651423580e-05,1.352001134824412318e-06
2.691269841269841478e+00,2.607923702126246210e-05,-4.518008146620889183e-05
2.692063492063492269e+00,1.565883403471834186e-05,-8.795767890417537517e-05
2.692857142857143060e+00,5.169334893097689205e-06,-1.186870178417214378e-04
2.693650793650793851e+00,-6.229888572278471297e-06,-1.316871048732281993e-04
2.694444444444444642e+00,-1.873507048888159367e-05,-1.252573588550931396e-04
2.695238095238095433e+00,-3.141915424050450197e-05,-1.018329699455393968e-04
2.696031746031746223e+00,-4.219631632017713094e-05,-6.698192209623174181e-05
2.696825396825397014e+00,-4.828032235227088518e-05,-2.771184592939330239e-05
2.697619047619047805e+00,-4.702388362986642778e-05,9.287973653794466807e-06
2.698412698412698596e+00,-3.687924730956159346e-05,3.896381818630014366e-05
2.699206349206349387e+00,-1.814169672924282971e-05,5.854222277765914318e-05
2.700000000000000178e+00,6.821456322838158997e-06,6.753667038367920422e-05
2.700793650793650968e+00,3.398565749560450476e-05,6.730116796421931351e-05
2.701587301587301759e+00,5.861853056175063447e-05,6.034132409055851848e-05
2.702380952380952550e+00,7.644919926125566122e-05,4.956234287991689370e-05
2.703174603174603341e+00,8.466821203157020854e-05,3.760695270811766311e-05
2.703968253968254132e+00,8.245914359364503563e-05,2.641223225543160643e-05
2.704761904761904923e+00,7.096323152126864629e-05,1.705497597000835857e-05
2.705555555555555713e+00,5.278225143986049994e-05,9.857712954647202477e-06
2.706349206349206504e+00,3.124476529879211933e-05,4.640488962425232838e-06
2.707142857142857295e+00,9.671524838482555686e-06,9.776016595255027892e-07
2.707936507936508086e+00,-9.192972062859492370e-06,-1.639345970609471987e-06
2.708730158730158877e+00,-2.351137723989063399e-05,-3.751526198361392062e-06
2.709523809523809668e+00,-3.245277572719078242e-05,-5.940723671647702097e-06
2.710317460317460458e+00,-3.610617424717662698e-05,-8.805100057516101708e-06
2.711111111111111249e+00,-3.526477428792435805e-05,-1.283890770184729627e-05
2.711904761904762040e+00,-3.113911736933572781e-05,-1.822620444462115944e-05
2.712698412698412831e+00,-2.506036851333705753e-05,-2.463542783436625241e-05
2.713492063492063622e+00,-1.823483487485923655e-05,-3.113228071387650703e-05
2.714285714285714413e+00,-1.159658892534177061e-05,-3.629564359658846894e-05
2.715079365079365203e+00,-5.774448737214529953e-06,-3.854424790483420920e-05
2.715873015873015994e+00,-1.152245165008007421e-06,-3.659424905473262980e-05
2.716666666666666785e+00,2.028199716427058916e-06,-2.990328842196119847e-05
2.717460317460317576e+00,3.582234661593977232e-06,-1.894514559031867633e-05
2.718253968253968367e+00,3.362700504260492420e-06,-5.211750052512334114e-06
2.719047619047619158e+00,1.318601836038360698e-06,9.068229083588467241e-06
2.719841269841269948e+00,-2.394313295875814007e-06,2.141635001756388582e-05
2.720634920634920739e+00,-7.305667057779342762e-06,2.966343117863154676e-05
2.721428571428571530e+00,-1.258721525143673263e-05,3.243330409789039586e-05
2.722222222222222321e+00,-1.712296796095788079e-05,2.943283450015354153e-05
2.723015873015873112e+00,-1.971000362781656930e-05,2.149219339891592448e-05
2.723809523809523903e+00,-1.936121965811362795e-05,1.036943839144184141e-05
2.724603174603174693e+00,-1.563189030585883135e-05,-1.617824155786209683e-06
2.725396825396825484e+00,-8.860361413588687483e-06,-1.205365859453030598e-05
2.726190476190476275e+00,-2.192684371468275486e-07,-1.889804473228632361e-05
2.726984126984127066e+00,8.477697315058938093e-06,-2.089290663281830564e-05
2.727777777777777857e+00,1.519098244768214218e-05,-1.781650689969288158e-05
2.728571428571428648e+00,1.818979019340709780e-05,-1.051968406299438899e-05
2.729365079365079438e+00,1.654916005580811891e-05,-7.236582216212531536e-07
2.730158730158730229e+00,1.044533408674565322e-05,9.381063863427386302e-06
2.730952380952381020e+00,1.136649920880307450e-06,1.764493194903933197e-05
2.731746031746031811e+00,-9.377777639642920996e-06,2.245776640514027072e-05
2.732539682539682602e+00,-1.890584115407023121e-05,2.310545752637894516e-05
2.733333333333333393e+00,-2.562179975724756986e-05,1.988005373185839888e-05
2.734126984126984183e+00,-2.845587013226266092e-05,1.390676168534564897e-05
2.734920634920634974e+00,-2.722657755643710016e-05,6.747995196791883014e-06
2.735714285714285765e+00,-2.253839911399742928e-05,-7.334628723434342667e-08
2.736507936507936556e+00,-1.553346724412097980e-05,-5.466390844837594577e-06
2.737301587301587347e+00,-7.593050997611613902e-06,-8.964753524161530546e-06
2.738095238095238138e+00,-5.515356037802583212e-08,-1.069366249762193268e-05
2.738888888888888928e+00,6.018252104029585534e-06,-1.116930006646925029e-05
2.739682539682539719e+00,1.000677801329384529e-05,-1.103033580215339358e-05
2.740476190476190510e+00,1.181207009147164826e-05,-1.079995542733059201e-05
2.741269841269841301e+00,1.183455474499951021e-05,-1.074487386748544940e-05
2.742063492063492092e+00,1.084140339121189312e-05,-1.085311460789878629e-05
2.742857142857142883e+00,9.747436145427965286e-06,-1.090936182428976627e-05
2.743650793650793673e+00,9.357033403738615788e-06,-1.061764811821907666e-05
2.744444444444444464e+00,1.012903179041001672e-05,-9.715005326631071095e-06
2.745238095238095255e+00,1.202571291144582038e-05,-8.037141669435769601e-06
2.746031746031746046e+00,1.449348402275933039e-05,-5.527286072933658037e-06
2.746825396825396837e+00,1.659562982022794942e-05,-2.206099970022597607e-06
2.747619047619047628e+00,1.727396455842598186e-05,1.865174642466746146e-06
2.748412698412698418e+00,1.566406116780691147e-05,6.594307600545917130e-06
2.749206349206349209e+00,1.135431514547054804e-05,1.181680309365302618e-05
2.750000000000000000e+00,4.493564808824378927e-06,1.720656493211659407e-05
2.750793650793650791e+00,-4.279624016609994535e-06,2.218038665170030929e-05
2.751587301587301582e+00,-1.402686342804340389e-05,2.586926601189378606e-05
2.752380952380952372e+00,-2.371206282633797291e-05,2.722469875377094527e-05
2.753174603174603163e+00,-3.233164660631330524e-05,2.527608803920639445e-05
2.753968253968253954e+00,-3.896218337934671198e-05,1.947662118787930056e-05
2.754761904761904745e+00,-4.277925367461396673e-05,1.001143878461328114e-05
2.755555555555555536e+00,-4.310927545606478767e-05,-2.068980723741563439e-06
2.756349206349206327e+00,-3.953190200560489719e-05,-1.497417972396517113e-05
2.757142857142857117e+00,-3.199905360480144798e-05,-2.654563622629316691e-05
2.757936507936507908e+00,-2.091603967667657400e-05,-3.476826447606482423e-05
2.758730158730158699e+00,-7.145448026485352164e-06,-3.826364708399358202e-05
2.759523809523809490e+00,8.073769172712381894e-06,-3.661592568435838383e-05
2.760317460317460281e+00,2.327215314524792094e-05,-3.043874931363218822e-05
2.761111111111111072e+00,3.692727609701892575e-05,-2.117541422633668235e-05
2.761904761904761862e+00,4.763923271744871437e-05,-1.070654796461215392e-05
2.762698412698412653e+00,5.427815606123245675e-05,-8.914270693416939291e-07
2.763492063492063444e+00,5.609147143260011313e-05,6.825430063289886237e-06
2.764285714285714235e+00,5.277564083139915793e-05,1.164549142258954610e-05
2.765079365079365026e+00,4.452845841024389163e-05,1.344599705888396508e-05
2.765873015873015817e+00,3.209034479946711456e-05,1.263296664673427458e-05
2.766666666666666607e+00,1.675427323301098394e-05,9.896038575150438614e-06
2.767460317460317398e+00,2.939444346252577394e-07,5.968492781971510025e-06
2.768253968253968189e+00,-1.523856239550511217e-05,1.477676913135885743e-06
2.769047619047618980e+00,-2.784448908260766479e-05,-3.083575352529940613e-06
2.769841269841269771e+00,-3.596323361242671340e-05,-7.296881450663164768e-06
2.770634920634920562e+00,-3.878649048192530903e-05,-1.074017001957845561e-05
2.771428571428571352e+00,-3.639629059885899726e-05,-1.295908630845905462e-05
2.772222222222222143e+00,-2.969597886697223304e-05,-1.351914702394750279e-05
2.773015873015872934e+00,-2.018416938423511149e-05,-1.212199136407960983e-05
2.773809523809523725e+00,-9.662281650426097322e-06,-8.731570353486043490e-06
2.774603174603174516e+00,4.572228981270383369e-08,-3.643416818826191220e-06
2.775396825396825307e+00,7.325983754410085044e-06,2.551493456960770019e-06
2.776190476190476097e+00,1.096583250722225168e-05,9.111681106081289126e-06
2.776984126984126888e+00,1.032309346916790419e-05,1.534880893058286741e-05
2.777777777777777679e+00,5.470826455555658833e-06,2.080560387648783803e-05
2.778571428571428470e+00,-2.728313808602163663e-06,2.532953147882863662e-05
2.779365079365079261e+00,-1.269039826130181819e-05,2.900945774605512710e-05
2.780158730158730052e+00,-2.236858242812710641e-05,3.200503742218081506e-05
2.780952380952380842e+00,-2.967244421406013124e-05,3.434609616882879990e-05
2.781746031746031633e+00,-3.293614315794677130e-05,3.579068432185753657e-05
2.782539682539682424e+00,-3.128999180231374351e-05,3.580515116188437441e-05
2.783333333333333215e+00,-2.482613319968989736e-05,3.368257812993448295e-05
2.784126984126984006e+00,-1.452547341514576157e-05,2.876710369595442211e-05
2.784920634920634797e+00,-1.986490272602458354e-06,2.071749638063029612e-05
2.785714285714285587e+00,1.095744599856023236e-05,9.731065501002453003e-06
2.786507936507936378e+00,2.263050193239465660e-05,-3.343533872378168334e-06
2.787301587301587169e+00,3.182448092686380211e-05,-1.705289836464889185e-05
2.788095238095237960e+00,3.796055374577541187e-05,-2.955519119885838234e-05
2.788888888888888751e+00,4.107372636899412553e-05,-3.896765093756551546e-05
2.789682539682539542e+00,4.163713978398851694e-05,-4.376178326211793544e-05
2.790476190476190332e+00,4.029014978920337510e-05,-4.310187080170121374e-05
2.791269841269841123e+00,3.756493985621516739e-05,-3.703723345396143509e-05
2.792063492063491914e+00,3.370622382869615662e-05,-2.650346219384061073e-05
2.792857142857142705e+00,2.864605734553898550e-05,-1.314351772049544433e-05
2.793650793650793496e+00,2.214264019508452519e-05,9.965296631537409654e-07
2.794444444444444287e+00,1.403510959853120906e-05,1.382490736740453501e-05
2.795238095238095077e+00,4.522354091081519837e-06,2.354895552767131205e-05
2.796031746031745868e+00,-5.643247571055658014e-06,2.895630721271223482e-05
2.796825396825396659e+00,-1.513977388942174186e-05,2.959281469950478916e-05
2.797619047619047450e+00,-2.228282463845502286e-05,2.580789923575632476e-05
2.798412698412698241e+00,-2.543196639104833545e-05,1.865416618449336302e-05
2.799206349206349032e+00,-2.349552148364917524e-05,9.651864157750026681e-06
2.799999999999999822e+00,-1.637355020423389589e-05,4.575104410010336285e-07
2.800793650793650613e+00,-5.172632053900657279e-06,-7.494625726493338813e-06
2.801587301587301404e+00,7.910894710674792622e-06,-1.328897332243867048e-05
2.802380952380952195e+00,2.003379484644249222e-05,-1.667653485304912243e-05
2.803174603174602986e+00,2.836531939977067365e-05,-1.802326623374133477e-05
2.803968253968253777e+00,3.079331021573884726e-05,-1.807094238424633039e-05
2.804761904761904567e+00,2.649633026661043483e-05,-1.759015604613526498e-05
2.805555555555555358e+00,1.622640297901892874e-05,-1.704785738493889565e-05
2.806349206349206149e+00,2.204506341256560192e-06,-1.640956591523963547e-05
2.807142857142856940e+00,-1.237565620498298501e-05,-1.514955671522691206e-05
2.807936507936507731e+00,-2.412614425392760234e-05,-1.246935124893864355e-05
2.808730158730158522e+00,-3.032230423413836886e-05,-7.651825415142013252e-06
2.809523809523809312e+00,-2.960352904959029748e-05,-4.299500286298037818e-07
2.810317460317460103e+00,-2.232418186327422144e-05,8.758084944737106354e-06
2.811111111111110894e+00,-1.046175446357084348e-05,1.871966638388025466e-05
2.811904761904761685e+00,2.888719982138677329e-06,2.769092180357968973e-05
2.812698412698412920e+00,1.429642802196429527e-05,3.370685671377243893e-05
2.813492063492063711e+00,2.084607128909131239e-05,3.505977695305455050e-05
2.814285714285714501e+00,2.083878983293369186e-05,3.072718511512646691e-05
2.815079365079365292e+00,1.416903673387775604e-05,2.066434833497319499e-05
2.815873015873016083e+00,2.295837501636525868e-06,5.896489721974090095e-06
2.816666666666666874e+00,-1.216268934669548576e-05,-1.160161825424974465e-05
2.817460317460317665e+00,-2.608421065030122816e-05,-2.920159601699868828e-05
2.818253968253968456e+00,-3.655840290457977376e-05,-4.402853544160377405e-05
2.819047619047619246e+00,-4.147338841274713636e-05,-5.341639945417455635e-05
2.819841269841270037e+00,-3.984237961429726776e-05,-5.536304851265971480e-05
2.820634920634920828e+00,-3.184388697474903942e-05,-4.893716002508671732e-05
2.821428571428571619e+00,-1.864344093251710929e-05,-3.457158669981774132e-05
2.822222222222222410e+00,-2.103282242305469308e-06,-1.416230459209599557e-05
2.823015873015873201e+00,1.553493445041866249e-05,9.095780753062047039e-06
2.823809523809523991e+00,3.195228193096747864e-05,3.115764843704030258e-05
2.824603174603174782e+00,4.502364827136128733e-05,4.781412215996747148e-05
2.825396825396825573e+00,5.304537490272095312e-05,5.550026422605145300e-05
2.826190476190476364e+00,5.490522151800821817e-05,5.206549324618500225e-05
2.826984126984127155e+00,5.018767121392021856e-05,3.733056538289587252e-05
2.827777777777777946e+00,3.922082739249733714e-05,1.328077229657065484e-05
2.828571428571428736e+00,2.307477928266288771e-05,-1.618604976695831615e-05
2.829365079365079527e+00,3.505184807489743404e-06,-4.592591032258424536e-05
2.830158730158730318e+00,-1.718811125434594454e-05,-7.047652516003234397e-05
2.830952380952381109e+00,-3.642051789982700774e-05,-8.502629760227503988e-05
2.831746031746031900e+00,-5.169818947233686658e-05,-8.623234938109085497e-05
2.832539682539682691e+00,-6.104998300524045742e-05,-7.278148261774312585e-05
2.833333333333333481e+00,-6.341092009405971657e-05,-4.565323244075662252e-05
2.834126984126984272e+00,-5.884437026459878788e-05,-8.061671787110289276e-06
2.834920634920635063e+00,-4.852515365845836706e-05,3.493848805141515552e-05
2.835714285714285854e+00,-3.447348621918656285e-05,7.715731348843660534e-05
2.836507936507936645e+00,-1.910717195000859897e-05,1.122007422059971722e-04
2.837301587301587436e+00,-4.734864587060701502e-06,1.344889268080439837e-04
2.838095238095238226e+00,6.877625460913789777e-06,1.401990668956977525e-04
2.838888888888889017e+00,1.477275416059016850e-05,1.279710458712039148e-04
2.839682539682539808e+00,1.886290731625856626e-05,9.923613701253992773e-05
2.840476190476190599e+00,1.980828201145364947e-05,5.807626346701524455e-05
2.841269841269841390e+00,1.876567610310348963e-05,1.059327588215880284e-05
2.842063492063492181e+00,1.707379835691769527e-05,-3.614418826125731672e-05
2.842857142857142971e+00,1.593422562430337971e-05,-7.540939256821588602e-05
2.843650793650793762e+00,1.613381726078590083e-05,-1.021153594673074902e-04
2.844444444444444553e+00,1.784322521997578514e-05,-1.137726246176163448e-04
2.845238095238095344e+00,2.052033856244278709e-05,-1.108072719168891904e-04
2.846031746031746135e+00,2.294470907220309285e-05,-9.610365776475378134e-05
2.846825396825396925e+00,2.340327841666292323e-05,-7.390900580510567728e-05
2.847619047619047716e+00,2.003119019245731537e-05,-4.849713551043224820e-05
2.848412698412698507e+00,1.127863360754914622e-05,-2.308910532947178708e-05
2.849206349206349298e+00,-3.570945308576020107e-06,5.877651988683380224e-07
2.850000000000000089e+00,-2.395020059688212540e-05,2.199592777828059527e-05
2.850793650793650880e+00,-4.776767085186020632e-05,4.094893662802793230e-05
2.851587301587301670e+00,-7.150730134044056127e-05,5.668101593634985015e-05
2.852380952380952461e+00,-9.073563165109857736e-05,6.731689321619835646e-05
2.853174603174603252e+00,-1.009778831867324124e-04,7.007306062591913895e-05
2.853968253968254043e+00,-9.879486432537947340e-05,6.221559355627139377e-05
2.854761904761904834e+00,-8.278401039664431906e-05,4.246347425579819005e-05
2.855555555555555625e+00,-5.418979612457735362e-05,1.227578558718238798e-05
2.856349206349206415e+00,-1.687404958866594199e-05,-2.359859902396053117e-05
2.857142857142857206e+00,2.343561171732557889e-05,-5.772821073145252471e-05
2.857936507936507997e+00,6.046994492916660377e-05,-8.175653023695867762e-05
2.858730158730158788e+00,8.894541947414428597e-05,-8.882642792477526527e-05
2.859523809523809579e+00,1.058107524016527054e-04,-7.586895837160565284e-05
2.860317460317460370e+00,1.107938528813602163e-04,-4.491948663155649754e-05
2.861111111111111160e+00,1.060740276583716337e-04,-2.897371736739631665e-06
2.861904761904761951e+00,9.522937146376803563e-05,4.019888900508704495e-05
2.862698412698412742e+00,8.187052954979732338e-05,7.414083227531935970e-05
2.863492063492063533e+00,6.845948840807512185e-05,9.140732358419638524e-05
2.864285714285714324e+00,5.570406369686655497e-05,8.920712727388571380e-05
2.865079365079365115e+00,4.267711382945204722e-05,6.993796402651450471e-05
2.865873015873015905e+00,2.754008147771310985e-05,4.003166833130761731e-05
2.866666666666666696e+00,8.556482362529185863e-06,7.705061459701033466e-06
2.867460317460317487e+00,-1.497808503416914521e-05,-1.956465214376985448e-05
2.868253968253968278e+00,-4.218952158175720096e-05,-3.705856509661788596e-05
2.869047619047619069e+00,-7.060552530003635810e-05,-4.380809324285484148e-05
2.869841269841269860e+00,-9.662828335916731756e-05,-4.237488674936676347e-05
2.870634920634920650e+00,-1.163230426240638015e-04,-3.756484808992474584e-05
2.871428571428571441e+00,-1.262753228004769609e-04,-3.451341237353520080e-05
2.872222222222222232e+00,-1.242808675222769655e-04,-3.677025014979108772e-05
2.873015873015873023e+00,-1.097142898261469418e-04,-4.502350689172118911e-05
2.873809523809523814e+00,-8.354711636581659147e-05,-5.688973740832688897e-05
2.874603174603174605e+00,-4.810926694535540418e-05,-6.780179807963678386e-05
2.875396825396825395e+00,-6.755546629494483865e-06,-7.261492881943901081e-05
2.876190476190476186e+00,3.642447170226945053e-05,-6.731923564473480119e-05
2.876984126984126977e+00,7.681192504648187214e-05,-5.028531948208781577e-05
2.877777777777777768e+00,1.094474448123938657e-04,-2.271132322482462480e-05
2.878571428571428559e+00,1.293323575449815922e-04,1.175591871386141893e-05
2.879365079365079350e+00,1.319597750572737199e-04,4.800326390851461733e-05
2.880158730158730140e+00,1.141099294152454638e-04,8.068199536134222649e-05
2.880952380952380931e+00,7.480438464002651900e-05,1.053244378293752769e-04
2.881746031746031722e+00,1.616257435642249812e-05,1.190815413176224478e-04
2.882539682539682513e+00,-5.617767115561908504e-05,1.209876058016942218e-04
2.883333333333333304e+00,-1.333584629694083948e-04,1.118387271408761660e-04
2.884126984126984095e+00,-2.044133554715008906e-04,9.386069618586810874e-05
2.884920634920634885e+00,-2.580372948207843996e-04,7.028918119963231562e-05
2.885714285714285676e+00,-2.846373915151952831e-04,4.487164844019889977e-05
2.886507936507936467e+00,-2.781579385742198227e-04,2.127110886258078815e-05
2.887301587301587258e+00,-2.371917653640199771e-04,2.446441127638789679e-06
2.888095238095238049e+00,-1.650842281509852126e-04,-9.812374623481799347e-06
2.888888888888888840e+00,-6.906235506737842323e-05,-1.503744584642063475e-05
2.889682539682539630e+00,4.125195016618028905e-05,-1.391648088864854327e-05
2.890476190476190421e+00,1.554146888027420706e-04,-7.950751471156506281e-06
2.891269841269841212e+00,2.633537241175296344e-04,8.776811435482228832e-07
2.892063492063492003e+00,3.559844806288222762e-04,1.032693690623929952e-05
2.892857142857142794e+00,4.253869522969203933e-04,1.803231141925210003e-05
2.893650793650793585e+00,4.649265934451615018e-04,2.167544073634610231e-05
2.894444444444444375e+00,4.697046239547243013e-04,1.929545283278489139e-05
2.895238095238095166e+00,4.374665264026343344e-04,9.755203385122373496e-06
2.896031746031745957e+00,3.697275590123929949e-04,-6.757819334811638780e-06
2.896825396825396748e+00,2.726072954512606390e-04,-2.841237976266518104e-05
2.897619047619047539e+00,1.568394174874248735e-04,-5.181332258214136461e-05
2.898412698412698330e+00,3.664042382228491321e-05,-7.258904214915967018e-05
2.899206349206349120e+00,-7.251129750453534097e-05,-8.641337219839189949e-05
2.899999999999999911e+00,-1.567483474453989871e-04,-9.020208973560040790e-05
2.900793650793650702e+00,-2.066287794206669653e-04,-8.310918059704288806e-05
2.901587301587301493e+00,-2.191191307236913530e-04,-6.695947793393992214e-05
2.902380952380952284e+00,-1.981524502083029527e-04,-4.589816636546671799e-05
2.903174603174603075e+00,-1.535494939036303184e-04,-2.526907809084758856e-05
2.903968253968253865e+00,-9.857146218445287527e-05,-9.992660770638990485e-06
2.904761904761904656e+00,-4.679653670398009060e-05,-2.942895038928663439e-06
2.905555555555555447e+00,-9.211231229411764415e-06,-3.929839172825678668e-06
2.906349206349206238e+00,7.718988326638097366e-06,-9.763588453067164141e-06
2.907142857142857029e+00,2.633811033855564885e-06,-1.547775563829280031e-05
2.907936507936507819e+00,-2.137493075726578092e-05,-1.628784899027076020e-05
2.908730158730158610e+00,-5.820692139086629859e-05,-9.526053940845693302e-06
2.909523809523809401e+00,-1.004385804586480963e-04,4.191332009750942532e-06
2.910317460317460192e+00,-1.408040509558287651e-04,2.098128364023655018e-05
2.911111111111110983e+00,-1.732376072987473368e-04,3.486632245670458186e-05
2.911904761904761774e+00,-1.934551175565977403e-04,3.969694533316050025e-05
2.912698412698412564e+00,-1.991829235504769305e-04,3.122136382550890263e-05
2.913492063492063355e+00,-1.901633467130338275e-04,8.692963184762565019e-06
2.914285714285714146e+00,-1.680092466290973498e-04,-2.444430531927083055e-05
2.915079365079364937e+00,-1.359120130922932771e-04,-6.099940163707185704e-05
2.915873015873015728e+00,-9.818286641058868928e-05,-9.151923315715085599e-05
2.916666666666666519e+00,-5.963812895179549062e-05,-1.064662147553339656e-04
2.917460317460317309e+00,-2.489587417764331281e-05,-9.858165154867948061e-05
2.918253968253968100e+00,2.308003597641998874e-06,-6.490166169883613970e-05
2.919047619047618891e+00,1.967355030033485807e-05,-7.964555020957368985e-06
2.919841269841269682e+00,2.667264012882401323e-05,6.411864955978064968e-05
2.920634920634920473e+00,2.460314978175021626e-05,1.388658581996929299e-04
2.921428571428571264e+00,1.632120024628224488e-05,2.017731641749444260e-04
2.922222222222222054e+00,5.658327366701141745e-06,2.393925993697832441e-04
2.923015873015872845e+00,-3.391076933955554484e-06,2.424605852537798528e-04
2.923809523809523636e+00,-7.545834100792890875e-06,2.082673675441375845e-04
2.924603174603174427e+00,-4.968824546648402523e-06,1.415438230065586790e-04
2.925396825396825218e+00,4.336823223387887506e-06,5.349328008568659517e-05
2.926190476190476009e+00,1.857571803535502472e-05,-4.084811720649768037e-05
2.926984126984126799e+00,3.464655829135493902e-05,-1.261697640076103548e-04
2.927777777777777590e+00,4.894919056123991918e-05,-1.902811270113801084e-04
2.928571428571428381e+00,5.831499277924043288e-05,-2.263412042774848407e-04
2.929365079365079172e+00,6.082502474045142191e-05,-2.333899622888544465e-04
2.930158730158729963e+00,5.629384717893678910e-05,-2.152893205927221742e-04
2.930952380952380754e+00,4.627995659998477375e-05,-1.787054282432574016e-04
2.931746031746031544e+00,3.362834077440395199e-05,-1.309614664901420829e-04
2.932539682539682335e+00,2.169890286055051773e-05,-7.843367632563193192e-05
2.933333333333333126e+00,1.351640504709025314e-05,-2.580136760836465300e-05
2.934126984126983917e+00,1.106753707849607792e-05,2.389910058315307972e-05
2.934920634920634708e+00,1.489572246825533484e-05,6.869586396392709843e-05
2.935714285714285499e+00,2.404880866932713009e-05,1.069426187809458147e-04
2.936507936507936289e+00,3.634992844866906852e-05,1.367617892540970827e-04
2.937301587301587080e+00,4.890093606884632615e-05,1.559097351545205392e-04
2.938095238095238315e+00,5.869682717755756449e-05,1.621346722039628788e-04
2.938888888888889106e+00,6.323018343641906563e-05,1.539026953511180799e-04
2.939682539682539897e+00,6.098714526376329575e-05,1.312127762786068151e-04
2.940476190476190688e+00,5.176060585333519841e-05,9.616875174018442928e-05
2.941269841269841478e+00,3.672166729086792333e-05,5.304979104148372005e-05
2.942063492063492269e+00,1.821144874341168102e-05,7.790241749206927720e-06
2.942857142857143060e+00,-7.340688089204375887e-07,-3.303126021306951896e-05
2.943650793650793851e+00,-1.703562723638567285e-05,-6.345689191157734667e-05
2.944444444444444642e+00,-2.824310438578787953e-05,-7.937008552545151514e-05
2.945238095238095433e+00,-3.306518447418562475e-05,-7.937336333427998070e-05
2.946031746031746223e+00,-3.164621618637370202e-05,-6.509165934090738322e-05
2.946825396825397014e+00,-2.555666729035443942e-05,-4.080853092222760876e-05
2.947619047619047805e+00,-1.752092047809569036e-05,-1.252298787158043943e-05
2.948412698412698596e+00,-1.093079846845525604e-05,1.333596687462039975e-05
2.949206349206349387e+00,-9.197927498949976321e-06,3.123587441592861605e-05
2.950000000000000178e+00,-1.500505957247165506e-05,3.762886434411539816e-05
2.950793650793650968e+00,-2.954454612291290079e-05,3.159529841721050314e-05
2.951587301587301759e+00,-5.188434981670764440e-05,1.493173707342024420e-05
2.952380952380952550e+00,-7.865592940346212111e-05,-8.323873821955431830e-06
2.953174603174603341e+00,-1.042700065914418863e-04,-3.282663396895483447e-05
2.953968253968254132e+00,-1.217903250862027194e-04,-5.311773036363535413e-05
2.954761904761904923e+00,-1.244173887648318349e-04,-6.482131143938316153e-05
2.955555555555555713e+00,-1.072967060314995784e-04,-6.559621884595389144e-05
2.956349206349206504e+00,-6.916438869837835182e-05,-5.564578726193198901e-05
2.957142857142857295e+00,-1.327984921602575670e-05,-3.766559315016026094e-05
2.957936507936508086e+00,5.277212398889033766e-05,-1.620196257966115066e-05
2.958730158730158877e+00,1.185147138823632008e-04,3.488819990295885383e-06
2.959523809523809668e+00,1.729446427585649764e-04,1.684675067211918601e-05
2.960317460317460458e+00,2.071675159622437591e-04,2.131036211556432472e-05
2.961111111111111249e+00,2.164978460415168575e-04,1.709446992238725026e-05
2.961904761904762040e+00,2.013909698676030801e-04,7.127018259773385094e-06
2.962698412698412831e+00,1.669920800309388290e-04,-3.908471490053981049e-06
2.963492063492063622e+00,1.215435570076174099e-04,-1.114603489916354190e-05
2.964285714285714413e+00,7.419532264262644595e-05,-1.119131197780347644e-05
2.965079365079365203e+00,3.285130384807007802e-05,-3.264879207590618636e-06
2.965873015873015994e+00,2.594814881716000977e-06,1.058022958818497433e-05
2.966666666666666785e+00,-1.497334313978265099e-05,2.623542788034824734e-05
2.967460317460317576e+00,-2.142226417941844576e-05,3.899696631178233805e-05
2.968253968253968367e+00,-2.041410289613549504e-05,4.514987033127265860e-05
2.969047619047619158e+00,-1.627068543424370432e-05,4.310703691544085029e-05
2.969841269841269948e+00,-1.264969978488378258e-05,3.375350053153141066e-05
2.970634920634920739e+00,-1.170012775767760413e-05,1.997186522459541610e-05
2.971428571428571530e+00,-1.386167908253731019e-05,5.616963499262852547e-06
2.972222222222222321e+00,-1.824327483903759068e-05,-5.639815808001453026e-06
2.973015873015873112e+00,-2.334218543251046651e-05,-1.120884837165526847e-05
2.973809523809523903e+00,-2.779802530954560429e-05,-1.001612575976365491e-05
2.974603174603174693e+00,-3.091911215685353369e-05,-2.486554118304009280e-06
2.975396825396825484e+00,-3.283926646348712779e-05,9.759466658487383049e-06
2.976190476190476275e+00,-3.431179800801065509e-05,2.430668589284505746e-05
2.976984126984127066e+00,-3.627416079738947412e-05,3.832936792368665314e-05
2.977777777777777857e+00,-3.937877682854112448e-05,4.894970356222990755e-05
2.978571428571428648e+00,-4.366673501051096290e-05,5.361775290281051631e-05
2.979365079365079438e+00,-4.848517865633920117e-05,5.054106574372189102e-05
2.980158730158730229e+00,-5.265805112048668523e-05,3.911774283864146785e-05
2.980952380952381020e+00,-5.484124275015961282e-05,2.024560248678690429e-05
2.981746031746031811e+00,-5.393980606083164086e-05,-3.655119253897429944e-06
2.982539682539682602e+00,-4.944984388914667973e-05,-2.901601601331796183e-05
2.983333333333333393e+00,-4.161921637240675631e-05,-5.185982467925696405e-05
2.984126984126984183e+00,-3.138807930240401767e-05,-6.870390700225698750e-05
2.984920634920634974e+00,-2.014478977518919888e-05,-7.733667722407935234e-05
2.985714285714285765e+00,-9.386945997332875221e-06,-7.722471072350353260e-05
2.986507936507936556e+00,-3.949405291460887002e-07,-6.945821726171396153e-05
2.987301587301587347e+00,5.994742164680675279e-06,-5.630440049504937080e-05
2.988095238095238138e+00,9.474954910660279164e-06,-4.054736172044103818e-05
2.988888888888888928e+00,1.022110726715599261e-05,-2.482556922144767725e-05
2.989682539682539719e+00,8.756548616140601645e-06,-1.113727206065184940e-05
2.990476190476190510e+00,5.785716249726417475e-06,-5.997532405212644538e-07
2.991269841269841301e+00,2.042743532834383239e-06,6.539130381849703414e-06
2.992063492063492092e+00,-1.814248084070797417e-06,1.070089668763309853e-05
2.992857142857142883e+00,-5.253599795476701862e-06,1.268041221730002703e-05
2.993650793650793673e+00,-7.874796835496602744e-06,1.334554815295250944e-05
2.994444444444444464e+00,-9.388484120436356621e-06,1.340277072449516860e-05
2.995238095238095255e+00,-9.594118763884755300e-06,1.326780967674762706e-05
2.996031746031746046e+00,-8.372550993385385269e-06,1.304914728466110766e-05
2.996825396825396837e+00,-5.705575818082114979e-06,1.262613551804190314e-05
2.997619047619047628e+00,-1.726975367964303440e-06,1.178489220576602528e-05
2.998412698412698418e+00,3.207723696311609227e-06,1.036407854762508894e-05
2.999206349206349209e+00,8.470128130239605070e-06,8.361893796902194573e-06
3.000000000000000000e+00,1.317731012781772986e-05,5.969912514146170445e-06
3.000793650793650791e+00,1.631518153103416773e-05,3.527892596871886126e-06
3.001587301587301582e+00,1.696150257176799403e-05,1.423945870574468534e-06
3.002380952380952372e+00,1.455770803566454055e-05,-1.919338708903546077e-08
3.003174603174603163e+00,9.149778566077851233e-06,-6.327744958383862442e-07
3.003968253968253954e+00,1.514106916274477142e-06,-4.382849054703751134e-07
3.004761904761904745e+00,-6.896201606345816699e-06,3.806028573661508969e-07
3.005555555555555536e+00,-1.420797160944140919e-05,1.562349997556195767e-06
3.006349206349206327e+00,-1.855188799624698154e-05,2.875577136830365150e-06
3.007142857142857117e+00,-1.855491184424160533e-05,4.200830404849548893e-06
3.007936507936507908e+00,-1.376032631853492773e-05,5.542069100947608778e-06
3.008730158730158699e+00,-4.837314306760960270e-06,6.956836872651217524e-06
3.009523809523809490e+00,6.504880849275307368e-06,8.438415432431217313e-06
3.010317460317460281e+00,1.789633479079493308e-05,9.813406473403808568e-06
3.011111111111111072e+00,2.688620745439238580e-05,1.071503326649306050e-05
3.011904761904761862e+00,3.156325146564049525e-05,1.065679967602363928e-05
3.012698412698412653e+00,3.103765228321526238e-05,9.184090899187730451e-06
3.013492063492063444e+00,2.564196397406807038e-05,6.048110054381170758e-06
3.014285714285714235e+00,1.679561992846181342e-05,1.339492687895825954e-06
3.015079365079365026e+00,6.584914348817861348e-06,-4.464829869134868655e-06
3.015873015873015817e+00,-2.803024597621091847e-06,-1.055866519607892375e-05
3.016666666666666607e+00,-9.620296562482381930e-06,-1.595416350164823867e-05
3.017460317460317398e+00,-1.292657455762713554e-05,-1.968478466943543185e-05
3.018253968253968189e+00,-1.270845416718851463e-05,-2.101833738673802138e-05
3.019047619047618980e+00,-9.754356905416921474e-06,-1.963281680000645381e-05
3.019841269841269771e+00,-5.356073347129665751e-06,-1.571053426907179735e-05
3.020634920634920562e+00,-9.411310364676930634e-07,-9.916891880435866274e-06
3.021428571428571352e+00,2.262304890023542519e-06,-3.255348908569264532e-06
3.022222222222222143e+00,3.455114421506450604e-06,3.171614951837780776e-06
3.023015873015872934e+00,2.360744771859711334e-06,8.428646180322477605e-06
3.023809523809523725e+00,-8.074417920711447041e-07,1.195832364402879587e-05
3.024603174603174516e+00,-5.469372754235622275e-06,1.367143328951415158e-05
3.025396825396825307e+00,-1.085024437364356528e-05,1.389459563067003477e-05
3.026190476190476097e+00,-1.616447049282130103e-05,1.320245197962392933e-05
3.026984126984126888e+00,-2.077935255401478252e-05,1.219737648369376045e-05
3.027777777777777679e+00,-2.432808454672400703e-05,1.131005265446596714e-05
3.028571428571428470e+00,-2.674794917020115298e-05,1.067860048983426742e-05
3.029365079365079261e+00,-2.823502881572259438e-05,1.013201336501094518e-05
3.030158730158730052e+00,-2.912693295052170967e-05,9.269886612265251013e-06
3.030952380952380842e+00,-2.974184738185318858e-05,7.606281821742175710e-06
3.031746031746031633e+00,-3.021259990625126013e-05,4.735932256361519546e-06
3.032539682539682424e+00,-3.036013211460924485e-05,4.846877906794975178e-07
3.033333333333333215e+00,-2.965112039557929699e-05,-4.983485487392325537e-06
3.034126984126984006e+00,-2.727277040583700758e-05,-1.112298508318586132e-05
3.034920634920634797e+00,-2.232740230266561202e-05,-1.704537030097588756e-05
3.035714285714285587e+00,-1.410535377479901286e-05,-2.165614763196129657e-05
3.036507936507936378e+00,-2.356713691240985565e-06,-2.388684941715041500e-05
3.037301587301587169e+00,1.252697708444024450e-05,-2.298350005671415935e-05
3.038095238095237960e+00,2.948188719478255900e-05,-1.877375443266824168e-05
3.038888888888888751e+00,4.689978855889507462e-05,-1.181817677916414009e-05
3.039682539682539542e+00,6.287226319638985724e-05,-3.372376144333850375e-06
3.040476190476190332e+00,7.548582084562613012e-05,4.858119156829154355e-06
3.041269841269841123e+00,8.311003816411602785e-05,1.111993453278166355e-05
3.042063492063491914e+00,8.464134280071239531e-05,1.406361283351452993e-05
3.042857142857142705e+00,7.968053818233053801e-05,1.311204630355766524e-05
3.043650793650793496e+00,6.862812632674928053e-05,8.628852775022700469e-06
3.044444444444444287e+00,5.268254914422422865e-05,1.827025196720798105e-06
3.045238095238095077e+00,3.372829379886981477e-05,-5.560587193970046893e-06
3.046031746031745868e+00,1.410941418802210097e-05,-1.175026318618650569e-05
3.046825396825396659e+00,-3.695879191848351839e-06,-1.537207811743674871e-05
3.047619047619047450e+00,-1.745629106662699459e-05,-1.578861492017845527e-05
3.048412698412698241e+00,-2.555925024147414240e-05,-1.317354330508137363e-05
3.049206349206349032e+00,-2.730342106196443196e-05,-8.334095738188640974e-06
3.049999999999999822e+00,-2.305194706025369604e-05,-2.348068352853886700e-06
3.050793650793650613e+00,-1.420578387909545561e-05,3.847103216598208335e-06
3.051587301587301404e+00,-2.984240075467346565e-06,9.755778158947650734e-06
3.052380952380952195e+00,7.963137831705492632e-06,1.539830573745520353e-05
3.053174603174602986e+00,1.604827284904683608e-05,2.112701940377983495e-05
3.053968253968253777e+00,1.924156767842755470e-05,2.725523749598555387e-05
3.054761904761904567e+00,1.646347553962953977e-05,3.365189121466832101e-05
3.055555555555555358e+00,7.778141487239951252e-06,3.948540025486917783e-05
3.056349206349206149e+00,-5.653436717662611899e-06,4.326303510436058965e-05
3.057142857142856940e+00,-2.183600472691045477e-05,4.320818724307772240e-05
3.057936507936507731e+00,-3.833735894831269880e-05,3.787942826317642844e-05
3.058730158730158522e+00,-5.271957154598758838e-05,2.681821137982110022e-05
3.059523809523809312e+00,-6.292238432258133278e-05,1.097085203780159878e-05
3.060317460317460103e+00,-6.755237279729618628e-05,-7.310746271985728637e-06
3.061111111111110894e+00,-6.605704366127924422e-05,-2.474289821854683090e-05
3.061904761904761685e+00,-5.876997118019271590e-05,-3.793825553947227462e-05
3.062698412698412920e+00,-4.681312205877594243e-05,-4.433310110947240854e-05
3.063492063492063711e+00,-3.185506159700696058e-05,-4.291876881684681967e-05
3.064285714285714501e+00,-1.575763914858583153e-05,-3.455091905942880750e-05
3.065079365079365292e+00,-1.873599856614642578e-07,-2.175295174036190985e-05
3.065873015873016083e+00,1.370418145442819704e-05,-8.083929763818223114e-06
3.066666666666666874e+00,2.543394567511100907e-05,2.748255857582867802e-06
3.067460317460317665e+00,3.512366349345286289e-05,7.803724875092368999e-06
3.068253968253968456e+00,4.323584913591789947e-05,5.645095364496300403e-06
3.069047619047619246e+00,5.019640863525717475e-05,-3.275482853814537559e-06
3.069841269841270037e+00,5.603628620541579558e-05,-1.667358559463368478e-05
3.070634920634920828e+00,6.018595285855640167e-05,-3.094354946116980557e-05
3.071428571428571619e+00,6.150915521075617730e-05,-4.202709860112866836e-05
3.072222222222222410e+00,5.858326240793110268e-05,-4.643628117288164979e-05
3.073015873015873201e+00,5.015212585348012721e-05,-4.215856606128752987e-05
3.073809523809523991e+00,3.562027237239408320e-05,-2.918486263020970254e-05
3.074603174603174782e+00,1.543964501269907722e-05,-9.508679513847348701e-06
3.075396825396825573e+00,-8.736130736430815138e-06,1.339017688130268767e-05
3.076190476190476364e+00,-3.419806260263884588e-05,3.540889719235781880e-05
3.076984126984127155e+00,-5.761810553005522419e-05,5.277652563450824761e-05
3.077777777777777946e+00,-7.567715826121617164e-05,6.284644791708241321e-05
3.078571428571428736e+00,-8.571498761335673636e-05,6.454700166415568781e-05
3.079365079365079527e+00,-8.621794288295296660e-05,5.842448712008935702e-05
3.080158730158730318e+00,-7.702637961112660837e-05,4.632973201771182364e-05
3.080952380952381109e+00,-5.925896386134773132e-05,3.088619990026068716e-05
3.081746031746031900e+00,-3.504586241604068151e-05,1.490803463271295068e-05
3.082539682539682691e+00,-7.187649518103818991e-06,9.032332810348788174e-07
3.083333333333333481e+00,2.118267245466983354e-05,-9.274867204692511226e-06
3.084126984126984272e+00,4.691553130503143800e-05,-1.463012105808677668e-05
3.084920634920635063e+00,6.715283493001420183e-05,-1.510883237881172227e-05
3.085714285714285854e+00,7.963659841742631049e-05,-1.158402161660096482e-05
3.086507936507936645e+00,8.299647443131007748e-05,-5.727498666987392064e-06
3.087301587301587436e+00,7.696576278599717301e-05,2.573623617154073736e-07
3.088095238095238226e+00,6.246653871614765404e-05,4.055508238533923821e-06
3.088888888888889017e+00,4.152019702980082252e-05,3.777565842352647366e-06
3.089682539682539808e+00,1.697343644195384416e-05,-1.491034138130447475e-06
3.090476190476190599e+00,-7.929653131612547962e-06,-1.129512477173939267e-05
3.091269841269841390e+00,-3.006160948095572418e-05,-2.374357206032206888e-05
3.092063492063492181e+00,-4.691776372927001631e-05,-3.587488059741301836e-05
3.092857142857142971e+00,-5.701042239081230016e-05,-4.441663363371727556e-05
3.093650793650793762e+00,-6.005775515452161484e-05,-4.674428576252689395e-05
3.094444444444444553e+00,-5.691163509382410633e-05,-4.174301112584102196e-05
3.095238095238095344e+00,-4.923465885088930177e-05,-3.027594104807857409e-05
3.096031746031746135e+00,-3.901720746487422157e-05,-1.507024402306031665e-05
3.096825396825396925e+00,-2.808528362787201900e-05,-1.626313778587040422e-08
3.097619047619047716e+00,-1.775050777528322036e-05,1.093168084827890325e-05
3.098412698412698507e+00,-8.688058612627601530e-06,1.493255667852484083e-05
3.099206349206349298e+00,-1.031606431957100149e-06,1.116252273850529958e-05
3.100000000000000089e+00,5.403450129161489220e-06,1.161790634856445759e-06
3.100793650793650880e+00,1.088387563006517749e-05,-1.151056093477340240e-05
3.101587301587301670e+00,1.559884879880296419e-05,-2.224402492581568984e-05
3.102380952380952461e+00,1.960908721678345911e-05,-2.668785385362189508e-05
3.103174603174603252e+00,2.288294734125085770e-05,-2.200174642160996740e-05
3.103968253968254043e+00,2.536968416688840957e-05,-7.670892673708140406e-06
3.104761904761904834e+00,2.706149594762653060e-05,1.431889772397200560e-05
3.105555555555555625e+00,2.801373628154643766e-05,3.993623198715614105e-05
3.106349206349206415e+00,2.831387296673801182e-05,6.402209129588401113e-05
3.107142857142857206e+00,2.801057691057826034e-05,8.143230469858250234e-05
3.107936507936507997e+00,2.703483993564814245e-05,8.815537252474926028e-05
3.108730158730158788e+00,2.515905574037591850e-05,8.217926805399051722e-05
3.109523809523809579e+00,2.203430657042978791e-05,6.393492895437369891e-05
3.110317460317460370e+00,1.731351798372784867e-05,3.623633420143830959e-05
3.111111111111111160e+00,1.082126703583737678e-05,3.752912675199868458e-06
3.111904761904761951e+00,2.698694303846335282e-06,-2.785461638001185148e-05
3.112698412698412742e+00,-6.542264436119680016e-06,-5.296675672817740144e-05
3.113492063492063533e+00,-1.607898472544442981e-05,-6.704701638272953402e-05
3.114285714285714324e+00,-2.492438553630957340e-05,-6.754215224105413905e-05
3.115079365079365115e+00,-3.210101847675144983e-05,-5.447746928140706247e-05
3.115873015873015905e+00,-3.678972278711671443e-05,-3.058615952005519354e-05
3.116666666666666696e+00,-3.842650199567576900e-05,-8.795242770468641959e-07
3.117460317460317487e+00,-3.674687435866353936e-05,2.829881243794982729e-05
3.118253968253968278e+00,-3.179096323180058116e-05,5.054530886502512705e-05
3.119047619047619069e+00,-2.388983358372174398e-05,6.072058006371479539e-05
3.119841269841269860e+00,-1.365586959656114855e-05,5.604796843783213869e-05
3.120634920634920650e+00,-1.989774461256531967e-06,3.675730660282368323e-05
3.121428571428571441e+00,9.908092759860985849e-06,6.106061177469310422e-06
3.122222222222222232e+00,2.056049234930270163e-05,-3.030510792807882968e-05
3.123015873015873023e+00,2.831711238653321586e-05,-6.585455297818910091e-05
3.123809523809523814e+00,3.156763695452366876e-05,-9.456507489510430572e-05
3.124603174603174605e+00,2.905147147931203000e-05,-1.125998833823749104e-04
3.125396825396825395e+00,2.020395143939346686e-05,-1.190320304178120084e-04
3.126190476190476186e+00,5.443293487113957936e-06,-1.155721918385279977e-04
3.126984126984126977e+00,-1.370551681706097263e-05,-1.053809283610593431e-04
3.127777777777777768e+00,-3.472630177366684560e-05,-9.148349347037708747e-05
3.128571428571428559e+00,-5.448185309901505040e-05,-7.544291278171669354e-05
3.129365079365079350e+00,-6.977253890089628785e-05,-5.680440327047219174e-05
3.130158730158730140e+00,-7.794456212615347049e-05,-3.351035254733470521e-05
3.130952380952380931e+00,-7.738102880167478680e-05,-3.135829483583883547e-06
3.131746031746031722e+00,-6.774803867657694476e-05,3.548984721041550884e-05
3.132539682539682513e+00,-4.996271892459589430e-05,8.086905410559065504e-05
3.133333333333333304e+00,-2.595475303116867016e-05,1.282113971811973377e-04
3.134126984126984095e+00,1.648484514066727050e-06,1.699672541595788344e-04
3.134920634920634885e+00,2.980189453148617470e-05,1.975024205974153018e-04
3.135714285714285676e+00,5.525587042053307305e-05,2.034690254938567133e-04
3.136507936507936467e+00,7.475511623809064359e-05,1.841330851022463292e-04
3.137301587301587258e+00,8.530859927649485992e-05,1.408766096047681788e-04
3.138095238095238049e+00,8.457956413411839790e-05,8.031470729273489605e-05
3.138888888888888840e+00,7.136138141552466241e-05,1.288697285176285599e-05
3.139682539682539630e+00,4.602037414968832609e-05,-4.972052046397122877e-05
3.140476190476190421e+00,1.074537943771801576e-05,-9.755004970549656764e-05
3.141269841269841212e+00,-3.052818981447943833e-05,-1.247991399776225468e-04
3.142063492063492003e+00,-7.256208934719171469e-05,-1.309140651637993652e-04
3.142857142857142794e+00,-1.095565554805325628e-04,-1.200161757099057157e-04
3.143650793650793585e+00,-1.360301452156702012e-04,-9.892318174468915106e-05
3.144444444444444375e+00,-1.476428977995293209e-04,-7.455048080380225839e-05
3.145238095238095166e+00,-1.417918293488174030e-04,-5.170092309864286295e-05
3.146031746031745957e+00,-1.178840240098876500e-04,-3.205032458610425751e-05
3.146825396825396748e+00,-7.729398416906767310e-05,-1.458705488251328088e-05
3.147619047619047539e+00,-2.309474880988795275e-05,2.874074486881486145e-06
3.148412698412698330e+00,4.032141739250891125e-05,2.190486299111679252e-05
3.149206349206349120e+00,1.076498004930206368e-04,4.222223648014073003e-05
3.149999999999999911e+00,1.730801661359788514e-04,6.146040587184215497e-05
3.150793650793650702e+00,2.307134352433970264e-04,7.593751528060498361e-05
3.151587301587301493e+00,2.750059270372313090e-04,8.202694094095488954e-05
3.152380952380952284e+00,3.012555673027852618e-04,7.759591791746404856e-05
3.153174603174603075e+00,3.061352522558859614e-04,6.300549977492639689e-05
3.153968253968253865e+00,2.882430214204287832e-04,4.130789723668912338e-05
3.154761904761904656e+00,2.485626314279944411e-04,1.751265605846305989e-05
3.155555555555555447e+00,1.906462161442786809e-04,-2.891874870111745991e-06
3.156349206349206238e+00,1.203225489265973914e-04,-1.566491764702445966e-05
3.157142857142857029e+00,4.485711975268652106e-05,-1.913945723456928911e-05
3.157936507936507819e+00,-2.829314245071130337e-05,-1.463513883027340985e-05
3.158730158730158610e+00,-9.279737151041215484e-05,-5.833711219628679585e-06
3.159523809523809401e+00,-1.444540391378038068e-04,2.574181379763358545e-06
3.160317460317460192e+00,-1.815984799341678114e-04,6.418300216826721060e-06
3.161111111111110983e+00,-2.048332557738387360e-04,3.229272325104228702e-06
3.161904761904761774e+00,-2.162123067904683782e-04,-7.234182298227450444e-06
3.162698412698412564e+00,-2.181765504927295728e-04,-2.313149589996971466e-05
3.163492063492063355e+00,-2.126188342869197708e-04,-4.114857037408422609e-05
3.164285714285714146e+00,-2.004132253929934474e-04,-5.727187207503055087e-05
3.165079365079364937e+00,-1.815709002860813189e-04,-6.751675674219509329e-05
3.165873015873015728e+00,-1.559354076157457123e-04,-6.855796720622224592e-05
3.166666666666666519e+00,-1.240996411299261591e-04,-5.830456410027426645e-05
3.167460317460317309e+00,-8.810730141786790766e-05,-3.643389066915631589e-05
3.168253968253968100e+00,-5.154812744331362161e-05,-4.801119464617946066e-06
3.169047619047618891e+00,-1.887250349218771574e-05,3.244092332890412598e-05
3.169841269841269682e+00,5.922590004892802801e-06,6.918289624984250543e-05
3.170634920634920473e+00,2.076895195749006172e-05,9.824837282146841157e-05
3.171428571428571264e+00,2.653635237876014472e-05,1.127720451153708546e-04
3.172222222222222054e+00,2.704427313360415413e-05,1.078386589556850549e-04
3.173015873015872845e+00,2.789658198330728178e-05,8.199989937581909764e-05
3.173809523809523636e+00,3.444580853547599770e-05,3.819418671072141502e-05
3.174603174603174427e+00,4.961208508582830138e-05,-1.635751989701697724e-05
3.175396825396825218e+00,7.243023762917535262e-05,-7.146014917544971329e-05
3.176190476190476009e+00,9.797614123775174417e-05,-1.162346314742011616e-04
3.176984126984126799e+00,1.188021901101649611e-04,-1.417711000933985033e-04
3.177777777777777590e+00,1.274156682727433753e-04,-1.433412293497081792e-04
3.178571428571428381e+00,1.189228168680569721e-04,-1.215020208444569688e-04
3.179365079365079172e+00,9.290067073689875650e-05,-8.181127776599070268e-05
3.180158730158729963e+00,5.385286071692652282e-05,-3.331458073938663330e-05
3.180952380952380754e+00,1.011344839049044394e-05,1.372455431779761540e-05
3.181746031746031544e+00,-2.842437548893238776e-05,5.025487573645972525e-05
3.182539682539682335e+00,-5.303762770842826614e-05,7.045725863668234935e-05
3.183333333333333126e+00,-5.855881157298405240e-05,7.290528197709756286e-05
3.184126984126983917e+00,-4.476849448054741234e-05,6.060826829139733793e-05
3.184920634920634708e+00,-1.645538671403799357e-05,3.992901535327143272e-05
3.185714285714285499e+00,1.783323821543185723e-05,1.865076572210998571e-05
3.186507936507936289e+00,4.799715860119341173e-05,3.714935574368248292e-06
3.187301587301587080e+00,6.495908953335833343e-05,-7.275257606813561372e-07
3.188095238095238315e+00,6.294508374997416077e-05,5.617075383236517152e-06
3.188888888888889106e+00,4.089904229038376264e-05,1.929403837514906194e-05
3.189682539682539897e+00,2.701193395451158484e-06,3.429252414531316727e-05
3.190476190476190688e+00,-4.382985848825090940e-05,4.388896385513342644e-05
3.191269841269841478e+00,-8.887438732863687271e-05,4.255789224269065289e-05
3.192063492063492269e+00,-1.229852497227727228e-04,2.743507243115570220e-05
3.192857142857143060e+00,-1.392839605322871734e-04,-9.767404542062634306e-07
3.193650793650793851e+00,-1.349072924712204475e-04,-3.893272690316691020e-05
3.194444444444444642e+00,-1.113464464962234991e-04,-8.026875147135294284e-05
3.195238095238095433e+00,-7.366390953692876682e-05,-1.176469113860496553e-04
3.196031746031746223e+00,-2.892941803487535216e-05,-1.439089577516749162e-04
3.196825396825397014e+00,1.555815675372867926e-05,-1.532969058197110725e-04
3.197619047619047805e+00,5.369892393150905221e-05,-1.424243975277102571e-04
3.198412698412698596e+00,8.133331505319000014e-05,-1.109513616171435666e-04
3.199206349206349387e+00,9.630008223669568016e-05,-6.188946167052126004e-05
3.200000000000000178e+00,9.809465903579796611e-05,-1.413685069758547711e-06
3.200793650793650968e+00,8.749229396412156758e-05,6.192959400698835491e-05
3.201587301587301759e+00,6.636316030293637242e-05,1.186096982775760358e-04
3.202380952380952550e+00,3.766451508517397332e-05,1.598995261149580450e-04
3.203174603174603341e+00,5.411559015383372273e-06,1.796930130120484180e-04
3.203968253968254132e+00,-2.559334460934757887e-05,1.758952405573031581e-04
3.204761904761904923e+00,-5.037018497573720872e-05,1.509807137178187809e-04
3.205555555555555713e+00,-6.463367408783045201e-05,1.114982489639377992e-04
3.206349206349206504e+00,-6.571781076752979470e-05,6.656833668515248551e-05
3.207142857142857295e+00,-5.328407348011020728e-05,2.570656355463019866e-05
3.207936507936508086e+00,-2.957209313884868513e-05,-3.469226038718560043e-06
3.208730158730158877e+00,9.381821992079443488e-07,-1.702190574277215047e-05
3.209523809523809668e+00,3.241461961315108225e-05,-1.547629702456806324e-05
3.210317460317460458e+00,5.890139453183635657e-05,-3.400100630087777834e-06
3.211111111111111249e+00,7.557523818340780521e-05,1.207034143303262869e-05
3.211904761904762040e+00,7.972477415249801778e-05,2.332522665800463224e-05
3.212698412698412831e+00,7.124587270977307259e-05,2.439911222392842421e-05
3.213492063492063622e+00,5.257118058169471406e-05,1.251911064030489435e-05
3.214285714285714413e+00,2.805977003834013645e-05,-1.132571990475272772e-05
3.215079365079365203e+00,2.964266621488431893e-06,-4.289688105615932853e-05
3.215873015873015994e+00,-1.781416545234338047e-05,-7.606996724936661302e-05
3.216666666666666785e+00,-3.088951537985621862e-05,-1.045601803644557402e-04
3.217460317460317576e+00,-3.515556105840985990e-05,-1.234391508040064709e-04
3.218253968253968367e+00,-3.191539603782573192e-05,-1.300210030695789004e-04
3.219047619047619158e+00,-2.432449955799554216e-05,-1.240040001606053214e-04
3.219841269841269948e+00,-1.631849863677552499e-05,-1.070410582774695003e-04
3.220634920634920739e+00,-1.136713983534657937e-05,-8.202963701549269271e-05
3.221428571428571530e+00,-1.145060942969373386e-05,-5.236340198076589391e-05
3.222222222222222321e+00,-1.657590786112839962e-05,-2.128960591723902298e-05
3.223015873015873112e+00,-2.496272982425743752e-05,8.543617302691103614e-06
3.223809523809523903e+00,-3.379077952547859760e-05,3.529184061168716971e-05
3.224603174603174693e+00,-4.020443103776420057e-05,5.785481441979372188e-05
3.225396825396825484e+00,-4.220212085577340069e-05,7.561278062124354271e-05
3.226190476190476275e+00,-3.912538561089567459e-05,8.809491042615057990e-05
3.226984126984127066e+00,-3.165310446270924494e-05,9.474570533539358177e-05
3.227777777777777857e+00,-2.139998678228764625e-05,9.491580615417733000e-05
3.228571428571428648e+00,-1.033108004111513379e-05,8.810658310898743240e-05
3.229365079365079438e+00,-2.103441896507069275e-07,7.437739359079077414e-05
3.230158730158730229e+00,7.769808846086045663e-06,5.472972169572939966e-05
3.230952380952381020e+00,1.312765972425477874e-05,3.126538776083003657e-05
3.231746031746031811e+00,1.602845679670537380e-05,6.997867515026224517e-06
3.232539682539682602e+00,1.708764504291955782e-05,-1.466092669999724500e-05
3.233333333333333393e+00,1.711859997682256874e-05,-3.058674754469558710e-05
3.234126984126984183e+00,1.689343779281624985e-05,-3.859475447493024124e-05
3.234920634920634974e+00,1.697226079268076480e-05,-3.788058613824959330e-05
