Timestamp,Flexor carpi radialis,Extensor digitorum
2.000000000000000000e+00,1.207851228087089993e-05,-1.423520582019915611e-05
2.000793650793650791e+00,5.594759713717403094e-06,-1.292215656658937221e-05
2.001587301587301582e+00,-1.831701100462683215e-06,-1.344226855976015025e-05
2.002380952380952372e+00,-9.204907337547340400e-06,-1.514543889485766208e-05
2.003174603174603163e+00,-1.551668108152473385e-05,-1.722031908550003467e-05
2.003968253968253954e+00,-1.996209089852527189e-05,-1.887155004672627160e-05
2.004761904761904745e+00,-2.210801081393539211e-05,-1.948094302205675090e-05
2.005555555555555536e+00,-2.197090225561186888e-05,-1.872416591434386408e-05
2.006349206349206327e+00,-1.998662990142260521e-05,-1.662098163023426162e-05
2.007142857142857117e+00,-1.688471064423489448e-05,-1.350108555990045958e-05
2.007936507936507908e+00,-1.350176622949087703e-05,-9.881158941596301424e-06
2.008730158730158699e+00,-1.057841470618583903e-05,-6.281766471625497162e-06
2.009523809523809490e+00,-8.582443629336962369e-06,-3.051713080088344216e-06
2.010317460317460281e+00,-7.594790565109277501e-06,-2.795625157050808274e-07
2.011111111111111072e+00,-7.285902620403280606e-06,2.162832315368227118e-06
2.011904761904761862e+00,-6.995633873616192689e-06,4.465686824905678895e-06
2.012698412698412653e+00,-5.907796162348425999e-06,6.694598569780406636e-06
2.013492063492063444e+00,-3.284071912511970218e-06,8.670874402200124623e-06
2.014285714285714235e+00,1.300273641022330603e-06,9.992388829650167520e-06
2.015079365079365026e+00,7.784143218772123478e-06,1.020970758726360972e-05
2.015873015873015817e+00,1.556347759122736891e-05,9.102193958458577885e-06
2.016666666666666607e+00,2.356905128806733373e-05,6.941841002138611486e-06
2.017460317460317398e+00,3.046221806787558634e-05,4.611272652985150679e-06
2.018253968253968189e+00,3.490499524725617980e-05,3.474216775196573575e-06
2.019047619047618980e+00,3.585000694570038011e-05,4.985206284183256071e-06
2.019841269841269771e+00,3.279458597679894876e-05,1.014471566777240407e-05
2.020634920634920562e+00,2.594446428975941406e-05,1.899899335727278109e-05
2.021428571428571352e+00,1.623861410300239696e-05,3.039273188137247883e-05
2.022222222222222143e+00,5.207777696159877380e-06,4.209673628084304847e-05
2.023015873015872934e+00,-5.321055975680283329e-06,5.129949201586653696e-05
2.023809523809523725e+00,-1.361362547869998535e-05,5.533492958552345479e-05
2.024603174603174516e+00,-1.841335238659440668e-05,5.245113049304634409e-05
2.025396825396825307e+00,-1.921793253107299031e-05,4.240477663914342025e-05
2.026190476190476097e+00,-1.637221248892961793e-05,2.669172787969764575e-05
2.026984126984126888e+00,-1.095623792568835536e-05,8.306321148999176631e-06
2.027777777777777679e+00,-4.505300802168084404e-06,-8.941143883779597142e-06
2.028571428571428470e+00,1.360426291907463989e-06,-2.136834290336462770e-05
2.029365079365079261e+00,5.305472675368065828e-06,-2.634565378188037806e-05
2.030158730158730052e+00,6.566877473897968945e-06,-2.291934018512533765e-05
2.030952380952380842e+00,5.102954244146918428e-06,-1.195140110933208704e-05
2.031746031746031633e+00,1.574899094262637438e-06,4.240537637411156083e-06
2.032539682539682424e+00,-2.834664242831145821e-06,2.259132972266685469e-05
2.033333333333333215e+00,-6.728050141494120362e-06,4.008661889242174232e-05
2.034126984126984006e+00,-8.854932416086896664e-06,5.439513391109253179e-05
2.034920634920634797e+00,-8.442872842537423389e-06,6.418070946016356238e-05
2.035714285714285587e+00,-5.408045091418456216e-06,6.908271493055511900e-05
2.036507936507936378e+00,-3.826369007945735184e-07,6.946662772872174720e-05
2.037301587301587169e+00,5.455579372926322898e-06,6.609194926939251740e-05
2.038095238095237960e+00,1.070388929668660432e-05,5.982825102000870416e-05
2.038888888888888751e+00,1.410769152432126245e-05,5.149949905644364751e-05
2.039682539682539542e+00,1.487508038867801144e-05,4.187466191253511033e-05
2.040476190476190332e+00,1.285141085722432164e-05,3.175962151933710027e-05
2.041269841269841123e+00,8.525232755491840317e-06,2.209516690299371218e-05
2.042063492063491914e+00,2.886784540263146320e-06,1.395366285436289184e-05
2.042857142857142705e+00,-2.809674401820234270e-06,8.371407559550234306e-06
2.043650793650793496e+00,-7.320473754117635853e-06,6.041423542063309294e-06
2.044444444444444287e+00,-9.672642478273287212e-06,6.978501450929075016e-06
2.045238095238095077e+00,-9.370814938546498781e-06,1.030922801819029623e-05
2.046031746031745868e+00,-6.519713781484097471e-06,1.431575341975085905e-05
2.046825396825396659e+00,-1.832140059073084063e-06,1.678396854681143277e-05
2.047619047619047450e+00,3.500170305482646285e-06,1.559961672797130191e-05
2.048412698412698241e+00,8.066086904072334581e-06,9.430845295005264381e-06
2.049206349206349032e+00,1.056957044742504160e-05,-1.728822180844189734e-06
2.049999999999999822e+00,1.014415264186260464e-05,-1.637104175202799220e-05
2.050793650793650613e+00,6.553403148677621907e-06,-3.175112018527797739e-05
2.051587301587301404e+00,2.263250383180919097e-07,-4.459127008299085742e-05
2.052380952380952195e+00,-7.867360101484414175e-06,-5.201044053784184752e-05
2.053174603174602986e+00,-1.645587913371411047e-05,-5.239156433981118343e-05
2.053968253968253777e+00,-2.425094302590912457e-05,-4.590435069920518319e-05
2.054761904761904567e+00,-3.020658334228216839e-05,-3.450405209738954696e-05
2.055555555555555358e+00,-3.368658291406172834e-05,-2.139179751807862117e-05
2.056349206349206149e+00,-3.450526681605459097e-05,-1.010023377267210665e-05
2.057142857142856940e+00,-3.285172389232135151e-05,-3.499349540321919772e-06
2.057936507936507731e+00,-2.914935695883843884e-05,-3.046396084781186668e-06
2.058730158730158522e+00,-2.391868675281083544e-05,-8.509729355800450262e-06
2.059523809523809312e+00,-1.769330645398128944e-05,-1.821560462621126461e-05
2.060317460317460103e+00,-1.099929976217014993e-05,-2.968102466159937795e-05
2.061111111111110894e+00,-4.370382094528232790e-06,-4.038402333272948455e-05
2.061904761904761685e+00,1.646790127669119317e-06,-4.841818164424039635e-05
2.062698412698412920e+00,6.532832105943374733e-06,-5.286032044467366337e-05
2.063492063492063711e+00,9.884951087096285129e-06,-5.380102991372754366e-05
2.064285714285714501e+00,1.152245121354520648e-05,-5.209892758110663233e-05
2.065079365079365292e+00,1.155639800631171636e-05,-4.898788677031444311e-05
2.065873015873016083e+00,1.038155292698232483e-05,-4.568053395525270338e-05
2.066666666666666874e+00,8.582635888343257934e-06,-4.308124478305330680e-05
2.067460317460317665e+00,6.785912533476209703e-06,-4.166638311419687172e-05
2.068253968253968456e+00,5.509739949007337763e-06,-4.152465185027440513e-05
2.069047619047619246e+00,5.063248706917192200e-06,-4.249270933850194363e-05
2.069841269841270037e+00,5.517114176769425932e-06,-4.429185058190702535e-05
2.070634920634920828e+00,6.741203949291270667e-06,-4.658758712919916067e-05
2.071428571428571619e+00,8.484531946363087752e-06,-4.895266583826747152e-05
2.072222222222222410e+00,1.046686432666628044e-05,-5.078541090253540862e-05
2.073015873015873201e+00,1.245490985962494879e-05,-5.127503865048920107e-05
2.073809523809523991e+00,1.430510125029397944e-05,-4.948633176932575061e-05
2.074603174603174782e+00,1.596704384998440888e-05,-4.456952730324231619e-05
2.075396825396825573e+00,1.745410622465134803e-05,-3.602930514899574269e-05
2.076190476190476364e+00,1.879651132197186891e-05,-2.394977218370919380e-05
2.076984126984127155e+00,1.999478866720432981e-05,-9.084791908535340608e-06
2.077777777777777946e+00,2.098784516401140527e-05,7.227480741413602123e-06
2.078571428571428736e+00,2.164309401408841079e-05,2.330478267115485157e-05
2.079365079365079527e+00,2.176933818556797033e-05,3.744220074613991751e-05
2.080158730158730318e+00,2.114815054068001411e-05,4.821552173558287641e-05
2.080952380952381109e+00,1.957641975422893074e-05,5.467815404954073639e-05
2.081746031746031900e+00,1.691191050263818766e-05,5.641099646392548297e-05
2.082539682539682691e+00,1.311545668064145765e-05,5.345125977694205728e-05
2.083333333333333481e+00,8.285273893936901616e-06,4.618064506836388626e-05
2.084126984126984272e+00,2.677559327050670725e-06,3.526561137439042620e-05
2.084920634920635063e+00,-3.295483929088352397e-06,2.170118838421841937e-05
2.085714285714285854e+00,-9.099022032341217824e-06,6.932166579596170044e-06
2.086507936507936645e+00,-1.414386605104554835e-05,-7.048110542247930600e-06
2.087301587301587436e+00,-1.788331469619919875e-05,-1.775038288907451560e-05
2.088095238095238226e+00,-1.992001786238978218e-05,-2.248929674671535641e-05
2.088888888888889017e+00,-2.009465021165272611e-05,-1.893814736523166158e-05
2.089682539682539808e+00,-1.852754918614928572e-05,-5.831223141994538810e-06
2.090476190476190599e+00,-1.559551715564261900e-05,1.639026258583780254e-05
2.091269841269841390e+00,-1.184548987666129603e-05,4.522056278842115541e-05
2.092063492063492181e+00,-7.868292252666423466e-06,7.619080379810102340e-05
2.092857142857142971e+00,-4.171312119599777047e-06,1.034824780057520826e-04
2.093650793650793762e+00,-1.090434054576519257e-06,1.209866415793155907e-04
2.094444444444444553e+00,1.234220798501849266e-06,1.236401085919296399e-04
2.095238095238095344e+00,2.820476291079626186e-06,1.087653227249238852e-04
2.096031746031746135e+00,3.769448997428119286e-06,7.704837492228436529e-05
2.096825396825396925e+00,4.189839108731978009e-06,3.279777901532683978e-05
2.097619047619047716e+00,4.151884895514936694e-06,-1.669395170109554255e-05
2.098412698412698507e+00,3.684364498072893964e-06,-6.257243573016829251e-05
2.099206349206349298e+00,2.805896261822985247e-06,-9.626396570170096150e-05
2.100000000000000089e+00,1.565404321818663887e-06,-1.112764760444387961e-04
2.100793650793650880e+00,6.485173413750556035e-08,-1.045500688674841643e-04
2.101587301587301670e+00,-1.549089797110303027e-06,-7.709089593818042505e-05
2.102380952380952461e+00,-3.117667207308031972e-06,-3.379581916989934362e-05
2.103174603174603252e+00,-4.506269571746057517e-06,1.745006565784139790e-05
2.103968253968254043e+00,-5.624166913517172080e-06,6.717032234326036932e-05
2.104761904761904834e+00,-6.421267574240673553e-06,1.058798404716274554e-04
2.105555555555555625e+00,-6.871310359037923104e-06,1.255859985465556880e-04
2.106349206349206415e+00,-6.957694678863583829e-06,1.210577469434586805e-04
2.107142857142857206e+00,-6.672599703517071000e-06,9.079119480064634933e-05
2.107936507936507997e+00,-6.028675041572487513e-06,3.758236500192046640e-05
2.108730158730158788e+00,-5.074680693924601725e-06,-3.143953092427846061e-05
2.109523809523809579e+00,-3.905912104069820101e-06,-1.054698958379566887e-04
2.110317460317460370e+00,-2.664095078534719802e-06,-1.714493477690020500e-04
2.111111111111111160e+00,-1.525092797157819220e-06,-2.161707441662669778e-04
2.111904761904761951e+00,-6.748494448998991117e-07,-2.288029256221693077e-04
2.112698412698412742e+00,-2.759601146425097291e-07,-2.033616530898075690e-04
2.113492063492063533e+00,-4.303804370766481869e-07,-1.405272114740360278e-04
2.114285714285714324e+00,-1.147315927633811118e-06,-4.823047247989761767e-05
2.115079365079365115e+00,-2.326868292247478756e-06,5.935186347865281160e-05
2.115873015873015905e+00,-3.767668046665982481e-06,1.643613920993983808e-04
2.116666666666666696e+00,-5.200982491662138320e-06,2.488846208933871034e-04
2.117460317460317487e+00,-6.346795553123423940e-06,2.987625094913952503e-04
2.118253968253968278e+00,-6.980575980049947235e-06,3.065723181579306836e-04
2.119047619047619069e+00,-6.993593960543202603e-06,2.729854376791403833e-04
2.119841269841269860e+00,-6.427006201978047331e-06,2.062047481715148197e-04
2.120634920634920650e+00,-5.464413315981012232e-06,1.197609791612187183e-04
2.121428571428571441e+00,-4.380484801220748703e-06,2.936279392536618864e-05
2.122222222222222232e+00,-3.459665711518160880e-06,-5.036548534513814651e-05
2.123015873015873023e+00,-2.910403908119326511e-06,-1.085299213124480213e-04
2.123809523809523814e+00,-2.801405911616236302e-06,-1.395250973053535973e-04
2.124603174603174605e+00,-3.038601796373813601e-06,-1.433480534532962703e-04
2.125396825396825395e+00,-3.389637475433471873e-06,-1.248002071144701304e-04
2.126190476190476186e+00,-3.549982830745276415e-06,-9.190929107617339491e-05
2.126984126984126977e+00,-3.232835082526958026e-06,-5.399610111648033104e-05
2.127777777777777768e+00,-2.257099268796322196e-06,-1.980853135436327737e-05
2.128571428571428559e+00,-6.075063639337875510e-07,3.933826509684654882e-06
2.129365079365079350e+00,1.551114502018807463e-06,1.337808661349046290e-05
2.130158730158730140e+00,3.910155676738079099e-06,7.720543385939274164e-06
2.130952380952380931e+00,6.093998412983974641e-06,-1.114796977819983888e-05
2.131746031746031722e+00,7.754263537111017008e-06,-3.931747121395354113e-05
2.132539682539682513e+00,8.652808530079013566e-06,-7.163625165551909925e-05
2.133333333333333304e+00,8.710305750302073293e-06,-1.024514835111066396e-04
2.134126984126984095e+00,8.012475579073262820e-06,-1.262771279589889695e-04
2.134920634920634885e+00,6.781802814209052241e-06,-1.384156724390094180e-04
2.135714285714285676e+00,5.329004151245563801e-06,-1.355547174477543602e-04
2.136507936507936467e+00,3.993877844704780210e-06,-1.163040140302848310e-04
2.137301587301587258e+00,3.077015077165427113e-06,-8.157791579791338270e-05
2.138095238095238049e+00,2.762406965895788349e-06,-3.470243689288121452e-05
2.138888888888888840e+00,3.041006269800222899e-06,1.885057516434639465e-05
2.139682539682539630e+00,3.661481008700325721e-06,7.213359136012447912e-05
2.140476190476190421e+00,4.143355417077860496e-06,1.177335776161426257e-04
2.141269841269841212e+00,3.877674063729242628e-06,1.489553247165512680e-04
2.142063492063492003e+00,2.311436470396099245e-06,1.609398801320511684e-04
2.142857142857142794e+00,-8.228997043640931701e-07,1.514788823148633984e-04
2.143650793650793585e+00,-5.297242313379740479e-06,1.213705498484764949e-04
2.144444444444444375e+00,-1.026946980287759309e-05,7.430913448248792667e-05
2.145238095238095166e+00,-1.431841975033723670e-05,1.642986319398970360e-05
2.146031746031745957e+00,-1.566498271997069768e-05,-4.434588100196055577e-05
2.146825396825396748e+00,-1.256725165984136293e-05,-9.911522267525298114e-05
2.147619047619047539e+00,-3.823936896660026646e-06,-1.390016231128319820e-04
2.148412698412698330e+00,1.072937735944635403e-05,-1.564114175947567246e-04
2.149206349206349120e+00,2.987595704354421787e-05,-1.464578427780463359e-04
2.149999999999999911e+00,5.096471433645846297e-05,-1.083057696122101702e-04
2.150793650793650702e+00,7.023672834851266958e-05,-4.605999133584368961e-05
2.151587301587301493e+00,8.352617543510111109e-05,3.122613569713748882e-05
2.152380952380952284e+00,8.721086529128950742e-05,1.107430082470098798e-04
2.153174603174603075e+00,7.917868633804904987e-05,1.783235287087235642e-04
2.153968253968253865e+00,5.952300959005365810e-05,2.215582901380186269e-04
2.154761904761904656e+00,3.071819297218698295e-05,2.326925772469937224e-04
2.155555555555555447e+00,-2.836526360038884934e-06,2.103080747122175660e-04
2.156349206349206238e+00,-3.581266316618012809e-05,1.592450067037117477e-04
2.157142857142857029e+00,-6.319806098059738955e-05,8.894309036353342031e-05
2.157936507936507819e+00,-8.140279196128495382e-05,1.094201368355701839e-05
2.158730158730158610e+00,-8.889296627852498326e-05,-6.358080799664731625e-05
2.159523809523809401e+00,-8.621525409812863332e-05,-1.256099479452254045e-04
2.160317460317460192e+00,-7.551104896044175542e-05,-1.692234717270721747e-04
2.161111111111110983e+00,-5.978084293254798095e-05,-1.918006362987532433e-04
2.161904761904761774e+00,-4.218247821666936559e-05,-1.937953654739574098e-04
2.162698412698412564e+00,-2.554530811308778493e-05,-1.783047625605338482e-04
2.163492063492063355e+00,-1.212555741438906033e-05,-1.504955099069796786e-04
2.164285714285714146e+00,-3.499607824444183154e-06,-1.168145613821990379e-04
2.165079365079364937e+00,-4.507025703156296600e-07,-8.390959916351598794e-05
2.165873015873015728e+00,-2.763807738375814143e-06,-5.733169778831171439e-05
2.166666666666666519e+00,-8.968947045614973965e-06,-4.029038389209478480e-05
2.167460317460317309e+00,-1.619989732539371959e-05,-3.284004702861719708e-05
2.168253968253968100e+00,-2.039262320364323237e-05,-3.181744037825895514e-05
2.169047619047618891e+00,-1.699096189705447501e-05,-3.165064652547799418e-05
2.169841269841269682e+00,-2.155638933751515416e-06,-2.591014409485800497e-05
2.170634920634920473e+00,2.576517226841555438e-05,-9.248975073179058087e-06
2.171428571428571264e+00,6.496138905685547489e-05,2.077584781970455451e-05
2.172222222222222054e+00,1.096253312099953651e-04,6.255014910744095575e-05
2.173015873015872845e+00,1.505683948347907159e-04,1.103405582524482465e-04
2.173809523809523636e+00,1.770628270955284795e-04,1.554423467706583513e-04
2.174603174603174427e+00,1.795399194845087045e-04,1.882617138808852925e-04
2.175396825396825218e+00,1.524072480611163728e-04,2.007345801165716891e-04
2.176190476190476009e+00,9.610364676650158631e-05,1.883799832113616584e-04
2.176984126984126799e+00,1.766337359782882088e-05,1.514437684333184346e-04
2.177777777777777590e+00,-7.051461726478723991e-05,9.491227870975880586e-05
2.178571428571428381e+00,-1.534245961932275857e-04,2.749608215996473011e-05
2.179365079365079172e+00,-2.169594498570077588e-04,-4.011188181149326690e-05
2.180158730158729963e+00,-2.511416503567370242e-04,-9.730416277577282969e-05
2.180952380952380754e+00,-2.521785766561551018e-04,-1.355229495661023514e-04
2.181746031746031544e+00,-2.228503662921217654e-04,-1.497313686562402532e-04
2.182539682539682335e+00,-1.712622141765828693e-04,-1.391371360783489263e-04
2.183333333333333126e+00,-1.084552701653849273e-04,-1.071111830041411090e-04
2.184126984126983917e+00,-4.564281574338994551e-05,-6.042304313690261995e-05
2.184920634920634708e+00,8.144582312467725789e-06,-8.004977878470579341e-06
2.185714285714285499e+00,4.744660980176562139e-05,4.054734704404482467e-05
2.186507936507936289e+00,7.060691108038236955e-05,7.655994963773504909e-05
2.187301587301587080e+00,7.904176593382519832e-05,9.375412652339779431e-05
2.188095238095238315e+00,7.598541867592856008e-05,8.935829333370780855e-05
2.188888888888889106e+00,6.522301170507580103e-05,6.462226267479787999e-05
2.189682539682539897e+00,5.021455463784688469e-05,2.462353500457824837e-05
2.190476190476190688e+00,3.378235201093774900e-05,-2.258970166594792930e-05
2.191269841269841478e+00,1.826636812782714910e-05,-6.737318116938872926e-05
2.192063492063492269e+00,5.854024685396222379e-06,-1.001743086509522968e-04
2.192857142857143060e+00,-1.249690253520841598e-06,-1.132768404480713308e-04
2.193650793650793851e+00,-1.014744631865410396e-06,-1.023149696880392529e-04
2.194444444444444642e+00,7.882773582825835346e-06,-6.727796845552366106e-05
2.195238095238095433e+00,2.541504100887146590e-05,-1.277285069979228934e-05
2.196031746031746223e+00,4.974647290208624557e-05,5.259008895210605318e-05
2.196825396825397014e+00,7.721372822588620322e-05,1.176523871902032708e-04
2.197619047619047805e+00,1.028399827602396110e-04,1.707507007587943113e-04
2.198412698412698596e+00,1.213064243355355885e-04,2.019257886087477639e-04
2.199206349206349387e+00,1.281511212724190140e-04,2.048286595346268343e-04
2.200000000000000178e+00,1.208724193341863159e-04,1.779391623040841859e-04
2.200793650793650968e+00,9.961283256327554481e-05,1.248750499725361863e-04
2.201587301587301759e+00,6.720466430509118994e-05,5.375598115652226253e-05
2.202380952380952550e+00,2.854546616595080347e-05,-2.423934210356027259e-05
2.203174603174603341e+00,-1.052630306361960387e-05,-9.684979366128055635e-05
2.203968253968254132e+00,-4.454137430528897927e-05,-1.528883148825104237e-04
2.204761904761904923e+00,-6.953798690359866029e-05,-1.841983029944609020e-04
2.205555555555555713e+00,-8.373016907205816544e-05,-1.870605554576301559e-04
2.206349206349206504e+00,-8.755167483579961616e-05,-1.627948060222089786e-04
2.207142857142857295e+00,-8.311651475253815609e-05,-1.174402923416354648e-04
2.207936507936508086e+00,-7.332542239354896416e-05,-6.055206470109566282e-05
2.208730158730158877e+00,-6.095630647643821216e-05,-3.297461004204714500e-06
2.209523809523809668e+00,-4.805565968425254327e-05,4.381398838663074831e-05
2.210317460317460458e+00,-3.579990419171640747e-05,7.309991741910627230e-05
2.211111111111111249e+00,-2.477588883767605711e-05,8.124735226940084083e-05
2.211904761904762040e+00,-1.542886898005110946e-05,6.979122639209804429e-05
2.212698412698412831e+00,-8.345981227494764641e-06,4.436019938043286089e-05
2.213492063492063622e+00,-4.146500364518848413e-06,1.289988851205641809e-05
2.214285714285714413e+00,-3.000928084127860209e-06,-1.657921074675585687e-05
2.215079365079365203e+00,-4.060146259458242792e-06,-3.804132625138481887e-05
2.215873015873015994e+00,-5.187061837679382483e-06,-4.868136157198746247e-05
2.216666666666666785e+00,-3.278671026178480621e-06,-4.913716865362422934e-05
2.217460317460317576e+00,4.799521311019707357e-06,-4.275394617606497643e-05
2.218253968253968367e+00,2.094339801315850906e-05,-3.423939452370311026e-05
2.219047619047619158e+00,4.467802578139856294e-05,-2.811698744538109409e-05
2.219841269841269948e+00,7.264558605396679626e-05,-2.735128952879744456e-05
2.220634920634920739e+00,9.900771615240394922e-05,-3.247674771061861857e-05
2.221428571428571530e+00,1.167420027122039573e-04,-4.148706471574753582e-05
2.222222222222222321e+00,1.194888830702993442e-04,-5.054370914970814695e-05
2.223015873015873112e+00,1.033933290565224587e-04,-5.525982962112407134e-05
2.223809523809523903e+00,6.836584396197182797e-05,-5.208373490934671199e-05
2.224603174603174693e+00,1.836816567989131273e-05,-3.929436821335498899e-05
2.225396825396825484e+00,-3.935828625746439955e-05,-1.731502026880999608e-05
2.226190476190476275e+00,-9.587727331782012173e-05,1.166871320042754094e-05
2.226984126984127066e+00,-1.424899781731831427e-04,4.454402561827465836e-05
2.227777777777777857e+00,-1.724959968282757607e-04,7.816245406189081704e-05
2.228571428571428648e+00,-1.823709439535702340e-04,1.099047416240527745e-04
2.229365079365079438e+00,-1.721490124289979566e-04,1.377245039133659615e-04
2.230158730158730229e+00,-1.450201117385718362e-04,1.597525380408317073e-04
2.230952380952381020e+00,-1.063396627812966010e-04,1.737680298745209145e-04
2.231746031746031811e+00,-6.236545358803482499e-05,1.769122546459021459e-04
2.232539682539682602e+00,-1.905288886234994466e-05,1.659185615432914190e-04
2.233333333333333393e+00,1.884065555444678215e-05,1.379197867337237596e-04
2.234126984126984183e+00,4.822984247834502319e-05,9.165918029660956258e-05
2.234920634920634974e+00,6.777796377304230117e-05,2.874037562039720531e-05
2.235714285714285765e+00,7.768976866615539233e-05,-4.555543516954324975e-05
2.236507936507936556e+00,7.936074987331707216e-05,-1.223352565624818446e-04
2.237301587301587347e+00,7.499537692187222275e-05,-1.902900315897798329e-04
2.238095238095238138e+00,6.724570124339738564e-05,-2.378977255896457291e-04
2.238888888888888928e+00,5.885746768144678123e-05,-2.561070233793059708e-04
2.239682539682539719e+00,5.227867182227110329e-05,-2.407245876703167009e-04
2.240476190476190510e+00,4.921029665036178466e-05,-1.937559714307571148e-04
2.241269841269841301e+00,5.015583316091118312e-05,-1.232441779545099072e-04
2.242063492063492092e+00,5.411458539553234569e-05,-4.159220255340260314e-05
2.242857142857142883e+00,5.860534668485095790e-05,3.719880183073998026e-05
2.243650793650793673e+00,6.015872038538384170e-05,1.006224358675627997e-04
2.244444444444444464e+00,5.527415999925916875e-05,1.402437139356901537e-04
2.245238095238095255e+00,4.164018336766018191e-05,1.530932517970918908e-04
2.246031746031746046e+00,1.923871520408171646e-05,1.416118236576338607e-04
2.246825396825396837e+00,-9.106781972987387184e-06,1.123464932184411845e-04
2.247619047619047628e+00,-3.805701336899331577e-05,7.395596579239116248e-05
2.248412698412698418e+00,-6.098732503473247053e-05,3.518261411231033044e-05
2.249206349206349209e+00,-7.181644471860009881e-05,3.270266490642026457e-06
2.250000000000000000e+00,-6.688191070343345421e-05,-1.700781766606143398e-05
2.250793650793650791e+00,-4.625693438171021442e-05,-2.378754902487126196e-05
2.251587301587301582e+00,-1.405900535475216624e-05,-1.814992930972630448e-05
2.252380952380952372e+00,2.239574344390348333e-05,-3.800747538515849583e-06
2.253174603174603163e+00,5.439218971196071024e-05,1.364672771209149806e-05
2.253968253968253954e+00,7.408286499216060780e-05,2.781043791604250544e-05
2.254761904761904745e+00,7.657866973458884346e-05,3.298492545109425869e-05
2.255555555555555536e+00,6.124129637915547608e-05,2.558622367471038794e-05
2.256349206349206327e+00,3.176948112642744249e-05,5.167433937841634420e-06
2.257142857142857117e+00,-4.961075983986372876e-06,-2.536513813137638161e-05
2.257936507936507908e+00,-4.093882145269629708e-05,-6.045810020191999290e-05
2.258730158730158699e+00,-6.927928516697081903e-05,-9.334012785039347748e-05
2.259523809523809490e+00,-8.598123186569922322e-05,-1.177320005372183991e-04
2.260317460317460281e+00,-9.063516861398222151e-05,-1.293245439033499818e-04
2.261111111111111072e+00,-8.592829312406857778e-05,-1.266190640386827108e-04
2.261904761904761862e+00,-7.622719032266119595e-05,-1.109569074019853236e-04
2.262698412698412653e+00,-6.582850617034657046e-05,-8.583015101612070691e-05
2.263492063492063444e+00,-5.752464420263028635e-05,-5.576444919185472265e-05
2.264285714285714235e+00,-5.193896133929485460e-05,-2.513728063593363701e-05
2.265079365079365026e+00,-4.775426926680084299e-05,2.756487983120458168e-06
2.265873015873015817e+00,-4.262967438086918298e-05,2.620562269002044083e-05
2.266666666666666607e+00,-3.438323417671459937e-05,4.509707838281834850e-05
2.267460317460317398e+00,-2.197472694240759265e-05,6.048361882700677833e-05
2.268253968253968189e+00,-5.957163615729071062e-06,7.381295463431492086e-05
2.269047619047618980e+00,1.169379698762689664e-05,8.602357595015062215e-05
2.269841269841269771e+00,2.823078923432941248e-05,9.681713019523067293e-05
2.270634920634920562e+00,4.098725150670085433e-05,1.044213764416630335e-04
2.271428571428571352e+00,4.813364434584962705e-05,1.059931609891300128e-04
2.272222222222222143e+00,4.911370386292035657e-05,9.854994919761111678e-05
2.273015873015872934e+00,4.466639763364947945e-05,8.011458405855911109e-05
2.273809523809523725e+00,3.648444713018997478e-05,5.070316078684134598e-05
2.274603174603174516e+00,2.667609943910850793e-05,1.284816567852057997e-05
2.275396825396825307e+00,1.723788873778223817e-05,-2.854259029887051298e-05
2.276190476190476097e+00,9.695636034950015243e-06,-6.704054065126944942e-05
2.276984126984126888e+00,4.963652653568700987e-06,-9.610276142287524001e-05
2.277777777777777679e+00,3.373936110323665179e-06,-1.106602719217468527e-04
2.278571428571428470e+00,4.785252530451212880e-06,-1.084250669636660638e-04
2.279365079365079261e+00,8.697846087989324286e-06,-9.051982053331127792e-05
2.280158730158730052e+00,1.434349091739317232e-05,-6.122314751605871465e-05
2.280952380952380842e+00,2.076029545186163305e-05,-2.687142852178044889e-05
2.281746031746031633e+00,2.687880203691615531e-05,5.793719794883661744e-06
2.282539682539682424e+00,3.163994812455567284e-05,3.135782720335327834e-05
2.283333333333333215e+00,3.414711458102730055e-05,4.701633084702852355e-05
2.284126984126984006e+00,3.383419075850820041e-05,5.300464555183206548e-05
2.284920634920634797e+00,3.061353998419973570e-05,5.206649884739117596e-05
2.285714285714285587e+00,2.495511692329921590e-05,4.820259759874915564e-05
2.286507936507936378e+00,1.784922421304642226e-05,4.518692586881980800e-05
2.287301587301587169e+00,1.062949788025273978e-05,4.536976734180094559e-05
2.288095238095237960e+00,4.677194315111322686e-06,4.912203893368304107e-05
2.288888888888888751e+00,1.075435717547052181e-06,5.501833252846625012e-05
2.289682539682539542e+00,3.114310771469761703e-07,6.060921036778972511e-05
2.290476190476190332e+00,2.122989203182445974e-06,6.346033272475327242e-05
2.291269841269841123e+00,5.552053273554320354e-06,6.207454775860197431e-05
2.292063492063491914e+00,9.211051477707972850e-06,5.638229063750170561e-05
2.292857142857142705e+00,1.170212935292573238e-05,4.766695961177611643e-05
2.293650793650793496e+00,1.207147109991826486e-05,3.801293839617178404e-05
2.294444444444444287e+00,1.014744668799866379e-05,2.952450592746503971e-05
2.295238095238095077e+00,6.620445881805158240e-06,2.360455314020355554e-05
2.296031746031745868e+00,2.790431104814471056e-06,2.052354167179002610e-05
2.296825396825396659e+00,3.181540675719302079e-08,1.940492069566642405e-05
2.297619047619047450e+00,-8.378238676901853344e-07,1.862118471895542982e-05
2.298412698412698241e+00,-1.963927524175976629e-08,1.643836843203462403e-05
2.299206349206349032e+00,1.201525864395428932e-06,1.163138600870435130e-05
2.299999999999999822e+00,8.598334947401399959e-07,3.822017504424336368e-06
2.300793650793650613e+00,-2.956910706052190457e-06,-6.530488325637296882e-06
2.301587301587301404e+00,-1.132774371531573180e-05,-1.837207216624760708e-05
2.302380952380952195e+00,-2.398104028288707880e-05,-3.036550198988554369e-05
2.303174603174602986e+00,-3.923204374542252668e-05,-4.117911645926763768e-05
2.303968253968253777e+00,-5.438685015258890195e-05,-4.973794463887362194e-05
2.304761904761904567e+00,-6.645971588366215966e-05,-5.542777492722714713e-05
2.305555555555555358e+00,-7.296077280046926717e-05,-5.820288901899223503e-05
2.306349206349206149e+00,-7.251388464933878448e-05,-5.853665940055291506e-05
2.307142857142856940e+00,-6.514390456086518598e-05,-5.720812107800311109e-05
2.307936507936507731e+00,-5.218990153161393329e-05,-5.500484025951999376e-05
2.308730158730158522e+00,-3.591032483799789723e-05,-5.247332983579293240e-05
2.309523809523809312e+00,-1.891624821871938894e-05,-4.981920646599328069e-05
2.310317460317460103e+00,-3.590930884537363219e-06,-4.697035599967301113e-05
2.311111111111110894e+00,8.365609020148163959e-06,-4.373068437139104268e-05
2.311904761904761685e+00,1.617679968856318754e-05,-3.992361929608275573e-05
2.312698412698412920e+00,1.998684710389146585e-05,-3.546236696891903831e-05
2.313492063492063711e+00,2.064940672062942663e-05,-3.035028163601955170e-05
2.314285714285714501e+00,1.938987913718829000e-05,-2.465602880747637209e-05
2.315079365079365292e+00,1.744636459530642851e-05,-1.850032384832906620e-05
2.315873015873016083e+00,1.578461905518868232e-05,-1.205783880264404735e-05
2.316666666666666874e+00,1.494447097072054061e-05,-5.560251273531269760e-06
2.317460317460317665e+00,1.502618093696168362e-05,7.051115158970610246e-07
2.318253968253968456e+00,1.578534110562566407e-05,6.397190464459398967e-06
2.319047619047619246e+00,1.678561481879469396e-05,1.112944800009696681e-05
2.319841269841270037e+00,1.755933272436530104e-05,1.450495070293164575e-05
2.320634920634920828e+00,1.773870393432941129e-05,1.619233052649582508e-05
2.321428571428571619e+00,1.713667791638981273e-05,1.602685371605046458e-05
2.322222222222222410e+00,1.577154715179865990e-05,1.409251266910450382e-05
2.323015873015873201e+00,1.384166922210207459e-05,1.073961107472285600e-05
2.323809523809523991e+00,1.166522770534940421e-05,6.521100922336523520e-06
2.324603174603174782e+00,9.603741991379649925e-06,2.070271891886223996e-06
2.325396825396825573e+00,7.987111209537387820e-06,-2.033346150418134416e-06
2.326190476190476364e+00,7.053429701491099695e-06,-5.365229390392900459e-06
2.326984126984127155e+00,6.910402207432639023e-06,-7.700626413585176530e-06
2.327777777777777946e+00,7.519343431545355224e-06,-9.003567125475265675e-06
2.328571428571428736e+00,8.699490327870446264e-06,-9.376953477095468104e-06
2.329365079365079527e+00,1.014994512280339974e-05,-8.995328892916086745e-06
2.330158730158730318e+00,1.148795292735667285e-05,-8.040036991711218975e-06
2.330952380952381109e+00,1.230375610336898571e-05,-6.653769813819495284e-06
2.331746031746031900e+00,1.223128774933907282e-05,-4.927485484170560364e-06
2.332539682539682691e+00,1.102808451214763452e-05,-2.922993998878028260e-06
2.333333333333333481e+00,8.648591322743175855e-06,-7.196958805657413020e-07
2.334126984126984272e+00,5.288713953297743067e-06,1.538418447840988585e-06
2.334920634920635063e+00,1.381928166037605462e-06,3.621261672004416687e-06
2.335714285714285854e+00,-2.461263689872926261e-06,5.231981267730141519e-06
2.336507936507936645e+00,-5.563321058797709904e-06,6.065131067948916506e-06
2.337301587301587436e+00,-7.318418993070686451e-06,5.885458078628237975e-06
2.338095238095238226e+00,-7.331052473974442652e-06,4.600410422207375623e-06
2.338888888888889017e+00,-5.523465381929009034e-06,2.301232934578348507e-06
2.339682539682539808e+00,-2.184862160722775747e-06,-7.415809205607509015e-07
2.340476190476190599e+00,2.054824342530444855e-06,-4.127319734668148982e-06
2.341269841269841390e+00,6.328674866720456744e-06,-7.403105852691895425e-06
2.342063492063492181e+00,9.697195335471842884e-06,-1.014660175284271221e-05
2.342857142857142971e+00,1.133844207457273963e-05,-1.202779054924187680e-05
2.343650793650793762e+00,1.071877716249344215e-05,-1.283093597763745561e-05
2.344444444444444553e+00,7.702602407318503554e-06,-1.243069977585390575e-05
2.345238095238095344e+00,2.576378019675059854e-06,-1.073340259200239085e-05
2.346031746031746135e+00,-4.012581158756078517e-06,-7.614156687507483685e-06
2.346825396825396925e+00,-1.117722230842329406e-05,-2.897615435283118843e-06
2.347619047619047716e+00,-1.793235836164151615e-05,3.570187130206767771e-06
2.348412698412698507e+00,-2.332154958573801558e-05,1.174402963513530139e-05
2.349206349206349298e+00,-2.651475815491866086e-05,2.114232672766240694e-05
2.350000000000000089e+00,-2.688632028638035388e-05,3.065897799615257868e-05
2.350793650793650880e+00,-2.409318568060075190e-05,3.855681592721573988e-05
2.351587301587301670e+00,-1.816155531316916423e-05,4.273709386871704695e-05
2.352380952380952461e+00,-9.563461748673054652e-06,4.128011379808453981e-05
2.353174603174603252e+00,7.572117734451280576e-07,3.312195960669723523e-05
2.353968253968254043e+00,1.145000785569761112e-05,1.862925002801036099e-05
2.354761904761904834e+00,2.093066299845632123e-05,-1.777493428686916679e-07
2.355555555555555625e+00,2.764030776936629347e-05,-1.989697053519206280e-05
2.356349206349206415e+00,3.033730525745723173e-05,-3.647259702838087452e-05
2.357142857142857206e+00,2.835207145558711611e-05,-4.617108989469958987e-05
2.357936507936507997e+00,2.174066022262016447e-05,-4.651524010940644231e-05
2.358730158730158788e+00,1.129758295628785870e-05,-3.691187625497226106e-05
2.359523809523809579e+00,-1.575415701165656435e-06,-1.880999668110817504e-05
2.360317460317460370e+00,-1.511234714758954780e-05,4.642788475997124279e-06
2.361111111111111160e+00,-2.748280088681661487e-05,2.934701471032749489e-05
2.361904761904761951e+00,-3.708901709282953567e-05,5.119399656094867436e-05
2.362698412698412742e+00,-4.280889391864896993e-05,6.694164536616116837e-05
2.363492063492063533e+00,-4.414571843621332379e-05,7.479237757205432215e-05
2.364285714285714324e+00,-4.125885759769495670e-05,7.455806025231630631e-05
2.365079365079365115e+00,-3.487032189406439876e-05,6.744212219658806253e-05
2.365873015873015905e+00,-2.607285537159141520e-05,5.557317645786708112e-05
2.366666666666666696e+00,-1.609515698649947426e-05,4.145689783120710351e-05
2.367460317460317487e+00,-6.090398646588025221e-06,2.748954328673157185e-05
2.368253968253968278e+00,3.003427172764521145e-06,1.562375374724428966e-05
2.369047619047619069e+00,1.051840012820174080e-05,7.208604622650148543e-06
2.369841269841269860e+00,1.604646810278656933e-05,2.957087226897369217e-06
2.370634920634920650e+00,1.939790299094894230e-05,2.958478567651152339e-06
2.371428571428571441e+00,2.055759122357487485e-05,6.677858936315620736e-06
2.372222222222222232e+00,1.965620216207109990e-05,1.295436032756234325e-05
2.373015873015873023e+00,1.696260844143647993e-05,2.006760496393710923e-05
2.373809523809523814e+00,1.289377397669038071e-05,2.594335896603983436e-05
2.374603174603174605e+00,8.025208991007276807e-06,2.851880024296202132e-05
2.375396825396825395e+00,3.074906751793016826e-06,2.621916206619788201e-05
2.376190476190476186e+00,-1.161225092419849840e-06,1.843573629795826129e-05
2.376984126984126977e+00,-3.921714149541950789e-06,5.852666413555235095e-06
2.377777777777777768e+00,-4.613296332324518842e-06,-9.530395426511308453e-06
2.378571428571428559e+00,-2.928999500147720133e-06,-2.476174547557617248e-05
2.379365079365079350e+00,1.078442788620908095e-06,-3.663228487430051787e-05
2.380158730158730140e+00,6.979881325072833603e-06,-4.250499412129980456e-05
2.380952380952380931e+00,1.400832537986454540e-05,-4.101629037912650749e-05
2.381746031746031722e+00,2.114649996599568774e-05,-3.243036024818527933e-05
2.382539682539682513e+00,2.725730757753666881e-05,-1.855282674586284492e-05
2.383333333333333304e+00,3.124952911908337159e-05,-2.253288638291403645e-06
2.384126984126984095e+00,3.226355700162629946e-05,1.324691247478506518e-05
2.384920634920634885e+00,2.984935457702762250e-05,2.511828741500381367e-05
2.385714285714285676e+00,2.409646773551241849e-05,3.150429294686135764e-05
2.386507936507936467e+00,1.567244862238762986e-05,3.180068956911703799e-05
2.387301587301587258e+00,5.740036214574285338e-06,2.658420150215233389e-05
2.388095238095238049e+00,-4.244179549719863010e-06,1.725037788824441420e-05
2.388888888888888840e+00,-1.280817539040336420e-05,5.511199196169270964e-06
2.389682539682539630e+00,-1.875304997917076014e-05,-7.067437687682059201e-06
2.390476190476190421e+00,-2.138451663582908546e-05,-1.935383059106905330e-05
2.391269841269841212e+00,-2.064071496479643467e-05,-3.071966037683077609e-05
2.392063492063492003e+00,-1.709701698633866532e-05,-4.092935493092780222e-05
2.392857142857142794e+00,-1.185160076199279277e-05,-4.993467163451134622e-05
2.393650793650793585e+00,-6.312085687258328481e-06,-5.766819425210493837e-05
2.394444444444444375e+00,-1.916723825422796210e-06,-6.391368939969702036e-05
2.395238095238095166e+00,1.625217061355900133e-07,-6.829830833808127962e-05
2.396031746031745957e+00,-7.260363352912393630e-07,-7.040586405941764460e-05
2.396825396825396748e+00,-4.567667432356740558e-06,-6.996341687803757738e-05
2.397619047619047539e+00,-1.068828517795990742e-05,-6.702191920595594740e-05
2.398412698412698330e+00,-1.791588261578897138e-05,-6.204772840693003927e-05
2.399206349206349120e+00,-2.484850891962151216e-05,-5.586846953680390214e-05
2.399999999999999911e+00,-3.015316048806263916e-05,-4.946931835419783840e-05
2.400793650793650702e+00,-3.282272556859307342e-05,-4.369947828095980922e-05
2.401587301587301493e+00,-3.234067330804030898e-05,-3.899707642503984619e-05
2.402380952380952284e+00,-2.873039510010552320e-05,-3.524754595551350781e-05
2.403174603174603075e+00,-2.249126378590797818e-05,-3.184722345166905548e-05
2.403968253968253865e+00,-1.444651764915374627e-05,-2.796483624631462857e-05
2.404761904761904656e+00,-5.547326979745769262e-06,-2.290875485347125903e-05
2.405555555555555447e+00,3.313391417689871494e-06,-1.645322067066213253e-05
2.406349206349206238e+00,1.143047148298525832e-05,-8.981580236854007837e-06
2.407142857142857029e+00,1.833423961106647637e-05,-1.375215745657953408e-06
2.407936507936507819e+00,2.376121263933507631e-05,5.312881701833319479e-06
2.408730158730158610e+00,2.757939586586966089e-05,1.026212199402252210e-05
2.409523809523809401e+00,2.971349070786967461e-05,1.319113658230711947e-05
2.410317460317460192e+00,3.010991086372218160e-05,1.443649548475692802e-05
2.411111111111110983e+00,2.875872789249140320e-05,1.477253975125876550e-05
2.411904761904761774e+00,2.575802317704603987e-05,1.504899491680707419e-05
2.412698412698412564e+00,2.137914772977624707e-05,1.579546424034137004e-05
2.413492063492063355e+00,1.608467936497688270e-05,1.695761782120480348e-05
2.414285714285714146e+00,1.047274982934148465e-05,1.788443593620789169e-05
2.415079365079364937e+00,5.162062169730682359e-06,1.759077835576145185e-05
2.415873015873015728e+00,6.658449248819706806e-07,1.520666078854310321e-05
2.416666666666666519e+00,-2.692371462205231713e-06,1.044029999362038905e-05
2.417460317460317309e+00,-4.794753581521568469e-06,3.866041457799987737e-06
2.418253968253968100e+00,-5.688400557142630863e-06,-3.088671365205776024e-06
2.419047619047618891e+00,-5.523014385101326614e-06,-8.467867764894497514e-06
2.419841269841269682e+00,-4.499749243136546260e-06,-1.031767386408777503e-05
2.420634920634920473e+00,-2.843698412975775751e-06,-7.248680762548334441e-06
2.421428571428571264e+00,-7.925186530070840967e-07,1.145525786058712116e-06
2.422222222222222054e+00,1.413857023657731443e-06,1.413398638835057664e-05
2.423015873015872845e+00,3.552035776455366830e-06,2.999412995500315014e-05
2.423809523809523636e+00,5.440178809500758806e-06,4.640828407344383864e-05
2.424603174603174427e+00,6.956953907839411590e-06,6.099689217154020802e-05
2.425396825396825218e+00,8.041376215450280604e-06,7.184467010933820246e-05
2.426190476190476009e+00,8.670455042426109671e-06,7.788622665338822972e-05
2.426984126984126799e+00,8.826193042988451286e-06,7.906339328097790494e-05
2.427777777777777590e+00,8.472183286201219983e-06,7.623348807191608048e-05
2.428571428571428381e+00,7.555891339668453809e-06,7.087260680494772847e-05
2.429365079365079172e+00,6.038562415310976091e-06,6.465743859822860567e-05
2.430158730158729963e+00,3.939940874513487468e-06,5.901915795447281674e-05
2.430952380952380754e+00,1.376896044345584940e-06,5.476267431954781319e-05
2.431746031746031544e+00,-1.424374953635454449e-06,5.184671476805048369e-05
2.432539682539682335e+00,-4.154313111800643491e-06,4.940702334863635487e-05
2.433333333333333126e+00,-6.481680181325117633e-06,4.604739367827926754e-05
2.434126984126983917e+00,-8.133597700069181477e-06,4.032234181981820962e-05
2.434920634920634708e+00,-8.967012440673398916e-06,3.124064265972228553e-05
2.435714285714285499e+00,-9.004933062858128058e-06,1.860228319969889314e-05
2.436507936507936289e+00,-8.421929553899854500e-06,3.069356198867720380e-06
2.437301587301587080e+00,-7.482117578886352146e-06,-1.399603528152988083e-05
2.438095238095238315e+00,-6.452237117356711510e-06,-3.081261493658480970e-05
2.438888888888889106e+00,-5.523988287974455860e-06,-4.547598159045904864e-05
2.439682539682539897e+00,-4.776677955656680201e-06,-5.623104058831828730e-05
2.440476190476190688e+00,-4.192771573865153541e-06,-6.173420590646031426e-05
2.441269841269841478e+00,-3.713365107984087586e-06,-6.131562238395132046e-05
2.442063492063492269e+00,-3.301703823165780947e-06,-5.519694696885235754e-05
2.442857142857143060e+00,-2.981601074976660589e-06,-4.456160434137583439e-05
2.443650793650793851e+00,-2.834353549420930775e-06,-3.137366367040531344e-05
2.444444444444444642e+00,-2.961377088448409538e-06,-1.792860397733993475e-05
2.445238095238095433e+00,-3.435398237395965061e-06,-6.259386468232574271e-06
2.446031746031746223e+00,-4.263214345200318159e-06,2.376297376293475132e-06
2.446825396825397014e+00,-5.372023446750633938e-06,7.718191743472749706e-06
2.447619047619047805e+00,-6.618715786996800367e-06,1.035666539720419427e-05
2.448412698412698596e+00,-7.813884948305735572e-06,1.129857478435214603e-05
2.449206349206349387e+00,-8.750908325393888068e-06,1.143379095213168897e-05
2.450000000000000178e+00,-9.233518581316429638e-06,1.111547457552471777e-05
2.450793650793650968e+00,-9.100013230397823463e-06,1.001828845752607038e-05
2.451587301587301759e+00,-8.245449415070225035e-06,7.333290717729127493e-06
2.452380952380952550e+00,-6.642889211158285362e-06,2.227482126378282818e-06
2.453174603174603341e+00,-4.361939985002389692e-06,-5.611968928501693970e-06
2.453968253968254132e+00,-1.580183738365426967e-06,-1.556578131721464916e-05
2.454761904761904923e+00,1.417957269155885527e-06,-2.596979084846716640e-05
2.455555555555555713e+00,4.260335735684435052e-06,-3.436195323612984678e-05
2.456349206349206504e+00,6.528650100612746702e-06,-3.803789476903562668e-05
2.457142857142857295e+00,7.823515623309788917e-06,-3.478159400429748884e-05
2.457936507936508086e+00,7.846549270694861328e-06,-2.359742328251174763e-05
2.458730158730158877e+00,6.482581434427026344e-06,-5.265858238843762738e-06
2.459523809523809668e+00,3.856811685302627086e-06,1.743980663681591573e-05
2.460317460317460458e+00,3.419051529667729249e-07,4.001246029536665753e-05
2.461111111111111249e+00,-3.498055764861233942e-06,5.702025032400468156e-05
2.461904761904762040e+00,-7.019513399019819184e-06,6.339918775179469602e-05
2.462698412698412831e+00,-9.639923528799652073e-06,5.594596642729172286e-05
2.463492063492063622e+00,-1.096798568962304094e-05,3.452933579477302422e-05
2.464285714285714413e+00,-1.088578487855570149e-05,2.509158817900641716e-06
2.465079365079365203e+00,-9.558096508416945671e-06,-3.391790582803201582e-05
2.465873015873015994e+00,-7.366465920701382822e-06,-6.731153979309260937e-05
2.466666666666666785e+00,-4.790822498345495445e-06,-9.099760938891302518e-05
2.467460317460317576e+00,-2.278973820686816683e-06,-1.008214407094676742e-04
2.468253968253968367e+00,-1.456527785547429763e-07,-9.611299582131279772e-05
2.469047619047619158e+00,1.472300110299311212e-06,-7.965240844362432950e-05
2.469841269841269948e+00,2.601099163719708648e-06,-5.674561823065929950e-05
2.470634920634920739e+00,3.372386984199298279e-06,-3.372783201443305524e-05
2.471428571428571530e+00,3.950218398983379765e-06,-1.629638846984688804e-05
2.472222222222222321e+00,4.468721217289625423e-06,-8.077490468536258994e-06
2.473015873015873112e+00,4.996243027933053410e-06,-9.775115395187265282e-06
2.473809523809523903e+00,5.528990029746634197e-06,-1.911795498515705456e-05
2.474603174603174693e+00,6.007795787424285964e-06,-3.161004350203029689e-05
2.475396825396825484e+00,6.347655554989071627e-06,-4.186243767391554247e-05
2.476190476190476275e+00,6.469264571866510853e-06,-4.512548825188210014e-05
2.476984126984127066e+00,6.323034582344189872e-06,-3.860586295902591409e-05
2.477777777777777857e+00,5.898914840044985933e-06,-2.223180611595423572e-05
2.478571428571428648e+00,5.220397333969891252e-06,1.317527522019480676e-06
2.479365079365079438e+00,4.327014819012963737e-06,2.731904329595073828e-05
2.480158730158730229e+00,3.253613662073864951e-06,5.026486696823955456e-05
2.480952380952381020e+00,2.015463101757717448e-06,6.533932031165823882e-05
2.481746031746031811e+00,6.069895743125052364e-07,6.971228544300900462e-05
2.482539682539682602e+00,-9.805866423604085118e-07,6.329921140523801977e-05
2.483333333333333393e+00,-2.722102290053343804e-06,4.879137624148725295e-05
2.484126984126984183e+00,-4.508908402542707482e-06,3.095422696408719527e-05
2.484920634920634974e+00,-6.103790025453919487e-06,1.537213080203049688e-05
2.485714285714285765e+00,-7.124933044022311033e-06,6.955376671376612140e-06
2.486507936507936556e+00,-7.082477288507280559e-06,8.590119331295075001e-06
2.487301587301587347e+00,-5.475905619563634046e-06,2.027356371547950529e-05
2.488095238095238138e+00,-1.933810885556836082e-06,3.894696187088386865e-05
2.488888888888888928e+00,3.647036494899445241e-06,5.908013224273560515e-05
2.489682539682539719e+00,1.101245430046214017e-05,7.391969752243914915e-05
2.490476190476190510e+00,1.954190223259842082e-05,7.717589973950472152e-05
2.491269841269841301e+00,2.831814787691028725e-05,6.477596313399415105e-05
2.492063492063492092e+00,3.624952284451864783e-05,3.621369361091486560e-05
2.492857142857142883e+00,4.221582610445422031e-05,-4.932191352797631388e-06
2.493650793650793673e+00,4.522232680375671952e-05,-5.152773222485092556e-05
2.494444444444444464e+00,4.455856698642465070e-05,-9.437130340333364743e-05
2.495238095238095255e+00,3.995645259818911916e-05,-1.242669867689041288e-04
2.496031746031746046e+00,3.172629035237368929e-05,-1.341582993766324782e-04
2.496825396825396837e+00,2.083124853431234658e-05,-1.208107770858057954e-04
2.497619047619047628e+00,8.851159059668745101e-06,-8.567117985502589218e-05
2.498412698412698418e+00,-2.208786730086326068e-06,-3.471575745639752652e-05
2.499206349206349209e+00,-1.028449060080932659e-05,2.271435804080606196e-05
2.500000000000000000e+00,-1.376215107363011713e-05,7.589160418134335167e-05
2.500793650793650791e+00,-1.202020352924476808e-05,1.150665027290840691e-04
2.501587301587301582e+00,-5.822025359833142131e-06,1.336035807053588954e-04
2.502380952380952372e+00,2.637190489740320394e-06,1.292734654363194029e-04
2.503174603174603163e+00,1.014537454640436261e-05,1.043602277554390442e-04
2.503968253968253954e+00,1.330222499501734006e-05,6.469083130866701086e-05
2.504761904761904745e+00,9.532678236854566934e-06,1.806295824495746428e-05
2.505555555555555536e+00,-2.052785148469712356e-06,-2.736128361198832655e-05
2.506349206349206327e+00,-2.026484685717807298e-05,-6.431436347866275780e-05
2.507142857142857117e+00,-4.206446225799029753e-05,-8.725027338002528906e-05
2.507936507936507908e+00,-6.334099823131893474e-05,-9.286411750369702304e-05
2.508730158730158699e+00,-7.996647408219746266e-05,-8.044502248780944554e-05
2.509523809523809490e+00,-8.876737898701344241e-05,-5.206788049196935515e-05
2.510317460317460281e+00,-8.811522459857627472e-05,-1.248755589954055768e-05
2.511111111111111072e+00,-7.801218425654708375e-05,3.142610205005091190e-05
2.511904761904761862e+00,-5.976139986104335065e-05,7.176449541930066199e-05
2.512698412698412653e+00,-3.546509272546876252e-05,1.010408948211602789e-04
2.513492063492063444e+00,-7.615009849488740110e-06,1.137416113679676791e-04
2.514285714285714235e+00,2.107487635846895261e-05,1.075792260434242344e-04
2.515079365079365026e+00,4.762757576434434016e-05,8.407505791995555848e-05
2.515873015873015817e+00,6.874635499964539800e-05,4.823798775224504671e-05
2.516666666666666607e+00,8.098603588065429639e-05,7.351738525502016254e-06
2.517460317460317398e+00,8.130467971323435258e-05,-3.082740591996649827e-05
2.518253968253968189e+00,6.793973809522178375e-05,-5.993291507986237042e-05
2.519047619047618980e+00,4.132372973422434524e-05,-7.634039128047718007e-05
2.519841269841269771e+00,4.631348527240248594e-06,-7.963754529322200409e-05
2.520634920634920562e+00,-3.638385119138359282e-05,-7.218073434974354747e-05
2.521428571428571352e+00,-7.436355998395270119e-05,-5.801020799734667697e-05
2.522222222222222143e+00,-1.019195581184115511e-04,-4.153004269130833060e-05
2.523015873015872934e+00,-1.133614720657194692e-04,-2.632150634844702169e-05
2.523809523809523725e+00,-1.060683710207410008e-04,-1.433977915687808486e-05
2.524603174603174516e+00,-8.112484336539765070e-05,-5.628654481671916875e-06
2.525396825396825307e+00,-4.308760406145184209e-05,1.407248243505749010e-06
2.526190476190476097e+00,1.003460599134556388e-06,9.235444197828002489e-06
2.526984126984126888e+00,4.309194971166857189e-05,2.010961437503257506e-05
2.527777777777777679e+00,7.571530607103604512e-05,3.493824217020545525e-05
2.528571428571428470e+00,9.344638521791825947e-05,5.244654348818861587e-05
2.529365079365079261e+00,9.390815525198762629e-05,6.898118035787843513e-05
2.530158730158730052e+00,7.817157444050374412e-05,7.919982376648751683e-05
2.530952380952380842e+00,5.044179962569759286e-05,7.761464573020432573e-05
2.531746031746031633e+00,1.707450616866582898e-05,6.059266294957331536e-05
2.532539682539682424e+00,-1.487474358325971585e-05,2.813530660514997135e-05
2.533333333333333215e+00,-3.922831855393133898e-05,-1.527625858374425478e-05
2.534126984126984006e+00,-5.199494360219804350e-05,-6.122921985311897909e-05
2.534920634920634797e+00,-5.207159973769489382e-05,-9.931219692472016984e-05
2.535714285714285587e+00,-4.117465426983246045e-05,-1.199155222481469425e-04
2.536507936507936378e+00,-2.307049149050731415e-05,-1.170379822978699820e-04
2.537301587301587169e+00,-2.384700045917194662e-06,-9.020590942123359892e-05
2.538095238095237960e+00,1.662968616377089918e-05,-4.488535159410668137e-05
2.538888888888888751e+00,3.102110237056010826e-05,8.768793123298509180e-06
2.539682539682539542e+00,3.956361904708110709e-05,5.848162109273670093e-05
2.540476190476190332e+00,4.265315568858675787e-05,9.299869847295824318e-05
2.541269841269841123e+00,4.180400271502683369e-05,1.048758519933046707e-04
2.542063492063491914e+00,3.895842976117775097e-05,9.212396926905240199e-05
2.542857142857142705e+00,3.582859397310720679e-05,5.831500399809796123e-05
2.543650793650793496e+00,3.343658872282058490e-05,1.126867765841350396e-05
2.544444444444444287e+00,3.193990564688518343e-05,-3.915229595179440316e-05
2.545238095238095077e+00,3.075040785229048960e-05,-8.345023385082761384e-05
2.546031746031745868e+00,2.888195837190278261e-05,-1.144862654357434140e-04
2.546825396825396659e+00,2.540428005128701349e-05,-1.286320949628385615e-04
2.547619047619047450e+00,1.985952737452928099e-05,-1.258887070902661655e-04
2.548412698412698241e+00,1.252375409957291010e-05,-1.090609363021963001e-04
2.549206349206349032e+00,4.449169884385046062e-06,-8.236737666898749709e-05
2.549999999999999822e+00,-2.723113159067362209e-06,-5.004589117892762273e-05
2.550793650793650613e+00,-7.144620021191784199e-06,-1.546151204094846319e-05
2.551587301587301404e+00,-7.257376563931762467e-06,1.905916155775307813e-05
2.552380952380952195e+00,-2.294220055289274033e-06,5.180244000616513269e-05
2.553174603174602986e+00,7.347052589861813880e-06,8.104181309362187683e-05
2.553968253968253777e+00,1.997021140633495654e-05,1.046561948898619887e-04
2.554761904761904567e+00,3.276224535224998028e-05,1.202779195717053497e-04
2.555555555555555358e+00,4.230152880222319474e-05,1.259444602016408863e-04
2.556349206349206149e+00,4.532004634604869589e-05,1.209056029623913422e-04
2.557142857142856940e+00,3.955688954174295114e-05,1.060994166922477251e-04
2.557936507936507731e+00,2.447540568481868718e-05,8.396408936606474405e-05
2.558730158730158522e+00,1.612019620498490962e-06,5.761631665705733128e-05
2.559523809523809312e+00,-2.560285503279232356e-05,2.978246391132783726e-05
2.560317460317460103e+00,-5.257197534457664425e-05,2.012483052991907913e-06
2.561111111111110894e+00,-7.465135337102824030e-05,-2.543678470414383183e-05
2.561904761904761685e+00,-8.835039162119155004e-05,-5.301045149835788848e-05
2.562698412698412920e+00,-9.223007123608321087e-05,-8.087720164780308821e-05
2.563492063492063711e+00,-8.719018801455030959e-05,-1.080578821239788962e-04
2.564285714285714501e+00,-7.604164223828527118e-05,-1.320691896076324500e-04
2.565079365079365292e+00,-6.251474874324035997e-05,-1.492335641511447712e-04
2.565873015873016083e+00,-5.004940902997407032e-05,-1.555396121029548322e-04
2.566666666666666874e+00,-4.077208644424786644e-05,-1.477666618511349814e-04
2.567460317460317665e+00,-3.498010597216826304e-05,-1.245244957458602859e-04
2.568253968253968456e+00,-3.127270572332542173e-05,-8.688496399654582736e-05
2.569047619047619246e+00,-2.725614993692807505e-05,-3.840100830706290341e-05
2.569841269841270037e+00,-2.056831924838086457e-05,1.548307839748050435e-05
2.570634920634920828e+00,-9.867155723649077698e-06,6.840889999759574940e-05
2.571428571428571619e+00,4.560714573136321951e-06,1.141507554799639301e-04
2.572222222222222410e+00,2.078936920026078751e-05,1.474941594622699074e-04
2.573015873015873201e+00,3.585543486632749243e-05,1.648774586587615652e-04
2.573809523809523991e+00,4.676827058454963626e-05,1.648315158899178018e-04
2.574603174603174782e+00,5.156740566333655010e-05,1.482148834313884824e-04
2.575396825396825573e+00,5.003452614627495440e-05,1.181348167336304921e-04
2.576190476190476364e+00,4.378178474506944979e-05,7.941602255670917243e-05
2.576984126984127155e+00,3.566329846562396111e-05,3.761633373062984217e-05
2.577777777777777946e+00,2.871227146672326871e-05,-2.168302395769302388e-06
2.578571428571428736e+00,2.499445325771546363e-05,-3.629406021369286609e-05
2.579365079365079527e+00,2.481134165307665918e-05,-6.299038360137595657e-05
2.580158730158730318e+00,2.656266306037931497e-05,-8.210664738458829572e-05
2.580952380952381109e+00,2.733542198562707677e-05,-9.436166934400226202e-05
2.581746031746031900e+00,2.401861913111944259e-05,-1.004160364368232941e-04
2.582539682539682691e+00,1.454661448620257388e-05,-1.000938687536254536e-04
2.583333333333333481e+00,-1.178069079212087899e-06,-9.204379658678500523e-05
2.584126984126984272e+00,-2.101972168362936717e-05,-7.406431256205668221e-05
2.584920634920635063e+00,-4.110492183370093754e-05,-4.415400330797673368e-05
2.585714285714285854e+00,-5.691020997634781457e-05,-2.053733127069743762e-06
2.586507936507936645e+00,-6.456529987401035090e-05,4.927165795935264697e-05
2.587301587301587436e+00,-6.193088326283506257e-05,1.029268601641422892e-04
2.588095238095238226e+00,-4.911673262566316101e-05,1.487314953800469429e-04
2.588888888888889017e+00,-2.833029199202167155e-05,1.753442043267696901e-04
2.589682539682539808e+00,-3.180678878432381233e-06,1.733818343739803745e-04
2.590476190476190599e+00,2.228596800900685255e-05,1.385513336526043469e-04
2.591269841269841390e+00,4.450855319840989286e-05,7.367783124898466334e-05
2.592063492063492181e+00,6.103820430095615137e-05,-1.118287028612243957e-05
2.592857142857142971e+00,7.073542526330969414e-05,-1.007426351430957564e-04
2.593650793650793762e+00,7.354871877743986510e-05,-1.780748966507561288e-04
2.594444444444444553e+00,7.003059257232540182e-05,-2.287213488636785402e-04
2.595238095238095344e+00,6.084089323188545713e-05,-2.440387386430538093e-04
2.596031746031746135e+00,4.648396980686413023e-05,-2.228203467909006406e-04
2.596825396825396925e+00,2.741514054447604184e-05,-1.708975815424055265e-04
2.597619047619047716e+00,4.472607235439196166e-06,-9.912432455917719043e-05
2.598412698412698507e+00,-2.058582287001749342e-05,-2.055950144460641290e-05
2.599206349206349298e+00,-4.475833554100888516e-05,5.230692458371642267e-05
2.600000000000000089e+00,-6.396330163188157850e-05,1.096833429913892510e-04
2.600793650793650880e+00,-7.378828438606969845e-05,1.456922553814552683e-04
2.601587301587301670e+00,-7.066978250318328638e-05,1.586760589036620146e-04
2.602380952380952461e+00,-5.313929937616439626e-05,1.507454378885098836e-04
2.603174603174603252e+00,-2.269482599329367026e-05,1.267782968822451313e-04
2.603968253968254043e+00,1.605443133559866662e-05,9.311991589204413272e-05
2.604761904761904834e+00,5.610799366371138831e-05,5.628833709193597590e-05
2.605555555555555625e+00,8.953611387781407074e-05,2.197627314102044977e-05
2.606349206349206415e+00,1.093295047396843300e-04,-5.500025420375537304e-06
2.607142857142857206e+00,1.111358011475566463e-04,-2.335883200219607682e-05
2.607936507936507997e+00,9.436857829804569614e-05,-3.030661573518688817e-05
2.608730158730158788e+00,6.232675226509186591e-05,-2.647075124955067176e-05
2.609523809523809579e+00,2.125807276461076889e-05,-1.337747299769340025e-05
2.610317460317460370e+00,-2.135158198966385492e-05,6.102753293349810331e-06
2.611111111111111160e+00,-5.871312017277116699e-05,2.799435900309470469e-05
2.611904761904761951e+00,-8.626940127847160255e-05,4.774337812782103338e-05
2.612698412698412742e+00,-1.023697167701653380e-04,6.099927112002132744e-05
2.613492063492063533e+00,-1.079625892755900420e-04,6.449140902034141678e-05
2.614285714285714324e+00,-1.055569054613035682e-04,5.678225333262776982e-05
2.615079365079365115e+00,-9.794286614402333022e-05,3.868316386948644357e-05
2.615873015873015905e+00,-8.718532931179555150e-05,1.315873934473926018e-05
2.616666666666666696e+00,-7.421945779944940660e-05,-1.535329519932095781e-05
2.617460317460317487e+00,-5.908978853631685933e-05,-4.207985726427771421e-05
2.618253968253968278e+00,-4.160513053120628544e-05,-6.314580432404374869e-05
2.619047619047619069e+00,-2.204044297858966429e-05,-7.644426419150710623e-05
2.619841269841269860e+00,-1.548261425443360764e-06,-8.184475707357953816e-05
2.620634920634920650e+00,1.789227540725721175e-05,-8.075981150285666975e-05
2.621428571428571441e+00,3.395312587260600385e-05,-7.534669823423225299e-05
2.622222222222222232e+00,4.466181837596080062e-05,-6.767996418061744050e-05
2.623015873015873023e+00,4.905764045299781327e-05,-5.913927647544243163e-05
2.623809523809523814e+00,4.754820348977378423e-05,-5.013329577104094211e-05
2.624603174603174605e+00,4.182222880291372924e-05,-4.018638803132513424e-05
2.625396825396825395e+00,3.433119976676747987e-05,-2.834524677328761284e-05
2.626190476190476186e+00,2.751159517568754439e-05,-1.379581913831619558e-05
2.626984126984126977e+00,2.302475853645380438e-05,3.485990138622391518e-06
2.627777777777777768e+00,2.129272691970745399e-05,2.227368655732994403e-05
2.628571428571428559e+00,2.149282428660758486e-05,4.003499752355460582e-05
2.629365079365079350e+00,2.198970838736570961e-05,5.340465346634611039e-05
2.630158730158730140e+00,2.101712916180413509e-05,5.913488066137479121e-05
2.630952380952380931e+00,1.734316970062227447e-05,5.526257824150781090e-05
2.631746031746031722e+00,1.068375818085285843e-05,4.206532230927556668e-05
2.632539682539682513e+00,1.746618130217084220e-06,2.236971594316102373e-05
2.633333333333333304e+00,-8.060372905347950350e-06,9.943137687989220295e-07
2.634126984126984095e+00,-1.709906431733279792e-05,-1.652419278270981910e-05
2.634920634920634885e+00,-2.394562666170413506e-05,-2.546268640284478130e-05
2.635714285714285676e+00,-2.765020157496265546e-05,-2.315554938282740236e-05
2.636507936507936467e+00,-2.775882888697170863e-05,-9.556533040247366126e-06
2.637301587301587258e+00,-2.416225040903950211e-05,1.298804192086515396e-05
2.638095238095238049e+00,-1.691059486981381427e-05,4.056508689206597972e-05
2.638888888888888840e+00,-6.133736985434347530e-06,6.873583777077739128e-05
2.639682539682539630e+00,7.861954960427945986e-06,9.339633798351724319e-05
2.640476190476190421e+00,2.435452914514768579e-05,1.112383555186492772e-04
2.641269841269841212e+00,4.195056685564964213e-05,1.198554642832797332e-04
2.642063492063492003e+00,5.847521849448176270e-05,1.177179585207655243e-04
2.642857142857142794e+00,7.113872793237813468e-05,1.042190656009323328e-04
2.643650793650793585e+00,7.702084720521986901e-05,7.982389154687340735e-05
2.644444444444444375e+00,7.379600748716850123e-05,4.620497810695433060e-05
2.645238095238095166e+00,6.050836265798993277e-05,6.236803754092632378e-06
2.646031746031745957e+00,3.813654880341065678e-05,-3.620494306741453290e-05
2.646825396825396748e+00,9.703350251591564616e-06,-7.663961104096566495e-05
2.647619047619047539e+00,-2.019556581550602977e-05,-1.105563588995128412e-04
2.648412698412698330e+00,-4.637617042878293438e-05,-1.341179291715683037e-04
2.649206349206349120e+00,-6.430460298310536793e-05,-1.448733778819226187e-04
2.649999999999999911e+00,-7.122490693251232012e-05,-1.422884263152342438e-04
2.650793650793650702e+00,-6.683589624234568475e-05,-1.278927564481206964e-04
2.651587301587301493e+00,-5.331756388692425328e-05,-1.049345233855117918e-04
2.652380952380952284e+00,-3.470596873090200127e-05,-7.760026916462581172e-05
2.653174603174603075e+00,-1.580375852557055504e-05,-5.002622058249093779e-05
2.653968253968253865e+00,-9.382889029769766493e-07,-2.541116361977154470e-05
2.654761904761904656e+00,7.088217476165316726e-06,-5.498520848012633693e-06
2.655555555555555447e+00,7.576497417948511368e-06,9.451176671062536447e-06
2.656349206349206238e+00,1.899160115311701362e-06,2.025331655366222045e-05
2.657142857142857029e+00,-7.093666149519087491e-06,2.815128358950523378e-05
2.657936507936507819e+00,-1.601970725375392122e-05,3.418135484184210427e-05
2.658730158730158610e+00,-2.195594582597485512e-05,3.877040107905609903e-05
2.659523809523809401e+00,-2.318564979509336917e-05,4.167043329088774672e-05
2.660317460317460192e+00,-1.951948386289718848e-05,4.219280265503604240e-05
2.661111111111110983e+00,-1.215938969086671680e-05,3.960745866891854226e-05
2.661904761904761774e+00,-3.205601427433780448e-06,3.354580439802328661e-05
2.662698412698412564e+00,5.015073220144265283e-06,2.427132319745740224e-05
2.663492063492063355e+00,1.060172307810545024e-05,1.273602643176953151e-05
2.664285714285714146e+00,1.254155266959352155e-05,4.102164226321547383e-07
2.665079365079364937e+00,1.087482578965031029e-05,-1.105438912995744141e-05
2.665873015873015728e+00,6.546649480106312853e-06,-2.021369320324910998e-05
2.666666666666666519e+00,1.026537439885270139e-06,-2.614440438394291565e-05
2.667460317460317309e+00,-4.155965425802117270e-06,-2.858911704382134804e-05
2.668253968253968100e+00,-7.804021205388285727e-06,-2.791006435532931900e-05
2.669047619047618891e+00,-9.272126410493685959e-06,-2.489804209285719915e-05
2.669841269841269682e+00,-8.488162099474292867e-06,-2.052375392089284773e-05
2.670634920634920473e+00,-5.822848448050511916e-06,-1.571780797113647723e-05
2.671428571428571264e+00,-1.883566597993241543e-06,-1.123013060024539846e-05
2.672222222222222054e+00,2.689235417045725019e-06,-7.572816389108771519e-06
2.673015873015872845e+00,7.366260646998011343e-06,-5.018626341838063982e-06
2.673809523809523636e+00,1.179149289495006386e-05,-3.623501725429239371e-06
2.674603174603174427e+00,1.577280051497108765e-05,-3.258135041515805095e-06
2.675396825396825218e+00,1.922983466110164601e-05,-3.650694605616115948e-06
2.676190476190476009e+00,2.212687314760677964e-05,-4.445266225980549280e-06
2.676984126984126799e+00,2.440800916446310396e-05,-5.271277910342093266e-06
2.677777777777777590e+00,2.594693550629616631e-05,-5.811706066140488424e-06
2.678571428571428381e+00,2.652587141169509912e-05,-5.859030054622037391e-06
2.679365079365079172e+00,2.585768891173696938e-05,-5.352189435380887932e-06
2.680158730158729963e+00,2.365345923441513923e-05,-4.387075337541792448e-06
2.680952380952380754e+00,1.971835580393319805e-05,-3.187765306457274901e-06
2.681746031746031544e+00,1.404473179062148235e-05,-2.027050905192000489e-06
2.682539682539682335e+00,6.871582106255025192e-06,-1.104358754426712174e-06
2.683333333333333126e+00,-1.306913704139038007e-06,-4.223380217222558122e-07
2.684126984126983917e+00,-9.783602570347992922e-06,2.732499179024397067e-07
2.684920634920634708e+00,-1.771838725708919796e-05,1.436297666912609306e-06
2.685714285714285499e+00,-2.423908266333722758e-05,3.540417856161029850e-06
2.686507936507936289e+00,-2.855027969024291282e-05,6.836693949621131041e-06
2.687301587301587080e+00,-3.004470759408273554e-05,1.115697537304272730e-05
2.688095238095238315e+00,-2.841354384536903495e-05,1.586909939831781689e-05
2.688888888888889106e+00,-2.374308096880209715e-05,2.003184926893231794e-05
2.689682539682539897e+00,-1.656932345485897661e-05,2.270447412531459577e-05
2.690476190476190688e+00,-7.853333650620028685e-06,2.328459719376594150e-05
2.691269841269841478e+00,1.147426216429020953e-06,2.172539394988956538e-05
2.692063492063492269e+00,9.101559235275163588e-06,1.853357570097320130e-05
2.692857142857143060e+00,1.486870345083251741e-05,1.454741291448302296e-05
2.693650793650793851e+00,1.773200591279614074e-05,1.058923379859363391e-05
2.694444444444444642e+00,1.753039439955428525e-05,7.137512555099582881e-06
2.695238095238095433e+00,1.465722559966982205e-05,4.153082462060476677e-06
2.696031746031746223e+00,9.937017483904864016e-06,1.132063201050181148e-06
2.696825396825397014e+00,4.428969227035734350e-06,-2.627970537242274540e-06
2.697619047619047805e+00,-7.799580209902939804e-07,-7.641811840045849053e-06
2.698412698412698596e+00,-4.743428866476733516e-06,-1.387293977624762083e-05
2.699206349206349387e+00,-6.768758767071329839e-06,-2.053686783102843546e-05
2.700000000000000178e+00,-6.486682464612316728e-06,-2.616541655693364519e-05
2.700793650793650968e+00,-3.896908945426447694e-06,-2.893754831186893546e-05
2.701587301587301759e+00,6.064272099824073924e-07,-2.718996098534833802e-05
2.702380952380952550e+00,6.244825983710854437e-06,-1.995725761476625237e-05
2.703174603174603341e+00,1.192431180180377862e-05,-7.374253823673330794e-06
2.703968253968254132e+00,1.637926804376652781e-05,9.197252077190020542e-06
2.704761904761904923e+00,1.838870584567568807e-05,2.738472179286660619e-05
2.705555555555555713e+00,1.703541131262698220e-05,4.433125081645962180e-05
2.706349206349206504e+00,1.194864058716202998e-05,5.739041552639988686e-05
2.707142857142857295e+00,3.453699918939488271e-06,6.477238138180636709e-05
2.707936507936508086e+00,-7.434772896965041887e-06,6.592812828647207199e-05
2.708730158730158877e+00,-1.919139031605312230e-05,6.155478897668556601e-05
2.709523809523809668e+00,-3.008517217889499623e-05,5.325047230386026733e-05
2.710317460317460458e+00,-3.852340257572716597e-05,4.297005251209036247e-05
2.711111111111111249e+00,-4.334045537477482300e-05,3.248381260883644901e-05
2.711904761904762040e+00,-4.396450729400744139e-05,2.301360375707675490e-05
2.712698412698412831e+00,-4.043755641078272260e-05,1.514093781509338519e-05
2.713492063492063622e+00,-3.330783665438582521e-05,8.975906369546181695e-06
2.714285714285714413e+00,-2.344921442691079623e-05,4.473212197603867463e-06
2.715079365079365203e+00,-1.187933390658540637e-05,1.721027810430570560e-06
2.715873015873015994e+00,3.648652727551804951e-07,1.045959793113230697e-06
2.716666666666666785e+00,1.227956613598392173e-05,2.872653202530131564e-06
2.717460317460317576e+00,2.290996821074522776e-05,7.403635710183770452e-06
2.718253968253968367e+00,3.138493893665589973e-05,1.428081822847094881e-05
2.719047619047619158e+00,3.700004517110434967e-05,2.241059407670502904e-05
2.719841269841269948e+00,3.933086740145609297e-05,3.007329056353087905e-05
2.720634920634920739e+00,3.832718409687111696e-05,3.532216637247748598e-05
2.721428571428571530e+00,3.434159868191330456e-05,3.655231953720163523e-05
2.722222222222222321e+00,2.807222619309966610e-05,3.303450735090184616e-05
2.723015873015873112e+00,2.042879019804645657e-05,2.520224717823994973e-05
2.723809523809523903e+00,1.235573569223122010e-05,1.456313594885202866e-05
2.724603174603174693e+00,4.661801297397386282e-06,3.245334086525618946e-06
2.725396825396825484e+00,-2.094173344128991337e-06,-6.673227282046173018e-06
2.726190476190476275e+00,-7.633216511315267673e-06,-1.382690782662701437e-05
2.726984126984127066e+00,-1.191009950378303210e-05,-1.799127046100780828e-05
2.727777777777777857e+00,-1.502752302383764770e-05,-2.012703336236722632e-05
2.728571428571428648e+00,-1.715093589955134589e-05,-2.200842045878789347e-05
2.729365079365079438e+00,-1.844912018374658685e-05,-2.554516564361522185e-05
2.730158730158730229e+00,-1.906863021490495176e-05,-3.202303914510606280e-05
2.730952380952381020e+00,-1.913892414217711243e-05,-4.153056040798893230e-05
2.731746031746031811e+00,-1.879460561906389399e-05,-5.278351134448477309e-05
2.732539682539682602e+00,-1.819052180398908307e-05,-6.342213952473257791e-05
2.733333333333333393e+00,-1.748524608907813763e-05,-7.069269804452484539e-05
2.734126984126984183e+00,-1.678687626196421521e-05,-7.229552600572882641e-05
2.734920634920634974e+00,-1.608253410360006134e-05,-6.712693511769568717e-05
2.735714285714285765e+00,-1.518954650472160529e-05,-5.567497936149224275e-05
2.736507936507936556e+00,-1.376194353729002765e-05,-3.993880127337186801e-05
2.737301587301587347e+00,-1.136665852735345749e-05,-2.289530948174593191e-05
2.738095238095238138e+00,-7.620114547203603470e-06,-7.685559021026402919e-06
2.738888888888888928e+00,-2.352803252563636571e-06,3.216381750087414966e-06
2.739682539682539719e+00,4.249673916156265701e-06,8.590104309628081276e-06
2.740476190476190510e+00,1.158756831178363905e-05,8.640163549174774768e-06
2.741269841269841301e+00,1.871316189901189552e-05,4.729295374495516105e-06
2.742063492063492092e+00,2.452628595493228152e-05,-1.197773225049920691e-06
2.742857142857142883e+00,2.805250246362991603e-05,-7.274255529406038694e-06
2.743650793650793673e+00,2.871679606436400244e-05,-1.222475021503147550e-05
2.744444444444444464e+00,2.651690266658375086e-05,-1.558755672843190147e-05
2.745238095238095255e+00,2.203161212650256185e-05,-1.763162611976303891e-05
2.746031746031746046e+00,1.625894711005378775e-05,-1.906461347656288022e-05
2.746825396825396837e+00,1.034118859017191602e-05,-2.067519915909328106e-05
2.747619047619047628e+00,5.271600053794624202e-06,-2.303495686504019194e-05
2.748412698412698418e+00,1.676810006034596703e-06,-2.633216042663291009e-05
2.749206349206349209e+00,-2.669441575533139215e-07,-3.035180838549233272e-05
2.750000000000000000e+00,-7.775966791618130432e-07,-3.456991288618974420e-05
2.750793650793650791e+00,-3.118277344836046131e-07,-3.830512580957015921e-05
2.751587301587301582e+00,6.220574155502606004e-07,-4.087132529286816490e-05
2.752380952380952372e+00,1.615163214917333906e-06,-4.169628015297179333e-05
2.753174603174603163e+00,2.429778810739315358e-06,-4.040042981343077718e-05
2.753968253968253954e+00,2.987618815394594696e-06,-3.685048196560011471e-05
2.754761904761904745e+00,3.305520258332757269e-06,-3.120499608033687982e-05
2.755555555555555536e+00,3.424496840898705733e-06,-2.395341050117678842e-05
2.756349206349206327e+00,3.367482596788088688e-06,-1.592572925849555481e-05
2.757142857142857117e+00,3.134953413609422779e-06,-8.231705077106935361e-06
2.757936507936507908e+00,2.723720851993033691e-06,-2.088849457830946901e-06
2.758730158730158699e+00,2.145771374012663551e-06,1.473021926777455798e-06
2.759523809523809490e+00,1.432056279618470981e-06,1.985008549761285726e-06
2.760317460317460281e+00,6.216435964878917929e-07,-1.271540956122672860e-07
2.761111111111111072e+00,-2.517606780386201465e-07,-3.410877172761411488e-06
2.761904761904761862e+00,-1.163287600859789328e-06,-5.589782304460972704e-06
2.762698412698412653e+00,-2.086987911900614949e-06,-4.122614184277768281e-06
2.763492063492063444e+00,-2.980117508165308266e-06,3.015066985766045725e-06
2.764285714285714235e+00,-3.773793493853713269e-06,1.657706791511143210e-05
2.765079365079365026e+00,-4.378694496153054241e-06,3.559382785916505282e-05
2.765873015873015817e+00,-4.706539555604769855e-06,5.740873938719044054e-05
2.766666666666666607e+00,-4.699498429731898915e-06,7.822928703320139205e-05
2.767460317460317398e+00,-4.353572760872087751e-06,9.403943717739470724e-05
2.768253968253968189e+00,-3.722501895462948113e-06,1.015935767645831161e-04
2.769047619047618980e+00,-2.898667234989131856e-06,9.919201818401235556e-05
2.769841269841269771e+00,-1.982620566185336040e-06,8.702853139599467922e-05
2.770634920634920562e+00,-1.061962593657735163e-06,6.705320142345033024e-05
2.771428571428571352e+00,-2.141356685406031805e-07,4.244192051507850486e-05
2.772222222222222143e+00,4.708406568860810041e-07,1.686217090463062578e-05
2.773015873015872934e+00,8.688963669537295630e-07,-6.244595490265659018e-06
2.773809523809523725e+00,8.263946447424099671e-07,-2.418632428036735817e-05
2.774603174603174516e+00,2.028093439972445524e-07,-3.527138035408331379e-05
2.775396825396825307e+00,-1.058049253755535937e-06,-3.881688333087777223e-05
2.776190476190476097e+00,-2.858900867306496469e-06,-3.501091563556981827e-05
2.776984126984126888e+00,-4.921164368245181222e-06,-2.474063247849327154e-05
2.777777777777777679e+00,-6.825528848307313457e-06,-9.476416520301709132e-06
2.778571428571428470e+00,-8.117775429412287501e-06,8.755226464685329183e-06
2.779365079365079261e+00,-8.444002466479954503e-06,2.736825282435952414e-05
2.780158730158730052e+00,-7.664193473512960367e-06,4.331919735857976542e-05
2.780952380952380842e+00,-5.904069117006828389e-06,5.344183193032205471e-05
2.781746031746031633e+00,-3.532316500736981951e-06,5.502904634046110893e-05
2.782539682539682424e+00,-1.075111371134778341e-06,4.653552188998028174e-05
2.783333333333333215e+00,9.071078883232656670e-07,2.819347950497994482e-05
2.784126984126984006e+00,1.951132208298646232e-06,2.333277460580162237e-06
2.784920634920634797e+00,1.800197533384745642e-06,-2.674765924298837130e-05
2.785714285714285587e+00,4.635705369381226587e-07,-5.343466493881630583e-05
2.786507936507936378e+00,-1.790388694477693661e-06,-7.189891803242469187e-05
2.787301587301587169e+00,-4.507435711810439304e-06,-7.743093081752957640e-05
2.788095238095237960e+00,-7.167447314238478400e-06,-6.765919229980318060e-05
2.788888888888888751e+00,-9.316637005439507780e-06,-4.328855836479927828e-05
2.789682539682539542e+00,-1.067253811256985927e-05,-8.101517404974932686e-06
2.790476190476190332e+00,-1.117143319612730230e-05,3.183027516654137932e-05
2.791269841269841123e+00,-1.094873575529713248e-05,6.954585165457219484e-05
2.792063492063491914e+00,-1.026634895783205645e-05,9.883932903361756551e-05
2.792857142857142705e+00,-9.416376691492567874e-06,1.156905556407879091e-04
2.793650793650793496e+00,-8.632460459925501834e-06,1.190673446082749030e-04
2.794444444444444287e+00,-8.031500691180978077e-06,1.108666289800776760e-04
2.795238095238095077e+00,-7.596330122855888902e-06,9.503154364545385508e-05
2.796031746031745868e+00,-7.198578392666572962e-06,7.614770301954997878e-05
2.796825396825396659e+00,-6.651774902048730871e-06,5.799002959307498497e-05
2.797619047619047450e+00,-5.778041553633583879e-06,4.249720441697863414e-05
2.798412698412698241e+00,-4.468628210460654982e-06,2.948935656518225859e-05
2.799206349206349032e+00,-2.720647621524993243e-06,1.717986012927778545e-05
2.799999999999999822e+00,-6.403920136709278910e-07,3.264210996527707129e-06
2.800793650793650613e+00,1.584424115631807534e-06,-1.381619615897219794e-05
2.801587301587301404e+00,3.730579027181821719e-06,-3.389011707723962240e-05
2.802380952380952195e+00,5.587037717637597655e-06,-5.471117571487413414e-05
2.803174603174602986e+00,6.992609370761242568e-06,-7.239416130173920291e-05
2.803968253968253777e+00,7.859306838243802236e-06,-8.251786136908257025e-05
2.804761904761904567e+00,8.181867813639415421e-06,-8.156845052168819527e-05
2.805555555555555358e+00,8.034348004646588908e-06,-6.828408324079230957e-05
2.806349206349206149e+00,7.553464621006585750e-06,-4.445816029723634094e-05
2.807142857142856940e+00,6.908462635338565944e-06,-1.487296749649141589e-05
2.807936507936507731e+00,6.259871362249657953e-06,1.372783979154745191e-05
2.808730158730158522e+00,5.713866639747466178e-06,3.439526056704323489e-05
2.809523809523809312e+00,5.283133151517418495e-06,4.192721439489537836e-05
2.810317460317460103e+00,4.867084758119882623e-06,3.436520957116410009e-05
2.811111111111110894e+00,4.262794568943472589e-06,1.352773686561233482e-05
2.811904761904761685e+00,3.212679680503843304e-06,-1.558833338612030249e-05
2.812698412698412920e+00,1.486304464890622700e-06,-4.633429021465820032e-05
2.813492063492063711e+00,-1.016838987067222887e-06,-7.238140209520722498e-05
2.814285714285714501e+00,-4.166086917771168115e-06,-8.952367579169659959e-05
2.815079365079365292e+00,-7.527087012438177984e-06,-9.673762201511429371e-05
2.815873015873016083e+00,-1.034307373525071776e-05,-9.615599490452152317e-05
2.816666666666666874e+00,-1.158760065843598509e-05,-9.198550722683753876e-05
2.817460317460317665e+00,-1.009801663456423037e-05,-8.876524399701880537e-05
2.818253968253968456e+00,-4.791324952149217628e-06,-8.956385100919008802e-05
2.819047619047619246e+00,5.048101899765599417e-06,-9.469538215977223899e-05
2.819841269841270037e+00,1.944414571402204437e-05,-1.013518629678437764e-04
2.820634920634920828e+00,3.743963455507973110e-05,-1.042927309326779873e-04
2.821428571428571619e+00,5.694638105091734138e-05,-9.745409612987595649e-05
2.822222222222222410e+00,7.484369799821837552e-05,-7.607039565934291681e-05
2.823015873015873201e+00,8.739554721796077678e-05,-3.868509188443402792e-05
2.823809523809523991e+00,9.097428794958626718e-05,1.163567452282191498e-05
2.824603174603174782e+00,8.297081311041690167e-05,6.739235036508585592e-05
2.825396825396825573e+00,6.266882730471566359e-05,1.181447691916689491e-04
2.826190476190476364e+00,3.180779151506814425e-05,1.530279827478082044e-04
2.826984126984127155e+00,-5.407871369383961028e-06,1.635538887548358233e-04
2.827777777777777946e+00,-4.296565350516363187e-05,1.458722807012765286e-04
2.828571428571428736e+00,-7.428058936392315707e-05,1.018669513910901804e-04
2.829365079365079527e+00,-9.371480196095549262e-05,3.885513508813468868e-05
2.830158730158730318e+00,-9.795114196400248171e-05,-3.193246771262117439e-05
2.830952380952381109e+00,-8.679604512423033473e-05,-9.764505516974007803e-05
2.831746031746031900e+00,-6.314814406828719287e-05,-1.463598972637683159e-04
2.832539682539682691e+00,-3.213680166024285284e-05,-1.694278144138850882e-04
2.833333333333333481e+00,2.888098126338561516e-07,-1.632365168773646468e-04
2.834126984126984272e+00,2.885946665883242879e-05,-1.300455403239898615e-04
2.834920634920635063e+00,5.010137301977499440e-05,-7.759088256788550795e-05
2.835714285714285854e+00,6.275381037749835553e-05,-1.733841732021494057e-05
2.836507936507936645e+00,6.744182571397560819e-05,3.835678315012984609e-05
2.837301587301587436e+00,6.582552372947809440e-05,7.946644978614295660e-05
2.838095238095238226e+00,5.961732022695338850e-05,1.008691032449793242e-04
2.838888888888889017e+00,4.986631244345936980e-05,1.033799218715267888e-04
2.839682539682539808e+00,3.675455061092266091e-05,9.283196911187335722e-05
2.840476190476190599e+00,1.990567674206374470e-05,7.754577274577606277e-05
2.841269841269841390e+00,-1.010083439165967461e-06,6.514956805636836509e-05
2.842063492063492181e+00,-2.567961107681785912e-05,5.994035081373801619e-05
2.842857142857142971e+00,-5.280188752844196628e-05,6.171535976593550893e-05
2.843650793650793762e+00,-8.008207905813250079e-05,6.639135147388682803e-05
2.844444444444444553e+00,-1.045039624262376757e-04,6.803945460007713606e-05
2.845238095238095344e+00,-1.227530693758925584e-04,6.147371580036464550e-05
2.846031746031746135e+00,-1.316862766817914637e-04,4.440973940667440530e-05
2.846825396825396925e+00,-1.288059347654016233e-04,1.846678242183800487e-05
2.847619047619047716e+00,-1.127357156845201487e-04,-1.121591308401215416e-05
2.848412698412698507e+00,-8.368092491418701294e-05,-3.747445011514571135e-05
2.849206349206349298e+00,-4.379921722190155685e-05,-5.315542489737440737e-05
2.850000000000000089e+00,2.651587319177999320e-06,-5.308638932462803034e-05
2.850793650793650880e+00,4.953739924583988987e-05,-3.551535459026468371e-05
2.851587301587301670e+00,8.954126432229940176e-05,-2.734441192735074199e-06
2.852380952380952461e+00,1.153215083038971447e-04,3.923605676299844427e-05
2.853174603174603252e+00,1.210059899718094416e-04,8.187240614093927111e-05
2.853968253968254043e+00,1.037642845774114722e-04,1.160550055607572034e-04
2.854761904761904834e+00,6.507786419452320746e-05,1.341973340247058061e-04
2.855555555555555625e+00,1.126547701944033911e-05,1.319738029762865283e-04
2.856349206349206415e+00,-4.710126274103727562e-05,1.091043215329166291e-04
2.857142857142857206e+00,-9.700061314264421400e-05,6.900952674684555314e-05
2.857936507936507997e+00,-1.257206147488520119e-04,1.759911809113244913e-05
2.858730158730158788e+00,-1.239694796171282988e-04,-3.825670970908946484e-05
2.859523809523809579e+00,-8.853586269308014514e-05,-9.201691871700611123e-05
2.860317460317460370e+00,-2.372660567014221302e-05,-1.381893634943062298e-04
2.861111111111111160e+00,5.893206960043148801e-05,-1.724681861857177249e-04
2.861904761904761951e+00,1.428121638156210624e-04,-1.915427223119087208e-04
2.862698412698412742e+00,2.097128792772000685e-04,-1.929356728786861010e-04
2.863492063492063533e+00,2.439847584307090105e-04,-1.751368916460596919e-04
2.864285714285714324e+00,2.362251951795149747e-04,-1.380732507123846138e-04
2.865079365079365115e+00,1.855890905705986568e-04,-8.371738626589821195e-05
2.865873015873015905e+00,1.000996319185782198e-04,-1.650854422918328335e-05
2.866666666666666696e+00,-5.134101023636672004e-06,5.670844974295628928e-05
2.867460317460317487e+00,-1.113352968624112439e-04,1.273587789255291617e-04
2.868253968253968278e+00,-2.002284667023572831e-04,1.863586942884540060e-04
2.869047619047619069e+00,-2.578914305078769615e-04,2.256502513172500065e-04
2.869841269841269860e+00,-2.773474055117652252e-04,2.397249346664701941e-04
2.870634920634920650e+00,-2.593495975991918926e-04,2.267850578830780961e-04
2.871428571428571441e+00,-2.113329137767740575e-04,1.892394712808859343e-04
2.872222222222222232e+00,-1.449837958731889983e-04,1.333685056443805611e-04
2.873015873015873023e+00,-7.318615829606863615e-05,6.820034719449634246e-05
2.873809523809523814e+00,-7.181066951043615233e-06,3.845551933001770397e-06
2.874603174603174605e+00,4.537458717949718656e-05,-5.033369814175464672e-05
2.875396825396825395e+00,8.109882247332990900e-05,-8.731680503415590320e-05
2.876190476190476186e+00,1.003816369280318956e-04,-1.034479270280420048e-04
2.876984126984126977e+00,1.060925589814603758e-04,-9.871109822785462627e-05
2.877777777777777768e+00,1.020704393481270289e-04,-7.629935949722067064e-05
2.878571428571428559e+00,9.190920852911729029e-05,-4.173358743724513701e-05
2.879365079365079350e+00,7.832487354554632734e-05,-1.869024331886755700e-06
2.880158730158730140e+00,6.311376089957284512e-05,3.598469695664705095e-05
2.880952380952380931e+00,4.750450106817376018e-05,6.481624397738817588e-05
2.881746031746031722e+00,3.261820450746370992e-05,7.866085809763152077e-05
2.882539682539682513e+00,1.977661623519582493e-05,7.343541569151140909e-05
2.883333333333333304e+00,1.050551988696326108e-05,4.779522075440391859e-05
2.884126984126984095e+00,6.230507055007848364e-06,3.781865014587418290e-06
2.884920634920634885e+00,7.803807009121972797e-06,-5.303394716229709206e-05
2.885714285714285676e+00,1.507888621501842829e-05,-1.141252110027754827e-04
2.886507936507936467e+00,2.672973674257964047e-05,-1.693068427909296639e-04
2.887301587301587258e+00,4.040504084061910501e-05,-2.085474390558269132e-04
2.888095238095238049e+00,5.316838020242006720e-05,-2.239259888270084286e-04
2.888888888888888840e+00,6.207482764092224286e-05,-2.113098014223322709e-04
2.889682539682539630e+00,6.471772295653633559e-05,-1.713745481108801315e-04
2.890476190476190421e+00,5.963864236124766314e-05,-1.097128688560549428e-04
2.891269841269841212e+00,4.657087165581498051e-05,-3.595216496080313231e-05
2.892063492063492003e+00,2.652301278736212512e-05,3.800864846093717484e-05
2.892857142857142794e+00,1.696597231566119128e-06,1.003371358301949091e-04
2.893650793650793585e+00,-2.478549566413551644e-05,1.416755206465061475e-04
2.894444444444444375e+00,-4.934009213132164041e-05,1.569947338196222631e-04
2.895238095238095166e+00,-6.851349079194569861e-05,1.463656108937029456e-04
2.896031746031745957e+00,-7.957889034526909868e-05,1.144639529892175876e-04
2.896825396825396748e+00,-8.099992085279722823e-05,6.906175006184906502e-05
2.897619047619047539e+00,-7.265501782731787048e-05,1.905230899389369050e-05
2.898412698412698330e+00,-5.579589260844355642e-05,-2.740270522329163875e-05
2.899206349206349120e+00,-3.278966787046915481e-05,-6.418633499639435163e-05
2.899999999999999911e+00,-6.726167614045142320e-06,-8.784037844653445838e-05
2.900793650793650702e+00,1.904131060583646743e-05,-9.755382655146054157e-05
2.901587301587301493e+00,4.137659164225578143e-05,-9.472872024370173434e-05
2.902380952380952284e+00,5.782152543379871193e-05,-8.233199911027233380e-05
2.903174603174603075e+00,6.698026538723723662e-05,-6.417367256638029831e-05
2.903968253968253865e+00,6.875119463576099231e-05,-4.419892234632637619e-05
2.904761904761904656e+00,6.432759531994181696e-05,-2.588101138360796250e-05
2.905555555555555447e+00,5.591243335043890309e-05,-1.179795992671132478e-05
2.906349206349206238e+00,4.614878968361105650e-05,-3.415578916132350726e-06
2.907142857142857029e+00,3.735417478503499185e-05,-1.025345207798355377e-06
2.907936507936507819e+00,3.074990597233327971e-05,-3.778339925640732762e-06
2.908730158730158610e+00,2.595441332499583430e-05,-9.815463785036217123e-06
2.909523809523809401e+00,2.099757386139401461e-05,-1.654123059988347723e-05
2.910317460317460192e+00,1.296610388889872902e-05,-2.107312612181379800e-05
2.911111111111110983e+00,-8.645573911557802309e-07,-2.083941739859020378e-05
2.911904761904761774e+00,-2.180172920825416754e-05,-1.422794517192090802e-05
2.912698412698412564e+00,-4.889261080204891879e-05,-1.124649157203388190e-06
2.913492063492063355e+00,-7.882268823952144306e-05,1.684392775869512934e-05
2.914285714285714146e+00,-1.066262216940370891e-04,3.650092287392703782e-05
2.915079365079364937e+00,-1.269738889730956356e-04,5.377022827522951793e-05
2.915873015873015728e+00,-1.356018238456748446e-04,6.468826730489508458e-05
2.916666666666666519e+00,-1.304153225245768062e-04,6.654792220290422220e-05
2.917460317460317309e+00,-1.119369106809993950e-04,5.884402070595247017e-05
2.918253968253968100e+00,-8.301113035071361660e-05,4.368051903705645980e-05
2.919047619047618891e+00,-4.793070670174029630e-05,2.542922632202030504e-05
2.919841269841269682e+00,-1.131898239101177941e-05,9.662568359927645631e-06
2.920634920634920473e+00,2.285797808804704555e-05,1.625141236154975043e-06
2.921428571428571264e+00,5.186590880607277456e-05,4.669648607424310115e-06
2.922222222222222054e+00,7.425479342492821342e-05,1.911093470024108034e-05
2.923015873015872845e+00,8.947959942877168986e-05,4.185055932180777608e-05
2.923809523809523636e+00,9.733879373909488627e-05,6.693650983296117859e-05
2.924603174603174427e+00,9.754288624597476885e-05,8.699170349556088549e-05
2.925396825396825218e+00,8.965683998560094266e-05,9.519889849347042642e-05
2.926190476190476009e+00,7.347266545558027873e-05,8.730858099654708129e-05
2.926984126984126799e+00,4.963768884409941598e-05,6.302558306658728130e-05
2.927777777777777590e+00,2.020444828442969672e-05,2.623992158882916995e-05
2.928571428571428381e+00,-1.123278449726310054e-05,-1.605855177428383359e-05
2.929365079365079172e+00,-3.998842413674304457e-05,-5.582191940174965840e-05
2.930158730158729963e+00,-6.125202811862583835e-05,-8.617938621336334931e-05
2.930952380952380754e+00,-7.128506676799489339e-05,-1.030572091559368321e-04
2.931746031746031544e+00,-6.846422602367055119e-05,-1.057137327504564442e-04
2.932539682539682335e+00,-5.383284509576303145e-05,-9.622491355406784892e-05
2.933333333333333126e+00,-3.097881432283535982e-05,-7.833146381526460305e-05
2.934126984126983917e+00,-5.261766055350528031e-06,-5.615369817565003401e-05
2.934920634920634708e+00,1.740220249155201290e-05,-3.315577130402264832e-05
2.935714285714285499e+00,3.187707837469027576e-05,-1.155235796921636443e-05
2.936507936507936289e+00,3.492996864500291614e-05,7.798560493420799100e-06
2.937301587301587080e+00,2.588198987163768273e-05,2.506625674331339069e-05
2.938095238095238315e+00,6.656733311965095329e-06,4.079651111554363378e-05
2.938888888888889106e+00,-1.875890146277809091e-05,5.512739457466293044e-05
2.939682539682539897e+00,-4.528320769910393481e-05,6.714163483865173991e-05
2.940476190476190688e+00,-6.786349410729373315e-05,7.466494830797664828e-05
2.941269841269841478e+00,-8.244524254051778132e-05,7.473142291746355482e-05
2.942063492063492269e+00,-8.655616767284631322e-05,6.468701994601953951e-05
2.942857142857143060e+00,-7.943743415328449547e-05,4.358067841148809162e-05
2.943650793650793851e+00,-6.181696533160010261e-05,1.327923894561882955e-05
2.944444444444444642e+00,-3.551240979944860848e-05,-2.122833426636834932e-05
2.945238095238095433e+00,-3.051600306069123586e-06,-5.260675038205099460e-05
2.946031746031746223e+00,3.257586686075146027e-05,-7.291490800284863686e-05
2.946825396825397014e+00,6.803093853719732460e-05,-7.583781345133390613e-05
2.947619047619047805e+00,9.969299813921348710e-05,-5.872895895863689512e-05
2.948412698412698596e+00,1.238213005593918068e-04,-2.379100585048483021e-05
2.949206349206349387e+00,1.369229733359303967e-04,2.205958679975565393e-05
2.950000000000000178e+00,1.363478158357527286e-04,6.872687159873024803e-05
2.950793650793650968e+00,1.209996727093960527e-04,1.055100207340503251e-04
2.951587301587301759e+00,9.193744967979875242e-05,1.239782371682450425e-04
2.952380952380952550e+00,5.259381232193597694e-05,1.202480162319016375e-04
2.953174603174603341e+00,8.409712817566567994e-06,9.593492122145154573e-05
2.953968253968254132e+00,-3.413113702396191538e-05,5.750741154578443385e-05
2.954761904761904923e+00,-6.884644443323358043e-05,1.432405037860980273e-05
2.955555555555555713e+00,-9.118146805089316165e-05,-2.395418369884159761e-05
2.956349206349206504e+00,-9.910457299651589524e-05,-4.978272706821382053e-05
2.957142857142857295e+00,-9.331833029608992060e-05,-5.937704530745979421e-05
2.957936507936508086e+00,-7.678509971597467169e-05,-5.328275145035824651e-05
2.958730158730158877e+00,-5.378922126147599512e-05,-3.585312590570704730e-05
2.959523809523809668e+00,-2.886146267937366897e-05,-1.383537228710137679e-05
2.960317460317460458e+00,-5.862783090161318561e-06,5.550994330703470453e-06
2.961111111111111249e+00,1.258747914502488691e-05,1.653956197782070254e-05
2.961904761904762040e+00,2.528630943135565522e-05,1.624195704783579984e-05
2.962698412698412831e+00,3.228088315990993188e-05,5.218720083688440227e-06
2.963492063492063622e+00,3.448449083705790532e-05,-1.289779053908320752e-05
2.964285714285714413e+00,3.321959476585097158e-05,-3.255446293207783087e-05
2.965079365079365203e+00,2.981661472997741553e-05,-4.784690920320017730e-05
2.965873015873015994e+00,2.535233863788220832e-05,-5.409131742743229489e-05
2.966666666666666785e+00,2.055375509939541309e-05,-4.902432082154130664e-05
2.967460317460317576e+00,1.583851372838122231e-05,-3.336550476243647548e-05
2.968253968253968367e+00,1.142713195195194285e-05,-1.062575752399241784e-05
2.969047619047619158e+00,7.454396721580675400e-06,1.378575096337050439e-05
2.969841269841269948e+00,4.029420660026312123e-06,3.393302173381530410e-05
2.970634920634920739e+00,1.234681212266251087e-06,4.484525112601786377e-05
2.971428571428571530e+00,-9.068400938349656982e-07,4.372236267006688969e-05
2.972222222222222321e+00,-2.451380444789821107e-06,3.052389724998694730e-05
2.973015873015873112e+00,-3.510289197514305456e-06,7.808046811759172879e-06
2.973809523809523903e+00,-4.184699506105227371e-06,-2.006503997637697743e-05
2.974603174603174693e+00,-4.492323209356520378e-06,-4.805911135492278209e-05
2.975396825396825484e+00,-4.330829167170419355e-06,-7.155278724230324254e-05
2.976190476190476275e+00,-3.508993365519696384e-06,-8.711574056709519166e-05
2.976984126984127066e+00,-1.845733886603414267e-06,-9.285319043614329536e-05
2.977777777777777857e+00,6.971000695518305309e-07,-8.836183099004029154e-05
2.978571428571428648e+00,3.902731127902643909e-06,-7.444351243571277824e-05
2.979365079365079438e+00,7.260128965495763400e-06,-5.275284997710754981e-05
2.980158730158730229e+00,1.002709432483870857e-05,-2.551785432002651253e-05
2.980952380952381020e+00,1.139319376211012917e-05,4.612293412235648912e-06
2.981746031746031811e+00,1.070481696876791596e-05,3.464082499375537884e-05
2.982539682539682602e+00,7.684581067384925772e-06,6.134396579913298177e-05
2.983333333333333393e+00,2.565541145694787146e-06,8.156300588805879008e-05
2.984126984126984183e+00,-3.920368984779156722e-06,9.268415932936175208e-05
2.984920634920634974e+00,-1.071064538983362759e-05,9.316314633936182755e-05
2.985714285714285765e+00,-1.668661984421390549e-05,8.287366636289174998e-05
2.986507936507936556e+00,-2.096023402376357304e-05,6.314006689558124621e-05
2.987301587301587347e+00,-2.307827638309992380e-05,3.647692940332258036e-05
2.988095238095238138e+00,-2.308711902253155062e-05,6.163826488713192971e-06
2.988888888888888928e+00,-2.145331913783272014e-05,-2.421425122085320110e-05
2.989682539682539719e+00,-1.887965089370869246e-05,-5.118334806635806508e-05
2.990476190476190510e+00,-1.608343759855721835e-05,-7.173148011392362869e-05
2.991269841269841301e+00,-1.360985384092715906e-05,-8.360374083981419698e-05
2.992063492063492092e+00,-1.173304002044088409e-05,-8.555208491023914201e-05
2.992857142857142883e+00,-1.045868959256563067e-05,-7.752640779726103657e-05
2.993650793650793673e+00,-9.602064525299874967e-06,-6.076369476460199043e-05
2.994444444444444464e+00,-8.894365757770023362e-06,-3.771545337728370072e-05
2.995238095238095255e+00,-8.074923990635232744e-06,-1.176352077046947634e-05
2.996031746031746046e+00,-6.948075166346351280e-06,1.328318475847941146e-05
2.996825396825396837e+00,-5.405364611930173050e-06,3.384684159682775764e-05
2.997619047619047628e+00,-3.424725451165902948e-06,4.724950138457287171e-05
2.998412698412698418e+00,-1.058500626480861507e-06,5.220251087040628040e-05
2.999206349206349209e+00,1.582394364526264930e-06,4.896209312477617023e-05
3.000000000000000000e+00,4.345230397291549975e-06,3.911372671018989813e-05
3.000793650793650791e+00,7.052349314753308927e-06,2.508235640741491456e-05
3.001587301587301582e+00,9.517317136574155175e-06,9.542119198557343502e-06
3.002380952380952372e+00,1.155850007597624096e-05,-5.104911990935379022e-06
3.003174603174603163e+00,1.300845370226214063e-05,-1.707100096702259071e-05
3.003968253968253954e+00,1.372047047365976339e-05,-2.531454719476089937e-05
3.004761904761904745e+00,1.357788430292079519e-05,-2.949706813044998397e-05
3.005555555555555536e+00,1.251314001065233880e-05,-2.983727713060481331e-05
3.006349206349206327e+00,1.053906335592287265e-05,-2.693674208308961633e-05
3.007142857142857117e+00,7.785648259665210849e-06,-2.163095839669575322e-05
3.007936507936507908e+00,4.527315576380367355e-06,-1.488842504104181900e-05
3.008730158730158699e+00,1.182883984698974620e-06,-7.748088337734694277e-06
3.009523809523809490e+00,-1.725054810669487202e-06,-1.261572135805602186e-06
3.010317460317460281e+00,-3.653985083113201158e-06,3.597662653800711923e-06
3.011111111111111072e+00,-4.156317037390960116e-06,6.074056779395901530e-06
3.011904761904761862e+00,-2.998105070183423828e-06,5.795597212666658645e-06
3.012698412698412653e+00,-2.457457585466593987e-07,2.909750979416577815e-06
3.013492063492063444e+00,3.712358307224850696e-06,-1.873292280670685002e-06
3.014285714285714235e+00,8.225732977387733942e-06,-7.371206847166825467e-06
3.015079365079365026e+00,1.251322103525584892e-05,-1.215300742036055034e-05
3.015873015873015817e+00,1.582867342052033435e-05,-1.484878832396410320e-05
3.016666666666666607e+00,1.761043765641048085e-05,-1.446806175732844263e-05
3.017460317460317398e+00,1.757307475793954690e-05,-1.064319048716381778e-05
3.018253968253968189e+00,1.572604574607709398e-05,-3.731970238939163287e-06
3.019047619047618980e+00,1.233214871866750766e-05,5.253090198081538741e-06
3.019841269841269771e+00,7.833565159998296285e-06,1.487728744908935727e-05
3.020634920634920562e+00,2.771265419131952134e-06,2.361896638057083155e-05
3.021428571428571352e+00,-2.288742163979334786e-06,3.021261569856991192e-05
3.022222222222222143e+00,-6.819870051542651249e-06,3.389996582946207032e-05
3.023015873015872934e+00,-1.039072757210954165e-05,3.452279314751190083e-05
3.023809523809523725e+00,-1.270966505154096946e-05,3.245094808102743863e-05
3.024603174603174516e+00,-1.365232614557350907e-05,2.839780705877774079e-05
3.025396825396825307e+00,-1.326705992528903368e-05,2.320460779339523694e-05
3.026190476190476097e+00,-1.175702353494337392e-05,1.766271910466140499e-05
3.026984126984126888e+00,-9.442932719314686758e-06,1.240158218349015620e-05
3.027777777777777679e+00,-6.714681670024237908e-06,7.829482429482159805e-06
3.028571428571428470e+00,-3.981475600955231581e-06,4.100368311232339956e-06
3.029365079365079261e+00,-1.627085409770630538e-06,1.096791744522044130e-06
3.030158730158730052e+00,2.975183552058248322e-08,-1.552837012022225920e-06
3.030952380952380842e+00,7.751171430815391313e-07,-4.392299088249079717e-06
3.031746031746031633e+00,5.436293357383617713e-07,-7.977401954327173410e-06
3.032539682539682424e+00,-5.397027486468461445e-07,-1.266001316227337905e-05
3.033333333333333215e+00,-2.137255424983400102e-06,-1.837221591446271034e-05
3.034126984126984006e+00,-3.719837909341387445e-06,-2.448313513353069380e-05
3.034920634920634797e+00,-4.648460368404635964e-06,-2.979729641778095523e-05
3.035714285714285587e+00,-4.315577762971072700e-06,-3.273711595912437102e-05
3.036507936507936378e+00,-2.318515714149344139e-06,-3.170050197696163688e-05
3.037301587301587169e+00,1.386269259916237601e-06,-2.551733502025165944e-05
3.038095238095237960e+00,6.408816507552404612e-06,-1.387436651207990841e-05
3.038888888888888751e+00,1.197458088083519034e-05,2.432301409093057069e-06
3.039682539682539542e+00,1.709538733481401798e-05,2.151562680331311697e-05
3.040476190476190332e+00,2.080843909408497630e-05,4.070891020727035117e-05
3.041269841269841123e+00,2.239960065308329844e-05,5.711055899225398147e-05
3.042063492063491914e+00,2.153970873338262174e-05,6.823793528502162154e-05
3.042857142857142705e+00,1.830846606426934616e-05,7.262764868662365729e-05
3.043650793650793496e+00,1.312850548669755234e-05,7.021661992082666077e-05
3.044444444444444287e+00,6.654043345512555892e-06,6.237977409318769598e-05
3.045238095238095077e+00,-3.503961406603179159e-07,5.158610649290576542e-05
3.046031746031745868e+00,-7.126930780674874940e-06,4.074493896844387920e-05
3.046825396825396659e+00,-1.303506699075670688e-05,3.241341522618506265e-05
3.047619047619047450e+00,-1.765132835156758568e-05,2.809069269099665094e-05
3.048412698412698241e+00,-2.084138091818031857e-05,2.781329978635391326e-05
3.049206349206349032e+00,-2.277912376028996981e-05,3.018690422970778472e-05
3.049999999999999822e+00,-2.388981542933879911e-05,3.285819326126654426e-05
3.050793650793650613e+00,-2.471358318667323767e-05,3.328302924920419358e-05
3.051587301587301404e+00,-2.571615192379402619e-05,2.953782520278779068e-05
3.052380952380952195e+00,-2.709954496320639996e-05,2.090291197801873833e-05
3.053174603174602986e+00,-2.867294913575723516e-05,8.036427300873148850e-06
3.053968253968253777e+00,-2.983197584534038902e-05,-7.283256300396559315e-06
3.054761904761904567e+00,-2.967027695025596060e-05,-2.271375930841712762e-05
3.055555555555555358e+00,-2.721420043781174475e-05,-3.598722221329621161e-05
3.056349206349206149e+00,-2.173008829212365325e-05,-4.542552782625814409e-05
3.057142857142856940e+00,-1.301687151088623282e-05,-5.020814549258726138e-05
3.057936507936507731e+00,-1.586717402316175173e-06,-5.037519428655778042e-05
3.058730158730158522e+00,1.133336363666231412e-05,-4.663804286349214378e-05
3.059523809523809312e+00,2.398979024896257125e-05,-4.011428119974905568e-05
3.060317460317460103e+00,3.443820748389091283e-05,-3.209189084355851582e-05
3.061111111111110894e+00,4.095204739205920698e-05,-2.387061688225589610e-05
3.061904761904761685e+00,4.241579070606192538e-05,-1.666214355141739349e-05
3.062698412698412920e+00,3.861437632550421961e-05,-1.149570578209166581e-05
3.063492063492063711e+00,3.034355152824437391e-05,-9.091599709885024935e-06
3.064285714285714501e+00,1.929747319639310891e-05,-9.716011982334078553e-06
3.065079365079365292e+00,7.738201066652281579e-06,-1.307780787540411036e-05
3.065873015873016083e+00,-1.992801302839196267e-06,-1.833654680784569185e-05
3.066666666666666874e+00,-8.013069655591217269e-06,-2.425357497610155082e-05
3.067460317460317665e+00,-9.353685637290776463e-06,-2.945801693310492724e-05
3.068253968253968456e+00,-6.203691923863360381e-06,-3.275254182643695563e-05
3.069047619047619246e+00,1.370162714389649165e-07,-3.337262012996789618e-05
3.069841269841270037e+00,7.600207326480235694e-06,-3.113555505095845494e-05
3.070634920634920828e+00,1.389956126789110500e-05,-2.645332736485347570e-05
3.071428571428571619e+00,1.712959507498801903e-05,-2.021851474120392366e-05
3.072222222222222410e+00,1.623824261180223285e-05,-1.359789349206500001e-05
3.073015873015873201e+00,1.124695605513186058e-05,-7.783503709442876156e-06
3.073809523809523991e+00,3.179769708775911241e-06,-3.756173425624653533e-06
3.074603174603174782e+00,-6.251815100128419665e-06,-2.111029450149310403e-06
3.075396825396825573e+00,-1.510493051038143580e-05,-2.978343551629326888e-06
3.076190476190476364e+00,-2.167695981524592899e-05,-6.048527143931576660e-06
3.076984126984127155e+00,-2.487497654633953327e-05,-1.068340503097418943e-05
3.077777777777777946e+00,-2.440145179379554690e-05,-1.607623185797321986e-05
3.078571428571428736e+00,-2.073344544442231419e-05,-2.141743451519425353e-05
3.079365079365079527e+00,-1.493318339522275911e-05,-2.603109814233780514e-05
3.080158730158730318e+00,-8.363680144665952589e-06,-2.946044596420065989e-05
3.080952380952381109e+00,-2.384074201666783574e-06,-3.149251683214677778e-05
3.081746031746031900e+00,1.919901528148840276e-06,-3.212543924598541091e-05
3.082539682539682691e+00,3.933067382863205485e-06,-3.149880750934299148e-05
3.083333333333333481e+00,3.607009118501675361e-06,-2.981987350067788698e-05
3.084126984126984272e+00,1.433675531893988853e-06,-2.731340280171750846e-05
3.084920634920635063e+00,-1.707076315976330499e-06,-2.420306370854579886e-05
3.085714285714285854e+00,-4.794893268634482066e-06,-2.071320847195942837e-05
3.086507936507936645e+00,-6.941579542705943798e-06,-1.707465794696048358e-05
3.087301587301587436e+00,-7.601608022122213167e-06,-1.352405757045182671e-05
3.088095238095238226e+00,-6.655012673453407778e-06,-1.029251601401463842e-05
3.088888888888889017e+00,-4.351852002973693124e-06,-7.581327285393176101e-06
3.089682539682539808e+00,-1.164287881401933434e-06,-5.525780548669790299e-06
3.090476190476190599e+00,2.380289915120264965e-06,-4.155379118077490717e-06
3.091269841269841390e+00,5.824119088307187996e-06,-3.365087613570406428e-06
3.092063492063492181e+00,8.838427409907741232e-06,-2.911149620034868075e-06
3.092857142857142971e+00,1.123007721832180010e-05,-2.435506659128849731e-06
3.093650793650793762e+00,1.292386687958966015e-05,-1.509722039050486903e-06
3.094444444444444553e+00,1.394192055155141166e-05,3.180452951585731421e-07
3.095238095238095344e+00,1.438462058147512905e-05,3.483313523390532795e-06
3.096031746031746135e+00,1.440539628595885839e-05,8.366406460726098866e-06
3.096825396825396925e+00,1.417178756371112088e-05,1.523411566010055130e-05
3.097619047619047716e+00,1.381572998859252037e-05,2.414380341075900787e-05
3.098412698412698507e+00,1.338900543700112504e-05,3.481538896084562622e-05
3.099206349206349298e+00,1.284522097056470829e-05,4.651395090709628945e-05
3.100000000000000089e+00,1.206092243288179525e-05,5.801477226039517595e-05
3.100793650793650880e+00,1.088883327715615153e-05,6.771699933051075803e-05
3.101587301587301670e+00,9.219186260083133208e-06,7.392345555772816801e-05
3.102380952380952461e+00,7.023531200658162665e-06,7.523616259122268082e-05
3.103174603174603252e+00,4.369225501044606973e-06,7.096727151250015924e-05
3.103968253968254043e+00,1.409347389799281950e-06,6.145045897399717112e-05
3.104761904761904834e+00,-1.641043643216252662e-06,4.814655504036055854e-05
3.105555555555555625e+00,-4.537397181038700727e-06,3.346042266037837077e-05
3.106349206349206415e+00,-7.050023944385244013e-06,2.024472165655803643e-05
3.107142857142857206e+00,-9.021139423484973244e-06,1.107845640482780671e-05
3.107936507936507997e+00,-1.042082297904608014e-05,7.532687164861293936e-06
3.108730158730158788e+00,-1.137269852210316852e-05,9.684753108991023203e-06
3.109523809523809579e+00,-1.211991314016426215e-05,1.606801102976847088e-05
3.110317460317460370e+00,-1.292409705952891711e-05,2.408552930634627834e-05
3.111111111111111160e+00,-1.392577411011258427e-05,3.075571103711162820e-05
3.111904761904761951e+00,-1.502413644133919288e-05,3.355744915594499194e-05
3.112698412698412742e+00,-1.583865855226168666e-05,3.112350031067298366e-05
3.113492063492063533e+00,-1.578914266319070652e-05,2.358592053228760510e-05
3.114285714285714324e+00,-1.428390517808312494e-05,1.248551715919650765e-05
3.115079365079365115e+00,-1.095676594134206057e-05,2.908861216054012783e-07
3.115873015873015905e+00,-5.863637015055247916e-06,-1.030405680072102933e-05
3.116666666666666696e+00,4.447061581371816471e-07,-1.706863949600632020e-05
3.117460317460317487e+00,7.013554727743451678e-06,-1.870365639689136323e-05
3.118253968253968278e+00,1.271528382691233710e-05,-1.500013259932836837e-05
3.119047619047619069e+00,1.654317236486201482e-05,-6.739185279429699242e-06
3.119841269841269860e+00,1.787057731171771814e-05,4.538240475255379998e-06
3.120634920634920650e+00,1.659631944328045361e-05,1.678284801887385845e-05
3.121428571428571441e+00,1.314159403844459602e-05,2.767826989327193117e-05
3.122222222222222232e+00,8.314063382985428062e-06,3.489757238267959170e-05
3.123015873015873023e+00,3.092193577120384672e-06,3.639556552222469096e-05
3.123809523809523814e+00,-1.603065064427294514e-06,3.071710650017473831e-05
3.124603174603174605e+00,-5.090900807097486611e-06,1.727380224234453148e-05
3.125396825396825395e+00,-7.032167899620957212e-06,-3.457956879083088569e-06
3.126190476190476186e+00,-7.441082353838054864e-06,-2.985335840146526132e-05
3.126984126984126977e+00,-6.620951512161373419e-06,-5.919909637296912129e-05
3.127777777777777768e+00,-5.052381833939759934e-06,-8.791951662805414880e-05
3.128571428571428559e+00,-3.267582146184666831e-06,-1.119729485069311783e-04
3.129365079365079350e+00,-1.740593333076751526e-06,-1.273908796494712498e-04
3.130158730158730140e+00,-8.129581477565975655e-07,-1.309013753629958119e-04
3.130952380952380931e+00,-6.611765936879649486e-07,-1.205572121325986553e-04
3.131746031746031722e+00,-1.299952763312983023e-06,-9.627249236441676400e-05
3.132539682539682513e+00,-2.607244669510410978e-06,-6.014683456838701685e-05
3.133333333333333304e+00,-4.356483322450915433e-06,-1.643568538665715883e-05
3.134126984126984095e+00,-6.248171669451599206e-06,2.894754733436304955e-05
3.134920634920634885e+00,-7.942648877610366162e-06,6.940060489031317839e-05
3.135714285714285676e+00,-9.100797443597804839e-06,9.889805327652259864e-05
3.136507936507936467e+00,-9.435978902034603699e-06,1.132178146769222604e-04
3.137301587301587258e+00,-8.771414432472349871e-06,1.107592993894041520e-04
3.138095238095238049e+00,-7.089286488299931131e-06,9.273137405424316333e-05
3.138888888888888840e+00,-4.555871427970552036e-06,6.274103513594569493e-05
3.139682539682539630e+00,-1.511422220072079086e-06,2.600743204218436370e-05
3.140476190476190421e+00,1.578411428328985428e-06,-1.154630273932005879e-05
3.141269841269841212e+00,4.204313194199434679e-06,-4.417044373763290678e-05
3.142063492063492003e+00,5.915718371268479589e-06,-6.708867667385096383e-05
3.142857142857142794e+00,6.425998554653025575e-06,-7.720480078352651295e-05
3.143650793650793585e+00,5.698797293978716709e-06,-7.365477168010354863e-05
3.144444444444444375e+00,3.992970240235356757e-06,-5.807181051935256895e-05
3.145238095238095166e+00,1.847102205559831095e-06,-3.440238140301064878e-05
3.146031746031745957e+00,-6.331347701652960551e-09,-8.180209361003125992e-06
3.146825396825396748e+00,-7.927582934187635216e-07,1.465880394720516342e-05
3.147619047619047539e+00,1.087965650762636851e-07,2.913821429258796848e-05
3.148412698412698330e+00,2.965761880739099184e-06,3.240032724696695967e-05
3.149206349206349120e+00,7.540216752379482646e-06,2.434882928802608191e-05
3.149999999999999911e+00,1.303972884420585091e-05,7.625477423808537877e-06
3.150793650793650702e+00,1.821094390341585094e-05,-1.305830931321176013e-05
3.151587301587301493e+00,2.158278431289204524e-05,-3.207774001094830974e-05
3.152380952380952284e+00,2.181981562398280756e-05,-4.427519499443255293e-05
3.153174603174603075e+00,1.810204861581131137e-05,-4.623771124520645277e-05
3.153968253968253865e+00,1.042316380724749721e-05,-3.715553671889660031e-05
3.154761904761904656e+00,-2.933919796370393324e-07,-1.904350739993423681e-05
3.155555555555555447e+00,-1.232026229677503434e-05,3.735689969628682262e-06
3.156349206349206238e+00,-2.348627550329187029e-05,2.553569234669572334e-05
3.157142857142857029e+00,-3.168397671764786283e-05,4.082769491004436418e-05
3.157936507936507819e+00,-3.537660644539965027e-05,4.561381186731480253e-05
3.158730158730158610e+00,-3.394798256005383943e-05,3.852114798144823442e-05
3.159523809523809401e+00,-2.779389037621809384e-05,2.129223079587069486e-05
3.160317460317460192e+00,-1.814451442552263776e-05,-1.504591018864520143e-06
3.161111111111110983e+00,-6.690564345688489227e-06,-2.353555720528210528e-05
3.161904761904761774e+00,4.865622142820012289e-06,-3.829777257402445145e-05
3.162698412698412564e+00,1.520250955232674937e-05,-4.084523695971787883e-05
3.163492063492063355e+00,2.360629846200386096e-05,-2.919235698758394467e-05
3.164285714285714146e+00,2.997177072597404418e-05,-5.017020645162639457e-06
3.165079365079364937e+00,3.458366315456234150e-05,2.656087413603859111e-05
3.165873015873015728e+00,3.775997820637712880e-05,5.814110900730008502e-05
3.166666666666666519e+00,3.950048908361507652e-05,8.191302475918726760e-05
3.167460317460317309e+00,3.930259644737128750e-05,9.176041919265526725e-05
3.168253968253968100e+00,3.625811070779511508e-05,8.498287545893750165e-05
3.169047619047618891e+00,2.943322141782274404e-05,6.306620655013827606e-05
3.169841269841269682e+00,1.840209567491938030e-05,3.122320926515662439e-05
3.170634920634920473e+00,3.712036365727794301e-06,-3.142245077522900648e-06
3.171428571428571264e+00,-1.294798289091493866e-05,-3.252331488512605763e-05
3.172222222222222054e+00,-2.900888328898503212e-05,-5.128541407419919196e-05
3.173015873015872845e+00,-4.167853989848254587e-05,-5.697705739703124692e-05
3.173809523809523636e+00,-4.878590260953231738e-05,-5.069305975146854755e-05
3.174603174603174427e+00,-4.950561598744413204e-05,-3.649995622580675173e-05
3.175396825396825218e+00,-4.468313937618266572e-05,-2.015646593471628360e-05
3.176190476190476009e+00,-3.661979364488758451e-05,-7.480630364379660106e-06
3.176984126984126799e+00,-2.836924447227057172e-05,-2.749835815077192149e-06
3.177777777777777590e+00,-2.276690889803261030e-05,-7.499015400690446699e-06
3.178571428571428381e+00,-2.150199199305837517e-05,-2.000558461002018587e-05
3.179365079365079172e+00,-2.452301016051195020e-05,-3.560939366764912873e-05
3.180158730158729963e+00,-2.995637549645288657e-05,-4.783550410348857182e-05
3.180952380952380754e+00,-3.455796154227717775e-05,-5.010608026912291622e-05
3.181746031746031544e+00,-3.456424606208555943e-05,-3.766632908728457835e-05
3.182539682539682335e+00,-2.670974182421893635e-05,-9.227667561852447324e-06
3.183333333333333126e+00,-9.154798270115896842e-06,3.219411799321632306e-05
3.184126984126983917e+00,1.788527114094360954e-05,7.961778838176779424e-05
3.184920634920634708e+00,5.193383472896869108e-05,1.236398687498524245e-04
3.185714285714285499e+00,8.850406835328706548e-05,1.547804893552475727e-04
3.186507936507936289e+00,1.217665364565768867e-04,1.659159694803532962e-04
3.187301587301587080e+00,1.455317582384800458e-04,1.540383806044306808e-04
3.188095238095238315e+00,1.543967291828560542e-04,1.208266463854607524e-04
3.188888888888889106e+00,1.448641053428514945e-04,7.193405002220937619e-05
3.189682539682539897e+00,1.162172473309012994e-04,1.532375891531770668e-05
3.190476190476190688e+00,7.093935320676725297e-05,-4.073579504265437373e-05
3.191269841269841478e+00,1.452309714363506489e-05,-8.936929705423776607e-05
3.192063492063492269e+00,-4.536063531159143371e-05,-1.260645016417108683e-04
3.192857142857143060e+00,-1.002022413751398332e-04,-1.488539881322241355e-04
3.193650793650793851e+00,-1.422168493103449750e-04,-1.579372553033181210e-04
3.194444444444444642e+00,-1.657703304002413529e-04,-1.550494493758107180e-04
3.195238095238095433e+00,-1.683429257393988297e-04,-1.427954272093178930e-04
3.196031746031746223e+00,-1.508474888068354089e-04,-1.240536074596503436e-04
3.196825396825397014e+00,-1.173049637139867866e-04,-1.014972128144751292e-04
3.197619047619047805e+00,-7.402392814953699673e-05,-7.727099285136847262e-05
3.198412698412698596e+00,-2.848391630997151790e-05,-5.285513846258210627e-05
3.199206349206349387e+00,1.189788962000540500e-05,-2.912329449149029818e-05
3.200000000000000178e+00,4.096906767182085179e-05,-6.561956229609196640e-06
3.200793650793650968e+00,5.486331602745942999e-05,1.442813513489293001e-05
3.201587301587301759e+00,5.266189319849128063e-05,3.326751227058324424e-05
3.202380952380952550e+00,3.651762047505856284e-05,4.908925844303083493e-05
3.203174603174603341e+00,1.114761013946945895e-05,6.084030423387718612e-05
3.203968253968254132e+00,-1.723454849796305694e-05,6.754560389536977763e-05
3.204761904761904923e+00,-4.229217897851230280e-05,6.862030950497526852e-05
3.205555555555555713e+00,-5.887366105370894136e-05,6.412189572626058383e-05
3.206349206349206504e+00,-6.390421515687125893e-05,5.488174149114465365e-05
3.207142857142857295e+00,-5.666825780816680988e-05,4.248337035487586292e-05
3.207936507936508086e+00,-3.851306656498417862e-05,2.905565270565665909e-05
3.208730158730158877e+00,-1.218815264343449730e-05,1.687292140368830287e-05
3.209523809523809668e+00,1.889544871792212408e-05,7.829514029606459628e-06
3.210317460317460458e+00,5.125296065504255120e-05,2.946719211820328124e-06
3.211111111111111249e+00,8.165429661420310322e-05,2.105752148878012201e-06
3.211904761904762040e+00,1.072245299464064078e-04,4.140699768381582432e-06
3.212698412698412831e+00,1.254420851731788628e-04,7.289272174069006816e-06
3.213492063492063622e+00,1.341816873700416989e-04,9.850365642916083332e-06
3.214285714285714413e+00,1.318981512415193116e-04,1.080526761606391961e-05
3.215079365079365203e+00,1.179491260668607861e-04,1.016561206431600370e-05
3.215873015873015994e+00,9.295080174767718253e-05,8.915994822524900298e-06
3.216666666666666785e+00,5.899748228916736113e-05,8.580023130182332162e-06
3.217460317460317576e+00,1.958971873716315075e-05,1.058389217208593783e-05
3.218253968253968367e+00,-2.079303128952710025e-05,1.565529972755236990e-05
3.219047619047619158e+00,-5.741047128623509539e-05,2.345711961514126048e-05
3.219841269841269948e+00,-8.609550472666030929e-05,3.255105224890469338e-05
3.220634920634920739e+00,-1.039818891043912453e-04,4.068069673761367231e-05
3.221428571428571530e+00,-1.099359364573858762e-04,4.530087536101022296e-05
3.222222222222222321e+00,-1.046030031171454996e-04,4.425503208385372391e-05
3.223015873015873112e+00,-9.010280561559223399e-05,3.647640406156644024e-05
3.223809523809523903e+00,-6.949717216564689417e-05,2.254364144406335597e-05
3.224603174603174693e+00,-4.617890215774159536e-05,4.888780774383636073e-06
3.225396825396825484e+00,-2.330510212283699617e-05,-1.251418323117409176e-05
3.226190476190476275e+00,-3.357223601661351654e-06,-2.503055219968176203e-05
3.226984126984127066e+00,1.212840946078003667e-05,-2.866902235471213603e-05
3.227777777777777857e+00,2.265209581933654451e-05,-2.144936352783067879e-05
3.228571428571428648e+00,2.868771815706585036e-05,-4.342880069288326601e-06
3.229365079365079438e+00,3.150060865870914727e-05,1.865779495360468085e-05
3.230158730158730229e+00,3.287125255301730827e-05,4.150849514546543062e-05
3.230952380952381020e+00,3.473667620401326908e-05,5.786026581821500587e-05
3.231746031746031811e+00,3.877090118522385348e-05,6.294243960351771289e-05
3.232539682539682602e+00,4.595990029815918905e-05,5.485616558002024676e-05
3.233333333333333393e+00,5.626094104510485087e-05,3.483438850925110915e-05
3.234126984126984183e+00,6.844489041844433721e-05,6.504280354477964830e-06
3.234920634920634974e+00,8.019438503583978489e-05,-2.541267532401490320e-05
