Timestamp,Flexor carpi radialis,Extensor digitorum
2.000000000000000000e+00,-7.419906364344981801e-06,-1.930519451455944033e-05
2.000793650793650791e+00,-9.072244652999110004e-06,-2.315950464114887211e-05
2.001587301587301582e+00,-1.025981514846336673e-05,-2.560554917790395089e-05
2.002380952380952372e+00,-1.092168024411788146e-05,-2.587570566142453584e-05
2.003174603174603163e+00,-1.105654535518060122e-05,-2.342324580461413634e-05
2.003968253968253954e+00,-1.072825317582276072e-05,-1.814481870238422153e-05
2.004761904761904745e+00,-1.006421087706831712e-05,-1.052115326416481401e-05
2.005555555555555536e+00,-9.244725073356420856e-06,-1.600010469366528625e-06
2.006349206349206327e+00,-8.481274388680312576e-06,7.206880632483985759e-06
2.007142857142857117e+00,-7.982944887384202425e-06,1.446808842425133411e-05
2.007936507936507908e+00,-7.913790834326800492e-06,1.910914284937286013e-05
2.008730158730158699e+00,-8.348879398078657842e-06,2.069001823023854689e-05
2.009523809523809490e+00,-9.240302718101343446e-06,1.948309602963724805e-05
2.010317460317460281e+00,-1.040386165980056003e-05,1.632529953719849509e-05
2.011111111111111072e+00,-1.153251332446710115e-05,1.230396510232821436e-05
2.011904761904761862e+00,-1.223652263353396355e-05,8.396157741609829088e-06
2.012698412698412653e+00,-1.210512640201476908e-05,5.190553269166721185e-06
2.013492063492063444e+00,-1.078156318135911612e-05,2.779834954636931509e-06
2.014285714285714235e+00,-8.042254718035292814e-06,8.416384156367601205e-07
2.015079365079365026e+00,-3.870111538865048218e-06,-1.142583874264158688e-06
2.015873015873015817e+00,1.490571703688838661e-06,-3.623760778957074552e-06
2.016666666666666607e+00,7.513873407291887507e-06,-6.773979248924048536e-06
2.017460317460317398e+00,1.342350519439486420e-05,-1.039643477612516357e-05
2.018253968253968189e+00,1.828522695447976456e-05,-1.397762078263197977e-05
2.019047619047618980e+00,2.115529416472030933e-05,-1.685369208242639127e-05
2.019841269841269771e+00,2.126324387338633532e-05,-1.842672049570121329e-05
2.020634920634920562e+00,1.819518947809537510e-05,-1.835379713050714224e-05
2.021428571428571352e+00,1.203854034195004627e-05,-1.664671414104010251e-05
2.022222222222222143e+00,3.450370997976275103e-06,-1.365630114234435376e-05
2.023015873015872934e+00,-6.380382158997048208e-06,-9.957668800937055479e-06
2.023809523809523725e+00,-1.589065191711041850e-05,-6.183070348008747887e-06
2.024603174603174516e+00,-2.340936364404532527e-05,-2.858561326556189085e-06
2.025396825396825307e+00,-2.748826437606651521e-05,-2.909327397362477162e-07
2.026190476190476097e+00,-2.722319281149132819e-05,1.469704167658666015e-06
2.026984126984126888e+00,-2.247653959115276495e-05,2.590718324839617183e-06
2.027777777777777679e+00,-1.392635454930508471e-05,3.361657713306680729e-06
2.028571428571428470e+00,-2.916120474068011943e-06,4.077243514886573069e-06
2.029365079365079261e+00,8.853222495087259818e-06,4.935980100327791656e-06
2.030158730158730052e+00,1.969219849282729807e-05,5.982613337124874364e-06
2.030952380952380842e+00,2.824185932119823355e-05,7.104729026325190322e-06
2.031746031746031633e+00,3.366445497573362369e-05,8.074570777065918572e-06
2.032539682539682424e+00,3.568456412430149753e-05,8.615444658539447043e-06
2.033333333333333215e+00,3.451206926172210794e-05,8.472348401954529789e-06
2.034126984126984006e+00,3.070502523086422367e-05,7.475273228435806185e-06
2.034920634920634797e+00,2.502582841809730601e-05,5.592160786118539992e-06
2.035714285714285587e+00,1.831770824509769860e-05,2.969883098395083302e-06
2.036507936507936378e+00,1.140023705035475779e-05,-4.421925392968185457e-08
2.037301587301587169e+00,4.971657763901658495e-06,-2.915174164313914580e-06
2.038095238095237960e+00,-4.818976034104594417e-07,-4.984196474790199773e-06
2.038888888888888751e+00,-4.748146654641068789e-06,-5.590349087062150564e-06
2.039682539682539542e+00,-7.889640770222709637e-06,-4.235732378327505589e-06
2.040476190476190332e+00,-1.016736439510117805e-05,-7.551462523985146471e-07
2.041269841269841123e+00,-1.190267601704313273e-05,4.564247074273897995e-06
2.042063492063491914e+00,-1.332440688490480890e-05,1.096353307321483567e-05
2.042857142857142705e+00,-1.446114613374115793e-05,1.731832910660423199e-05
2.043650793650793496e+00,-1.512582351529495969e-05,2.235908194805191475e-05
2.044444444444444287e+00,-1.500312370062506921e-05,2.495726342880243137e-05
2.045238095238095077e+00,-1.380473574145355236e-05,2.440491358799784733e-05
2.046031746031745868e+00,-1.142581895193217307e-05,2.060989687493789175e-05
2.046825396825396659e+00,-8.036491325885853978e-06,1.414642472597522164e-05
2.047619047619047450e+00,-4.074131332500544202e-06,6.137582259101514808e-06
2.048412698412698241e+00,-1.456924390942967994e-07,-2.005469968482773642e-06
2.049206349206349032e+00,3.120163775575094916e-06,-8.919641786435016505e-06
2.049999999999999822e+00,5.223890100358046074e-06,-1.361028441087939970e-05
2.050793650793650613e+00,5.910545361070024323e-06,-1.566993615218325426e-05
2.051587301587301404e+00,5.224779656384715840e-06,-1.534073417766977534e-05
2.052380952380952195e+00,3.492707683297089665e-06,-1.341080441726502796e-05
2.053174603174602986e+00,1.233533732180527596e-06,-1.097737222408113915e-05
2.053968253968253777e+00,-9.764610056917360104e-07,-9.136499095771640557e-06
2.054761904761904567e+00,-2.648293708875369333e-06,-8.669807889596722550e-06
2.055555555555555358e+00,-3.490323598344975037e-06,-9.799670583380039199e-06
2.056349206349206149e+00,-3.454056542202567298e-06,-1.207975297088245695e-05
2.057142857142856940e+00,-2.708574056188057523e-06,-1.447010020161110965e-05
2.057936507936507731e+00,-1.559185951033125345e-06,-1.560509603373992076e-05
2.058730158730158522e+00,-3.403899354416340006e-07,-1.420127725805946443e-05
2.059523809523809312e+00,6.838365456712689799e-07,-9.491392816669048954e-06
2.060317460317460103e+00,1.386015297082307309e-06,-1.542020287139745635e-06
2.061111111111110894e+00,1.792944616430362487e-06,8.663760218778742889e-06
2.061904761904761685e+00,2.054725173752111196e-06,1.942213265052563604e-05
2.062698412698412920e+00,2.377853159220469281e-06,2.872854925139744939e-05
2.063492063492063711e+00,2.944638508090802432e-06,3.478875554192291619e-05
2.064285714285714501e+00,3.843697631424183641e-06,3.646145982539873405e-05
2.065079365079365292e+00,5.031413786846426944e-06,3.350770644191252573e-05
2.065873015873016083e+00,6.334257723490932377e-06,2.659506687647227109e-05
2.066666666666666874e+00,7.490005153650678666e-06,1.708191012008881157e-05
2.067460317460317665e+00,8.215323994232349121e-06,6.662140013154717674e-06
2.068253968253968456e+00,8.280204894574290993e-06,-3.026064723680785962e-06
2.069047619047619246e+00,7.567702706747871493e-06,-1.073072118195715410e-05
2.069841269841270037e+00,6.101440765694448541e-06,-1.578760595591159374e-05
2.070634920634920828e+00,4.033148909532224516e-06,-1.816494080543144135e-05
2.071428571428571619e+00,1.595529504770839470e-06,-1.836355794688314657e-05
2.072222222222222410e+00,-9.627450525746697804e-07,-1.721546006409747882e-05
2.073015873015873201e+00,-3.437646829432679530e-06,-1.563903937797555803e-05
2.073809523809523991e+00,-5.706509799574904120e-06,-1.440974833078562058e-05
2.074603174603174782e+00,-7.731044786070510210e-06,-1.399432696469546315e-05
2.075396825396825573e+00,-9.529407691260279492e-06,-1.447804430181738658e-05
2.076190476190476364e+00,-1.113053106022128058e-05,-1.559047016167697386e-05
2.076984126984127155e+00,-1.252876585042810973e-05,-1.681077704961189418e-05
2.077777777777777946e+00,-1.365522535973095674e-05,-1.751616507242680681e-05
2.078571428571428736e+00,-1.437563072520590992e-05,-1.713325536566693988e-05
2.079365079365079527e+00,-1.451587575017824085e-05,-1.526167229975187845e-05
2.080158730158730318e+00,-1.390879269801413202e-05,-1.175371728591919394e-05
2.080952380952381109e+00,-1.245018687792334762e-05,-6.745756324945427075e-06
2.081746031746031900e+00,-1.014936197531166026e-05,-6.429761855721437923e-07
2.082539682539682691e+00,-7.159295122523313146e-06,5.937951213618487043e-06
2.083333333333333481e+00,-3.775043144341307774e-06,1.226020663905203831e-05
2.084126984126984272e+00,-3.961065319809339080e-07,1.757837594447427841e-05
2.084920634920635063e+00,2.541972323995785115e-06,2.125077526644308183e-05
2.085714285714285854e+00,4.652207205915501894e-06,2.283138774245682039e-05
2.086507936507936645e+00,5.676371360702465450e-06,2.212435760681582999e-05
2.087301587301587436e+00,5.539998993791401891e-06,1.919271582496445022e-05
2.088095238095238226e+00,4.367911630745769501e-06,1.432415362778440887e-05
2.088888888888889017e+00,2.457393798467335311e-06,7.967971445163111712e-06
2.089682539682539808e+00,2.180095700650971091e-07,6.651639379335543414e-07
2.090476190476190599e+00,-1.905200441197420085e-06,-7.006722991296093332e-06
2.091269841269841390e+00,-3.507067333322993393e-06,-1.446263745378193046e-05
2.092063492063492181e+00,-4.282343406948457278e-06,-2.111755989476537181e-05
2.092857142857142971e+00,-4.063383435834988218e-06,-2.638998260558828986e-05
2.093650793650793762e+00,-2.834337599954713949e-06,-2.972180601716383554e-05
2.094444444444444553e+00,-7.239034440198116404e-07,-3.062763099413812147e-05
2.095238095238095344e+00,2.020473336002524811e-06,-2.877252686695573868e-05
2.096031746031746135e+00,5.073330560736363104e-06,-2.406259906097869765e-05
2.096825396825396925e+00,8.081012519103224090e-06,-1.672232849362381593e-05
2.097619047619047716e+00,1.071196671871467120e-05,-7.330879108946194674e-06
2.098412698412698507e+00,1.269818358311459772e-05,3.202398238223826971e-06
2.099206349206349298e+00,1.386124098299197401e-05,1.372850683123570708e-05
2.100000000000000089e+00,1.412153160157061729e-05,2.300562098398159684e-05
2.100793650793650880e+00,1.349408257630501107e-05,2.988101008481755072e-05
2.101587301587301670e+00,1.207668028769318137e-05,3.347938594320622917e-05
2.102380952380952461e+00,1.003482304027842119e-05,3.336491606452864376e-05
2.103174603174603252e+00,7.584351193067590743e-06,2.964494629792006523e-05
2.103968253968254043e+00,4.969607520093591204e-06,2.299052631034273524e-05
2.104761904761904834e+00,2.435867216350690618e-06,1.456102957584022729e-05
2.105555555555555625e+00,1.993568106668855850e-07,5.835205759730874111e-06
2.106349206349206415e+00,-1.577731241779034077e-06,-1.632288966384212472e-06
2.107142857142857206e+00,-2.800458339214159874e-06,-6.492222732587915563e-06
2.107936507936507997e+00,-3.441147388892534208e-06,-7.867844346758601871e-06
2.108730158730158788e+00,-3.530705168390058709e-06,-5.548568837138591580e-06
2.109523809523809579e+00,-3.148309656624795935e-06,-5.938350535270655934e-08
2.110317460317460370e+00,-2.414252228624648091e-06,7.420401669964802025e-06
2.111111111111111160e+00,-1.485185105525937638e-06,1.528092736754386075e-05
2.111904761904761951e+00,-5.456691494669362546e-07,2.180485627006172858e-05
2.112698412698412742e+00,2.111641103421231449e-07,2.551910215008057711e-05
2.113492063492063533e+00,6.157683666018345010e-07,2.549308171848913769e-05
2.114285714285714324e+00,5.599759512814302357e-07,2.151283765963671256e-05
2.115079365079365115e+00,2.631576186656136674e-08,1.409367155627262941e-05
2.115873015873015905e+00,-9.049538595529968247e-07,4.337216214601198899e-06
2.116666666666666696e+00,-2.076901265626035069e-06,-6.322312871641904660e-06
2.117460317460317487e+00,-3.298890825248109870e-06,-1.641306627553191740e-05
2.118253968253968278e+00,-4.394945405335217853e-06,-2.468654738365013963e-05
2.119047619047619069e+00,-5.237900566863834699e-06,-3.028651629378841675e-05
2.119841269841269860e+00,-5.757010422396303007e-06,-3.280351600482987235e-05
2.120634920634920650e+00,-5.921319505597771781e-06,-3.223317016251609120e-05
2.121428571428571441e+00,-5.714093064193280524e-06,-2.888366654475163151e-05
2.122222222222222232e+00,-5.116099481535513019e-06,-2.328080343639666057e-05
2.123015873015873023e+00,-4.106693670237621661e-06,-1.609883981944075322e-05
2.123809523809523814e+00,-2.678922967209039551e-06,-8.115643152437160165e-06
2.124603174603174605e+00,-8.571041259050097585e-07,-1.697806978669631985e-07
2.125396825396825395e+00,1.293665591757570396e-06,6.903671978108421342e-06
2.126190476190476186e+00,3.669138956635614387e-06,1.236581059615229329e-05
2.126984126984126977e+00,6.133911514513837177e-06,1.568135462373312369e-05
2.127777777777777768e+00,8.528386615499336716e-06,1.661232142562424493e-05
2.128571428571428559e+00,1.067121685588330739e-05,1.526601441584715357e-05
2.129365079365079350e+00,1.236047337229037310e-05,1.207491159957993428e-05
2.130158730158730140e+00,1.338128519824590212e-05,7.706649929921879531e-06
2.130952380952380931e+00,1.352698072940890358e-05,2.926826035851496150e-06
2.131746031746031722e+00,1.263515547199918177e-05,-1.546151093698821722e-06
2.132539682539682513e+00,1.063237949900002913e-05,-5.155329306791560559e-06
2.133333333333333304e+00,7.575151092668625736e-06,-7.565706966054218904e-06
2.134126984126984095e+00,3.672983624160246479e-06,-8.669450820664474975e-06
2.134920634920634885e+00,-7.171476948101112962e-07,-8.550618665638329296e-06
2.135714285714285676e+00,-5.128825590113524225e-06,-7.430276644920484483e-06
2.136507936507936467e+00,-9.052415307311014909e-06,-5.609891471515209847e-06
2.137301587301587258e+00,-1.201812524163072503e-05,-3.423131749824506284e-06
2.138095238095238049e+00,-1.367972520587790087e-05,-1.198260586816765064e-06
2.138888888888888840e+00,-1.388102028790745198e-05,7.718783717856923770e-07
2.139682539682539630e+00,-1.268924694404949513e-05,2.256406211093254820e-06
2.140476190476190421e+00,-1.038621541810363152e-05,3.110882941013639767e-06
2.141269841269841212e+00,-7.418854482603405177e-06,3.296158749345606024e-06
2.142063492063492003e+00,-4.322296664433490148e-06,2.883801961389087597e-06
2.142857142857142794e+00,-1.635205298323601294e-06,2.040207417586312901e-06
2.143650793650793585e+00,1.747730335067894870e-07,9.874270931369647890e-07
2.144444444444444375e+00,7.662744985461786000e-07,-5.131966901182108858e-08
2.145238095238095166e+00,-3.875596005014533672e-08,-9.052224405019350079e-07
2.146031746031745957e+00,-2.229697044733906494e-06,-1.491063322615295260e-06
2.146825396825396748e+00,-5.589291647215276688e-06,-1.819560261806824362e-06
2.147619047619047539e+00,-9.687241752921460909e-06,-1.973988019883526009e-06
2.148412698412698330e+00,-1.389832924328838409e-05,-2.072073279241261858e-06
2.149206349206349120e+00,-1.746126362061299750e-05,-2.225589511149784739e-06
2.149999999999999911e+00,-1.958821621735365551e-05,-2.508630544981154102e-06
2.150793650793650702e+00,-1.961854867544039947e-05,-2.939093695402622764e-06
2.151587301587301493e+00,-1.718719188960659086e-05,-3.473362322584799568e-06
2.152380952380952284e+00,-1.235794887013347579e-05,-4.013261142863883866e-06
2.153174603174603075e+00,-5.668232795943304021e-06,-4.424664442704290680e-06
2.153968253968253865e+00,1.946530320210959270e-06,-4.565789331818425176e-06
2.154761904761904656e+00,9.339222839263793834e-06,-4.320257744956149409e-06
2.155555555555555447e+00,1.539770956616393153e-05,-3.627484270901813009e-06
2.156349206349206238e+00,1.928159675581722708e-05,-2.502337968929488044e-06
2.157142857142857029e+00,2.058560639607381703e-05,-1.037977863770386959e-06
2.157936507936507819e+00,1.939131591236806066e-05,6.096833572088925576e-07
2.158730158730158610e+00,1.620127795804801669e-05,2.251683989958365496e-06
2.159523809523809401e+00,1.178092026435068092e-05,3.701522865284804543e-06
2.160317460317460192e+00,6.957200312465788852e-06,4.807500694772767962e-06
2.161111111111110983e+00,2.431192459887225481e-06,5.475201603686509719e-06
2.161904761904761774e+00,-1.348504027776399487e-06,5.676554852661409188e-06
2.162698412698412564e+00,-4.227882010303800612e-06,5.445113188056763651e-06
2.163492063492063355e+00,-6.307227916377656822e-06,4.860857666372690131e-06
2.164285714285714146e+00,-7.840464730189656927e-06,4.031004338727877743e-06
2.165079365079364937e+00,-9.107392941061558068e-06,3.073281412263039929e-06
2.165873015873015728e+00,-1.029463116776272157e-05,2.104105288463362193e-06
2.166666666666666519e+00,-1.141611361034549022e-05,1.229164187268510951e-06
2.167460317460317309e+00,-1.229311558490502577e-05,5.325627649465833729e-07
2.168253968253968100e+00,-1.259888115475856101e-05,6.419615364332917359e-08
2.169047619047618891e+00,-1.195637067036013396e-05,-1.697469178777547607e-07
2.169841269841269682e+00,-1.006246302698996397e-05,-2.063505762445528807e-07
2.170634920634920473e+00,-6.802271697988877301e-06,-1.128714825837787801e-07
2.171428571428571264e+00,-2.317755447085382534e-06,3.422446630321003387e-08
2.172222222222222054e+00,2.992258027967417953e-06,1.681105760120785173e-07
2.173015873015872845e+00,8.541957174759037651e-06,2.396296998091959879e-07
2.173809523809523636e+00,1.367826413400411287e-05,2.125932694420527834e-07
2.174603174603174427e+00,1.781704228093052573e-05,5.224765680787108230e-08
2.175396825396825218e+00,2.056012563269499530e-05,-2.828495969718657896e-07
2.176190476190476009e+00,2.176456967934437795e-05,-8.367294857612467078e-07
2.176984126984126799e+00,2.154897938452044460e-05,-1.637686887255702286e-06
2.177777777777777590e+00,2.023844508570568943e-05,-2.672773615056969485e-06
2.178571428571428381e+00,1.826589351959658457e-05,-3.868154416998143946e-06
2.179365079365079172e+00,1.605919529670720835e-05,-5.086897163457025449e-06
2.180158730158729963e+00,1.394601579500339553e-05,-6.147306612621829173e-06
2.180952380952380754e+00,1.210067998698077782e-05,-6.855326444067979510e-06
2.181746031746031544e+00,1.054231322483080079e-05,-7.039979414706640211e-06
2.182539682539682335e+00,9.177280635751557458e-06,-6.582607357827747478e-06
2.183333333333333126e+00,7.866892808238262928e-06,-5.435720901797017992e-06
2.184126984126983917e+00,6.496329760560001772e-06,-3.632014870668512773e-06
2.184920634920634708e+00,5.023311045343725102e-06,-1.286670623623540713e-06
2.185714285714285499e+00,3.493714596929288010e-06,1.404254273573155730e-06
2.186507936507936289e+00,2.022636356968580138e-06,4.169710429843420882e-06
2.187301587301587080e+00,7.491473333167233223e-07,6.678886681433526693e-06
2.188095238095238315e+00,-2.212157555343991993e-07,8.574605381866833153e-06
2.188888888888889106e+00,-8.702063769117152330e-07,9.533404471891091241e-06
2.189682539682539897e+00,-1.301362325127692087e-06,9.353681037685176433e-06
2.190476190476190688e+00,-1.742395546922781173e-06,8.058971338416339824e-06
2.191269841269841478e+00,-2.508238487797031252e-06,5.986482123033979402e-06
2.192063492063492269e+00,-3.926511057940197461e-06,3.819133571463262128e-06
2.192857142857143060e+00,-6.238471903863079038e-06,2.519680541432543116e-06
2.193650793650793851e+00,-9.499157275393348292e-06,3.142786883195763888e-06
2.194444444444444642e+00,-1.350631848641363764e-05,6.537253879473709269e-06
2.195238095238095433e+00,-1.778549457392122193e-05,1.300081432873619656e-05
2.196031746031746223e+00,-2.164698329468548108e-05,2.199666869416638519e-05
2.196825396825397014e+00,-2.431146098093642160e-05,3.205722077992923875e-05
2.197619047619047805e+00,-2.507939671045126453e-05,4.096372883623520714e-05
2.198412698412698596e+00,-2.350240942972683629e-05,4.620226902674028633e-05
2.199206349206349387e+00,-1.950944571787875567e-05,4.558963116016493772e-05
2.200000000000000178e+00,-1.345070477274308991e-05,3.788654586762870276e-05
2.200793650793650968e+00,-6.045540366706957488e-06,2.320648847268372010e-05
2.201587301587301759e+00,1.750648126661909345e-06,3.091078465589873803e-06
2.202380952380952550e+00,8.922203297061031573e-06,-1.976952697710711337e-05
2.203174603174603341e+00,1.456446794382648936e-05,-4.208566788895324375e-05
2.203968253968254132e+00,1.801147187641061393e-05,-6.063333969920330346e-05
2.204761904761904923e+00,1.890162753332087412e-05,-7.286902715917487560e-05
2.205555555555555713e+00,1.718638229977227780e-05,-7.735990805830738281e-05
2.206349206349206504e+00,1.310226625464044213e-05,-7.395394009342252950e-05
2.207142857142857295e+00,7.128687193110573010e-06,-6.368369458536733783e-05
2.207936507936508086e+00,-5.554703527415948716e-08,-4.846246768212387438e-05
2.208730158730158877e+00,-7.617580071349737306e-06,-3.067307924485393369e-05
2.209523809523809668e+00,-1.462946814182233327e-05,-1.275401614296153369e-05
2.210317460317460458e+00,-2.015610076267499297e-05,3.145314810501624687e-06
2.211111111111111249e+00,-2.337940671851491319e-05,1.541735750015171331e-05
2.211904761904762040e+00,-2.374644943041542914e-05,2.316756240765875067e-05
2.212698412698412831e+00,-2.110576230754273824e-05,2.631211033784449412e-05
2.213492063492063622e+00,-1.578359212416491030e-05,2.558249199200751152e-05
2.214285714285714413e+00,-8.560597713045312347e-06,2.239672497862564901e-05
2.215079365079365203e+00,-5.394102647095557301e-07,1.857292051074310767e-05
2.215873015873015994e+00,7.068881986639512281e-06,1.591366425260379655e-05
2.216666666666666785e+00,1.318365560856305116e-05,1.575110982817366073e-05
2.217460317460317576e+00,1.705713635845905595e-05,1.857809928254871535e-05
2.218253968253968367e+00,1.839273326916665159e-05,2.388123932971678129e-05
2.219047619047619158e+00,1.735794146613109501e-05,3.024119757935602069e-05
2.219841269841269948e+00,1.449808960295546621e-05,3.569065068597698141e-05
2.220634920634920739e+00,1.057977424134965685e-05,3.824231748169881908e-05
2.221428571428571530e+00,6.406925970602383141e-06,3.644195619357945359e-05
2.222222222222222321e+00,2.655369997530854953e-06,2.978843135436811811e-05
2.223015873015873112e+00,-2.378935056752479458e-07,1.890553839599687914e-05
2.223809523809523903e+00,-2.113266992119913889e-06,5.430030852334273293e-06
2.224603174603174693e+00,-3.057978286728822293e-06,-8.340764669955523779e-06
2.225396825396825484e+00,-3.324996571347179201e-06,-1.994895181783200568e-05
2.226190476190476275e+00,-3.228883658809651186e-06,-2.731345884967697457e-05
2.226984126984127066e+00,-3.047897583350797731e-06,-2.919626316861195642e-05
2.227777777777777857e+00,-2.956428578213181134e-06,-2.550175830711484665e-05
2.228571428571428648e+00,-3.000278940694520155e-06,-1.734027752111103830e-05
2.229365079365079438e+00,-3.112761113371590756e-06,-6.829696007592239123e-06
2.230158730158730229e+00,-3.157433490542377409e-06,3.338492809850635330e-06
2.230952380952381020e+00,-2.978420570490822573e-06,1.049065480750702064e-05
2.231746031746031811e+00,-2.443064881517838183e-06,1.259805434023109991e-05
2.232539682539682602e+00,-1.470679796499966636e-06,8.788964376214792725e-06
2.233333333333333393e+00,-4.940593643250954016e-08,-4.000617218061156903e-07
2.234126984126984183e+00,1.753989737569643630e-06,-1.312443323327581408e-05
2.234920634920634974e+00,3.789725213514446083e-06,-2.667380598203356897e-05
2.235714285714285765e+00,5.829960668607015284e-06,-3.813864533834403529e-05
2.236507936507936556e+00,7.589655255723924697e-06,-4.511305361494272626e-05
2.237301587301587347e+00,8.766809204155035407e-06,-4.624012738611968289e-05
2.238095238095238138e+00,9.098578318867822447e-06,-4.146189582998374939e-05
2.238888888888888928e+00,8.422561390069381701e-06,-3.192941018691827765e-05
2.239682539682539719e+00,6.727930914650842019e-06,-1.962733947196753167e-05
2.240476190476190510e+00,4.180488636428124230e-06,-6.840204384813957138e-06
2.241269841269841301e+00,1.110229166025168633e-06,4.385693141509723038e-06
2.242063492063492092e+00,-2.040495703772438955e-06,1.265073828816216344e-05
2.242857142857142883e+00,-4.798339052820331154e-06,1.739947725915220569e-05
2.243650793650793673e+00,-6.750739564946456362e-06,1.889016683522995427e-05
2.244444444444444464e+00,-7.626004482933299310e-06,1.797813547683696619e-05
2.245238095238095255e+00,-7.343060567442830356e-06,1.579520479647599526e-05
2.246031746031746046e+00,-6.020174597575141771e-06,1.342270176813254699e-05
2.246825396825396837e+00,-3.941931717538113330e-06,1.164355661204101794e-05
2.247619047619047628e+00,-1.493419822906730007e-06,1.082386126666314774e-05
2.248412698412698418e+00,9.222560005100103926e-07,1.092861584237794900e-05
2.249206349206349209e+00,2.963707529487058970e-06,1.163756667826219885e-05
2.250000000000000000e+00,4.410171492117040541e-06,1.250690472314607754e-05
2.250793650793650791e+00,5.187543865853508594e-06,1.312169815571294621e-05
2.251587301587301582e+00,5.358630331674802189e-06,1.319704899725814916e-05
2.252380952380952372e+00,5.084034684598913255e-06,1.260875662331785607e-05
2.253174603174603163e+00,4.566952354717215220e-06,1.136157766061539532e-05
2.253968253968253954e+00,3.997845793881382318e-06,9.525664080779606852e-06
2.254761904761904745e+00,3.512884153898501499e-06,7.179868500019351468e-06
2.255555555555555536e+00,3.173976741422290638e-06,4.391396836772532124e-06
2.256349206349206327e+00,2.970795535653089086e-06,1.239876590934316490e-06
2.257142857142857117e+00,2.839211488889623056e-06,-2.130310741996735072e-06
2.257936507936507908e+00,2.687592405287933375e-06,-5.462658960454078706e-06
2.258730158730158699e+00,2.422665366300605269e-06,-8.381456952706757348e-06
2.259523809523809490e+00,1.969548701824494145e-06,-1.044518951032216117e-05
2.260317460317460281e+00,1.284549260446314485e-06,-1.125407085871990380e-05
2.261111111111111072e+00,3.622259904435986659e-07,-1.057930913725052872e-05
2.261904761904761862e+00,-7.614316934266696695e-07,-8.467803673699389743e-06
2.262698412698412653e+00,-2.009820738707035617e-06,-5.280107839638347554e-06
2.263492063492063444e+00,-3.272983829157687825e-06,-1.640007413532640011e-06
2.264285714285714235e+00,-4.423958117134781493e-06,1.696803420124538955e-06
2.265079365079365026e+00,-5.343699462035693260e-06,4.020580950997744486e-06
2.265873015873015817e+00,-5.948977322009430683e-06,4.842707051738514984e-06
2.266666666666666607e+00,-6.213851374277827575e-06,4.020672401515933318e-06
2.267460317460317398e+00,-6.175500685107456551e-06,1.801039121304874819e-06
2.268253968253968189e+00,-5.919803047594284448e-06,-1.229060347655960800e-06
2.269047619047618980e+00,-5.549719092889104864e-06,-4.269228622337000096e-06
2.269841269841269771e+00,-5.147352806321919271e-06,-6.481640523842830448e-06
2.270634920634920562e+00,-4.744808869138368511e-06,-7.174615922851260319e-06
2.271428571428571352e+00,-4.316707454486786276e-06,-5.951937297049938323e-06
2.272222222222222143e+00,-3.798605210849688806e-06,-2.795141504949776274e-06
2.273015873015872934e+00,-3.124538964305279356e-06,1.936124500436650057e-06
2.273809523809523725e+00,-2.268960585839171490e-06,7.579551876101055850e-06
2.274603174603174516e+00,-1.277040434495559529e-06,1.329838947055450646e-05
2.275396825396825307e+00,-2.723112400093236418e-07,1.823162288652797625e-05
2.276190476190476097e+00,5.614579754718725913e-07,2.163643760138081541e-05
2.276984126984126888e+00,1.019922872542022662e-06,2.299959920916609890e-05
2.277777777777777679e+00,9.300354990098405242e-07,2.210243895723360840e-05
2.278571428571428470e+00,2.021998860532678183e-07,1.903250885769692573e-05
2.279365079365079261e+00,-1.129547381659797137e-06,1.414356382249576822e-05
2.280158730158730052e+00,-2.890055756488783423e-06,7.974687260708334706e-06
2.280952380952380842e+00,-4.775884715704080062e-06,1.148611081457621160e-06
2.281746031746031633e+00,-6.401054161498547983e-06,-5.724297162973997318e-06
2.282539682539682424e+00,-7.371165650124003458e-06,-1.211083353528823043e-05
2.283333333333333215e+00,-7.372678376664069660e-06,-1.757417822840021335e-05
2.284126984126984006e+00,-6.256162574894512001e-06,-2.175300765948210137e-05
2.284920634920634797e+00,-4.088643263290707677e-06,-2.432737127472794434e-05
2.285714285714285587e+00,-1.154581873999564653e-06,-2.500977420475467147e-05
2.286507936507936378e+00,2.101097700590906498e-06,-2.359090809074907027e-05
2.287301587301587169e+00,5.175425645490310309e-06,-2.003837207763385392e-05
2.288095238095237960e+00,7.626604432186735133e-06,-1.460710525587897666e-05
2.288888888888888751e+00,9.175254318297928322e-06,-7.896682571866924367e-06
2.289682539682539542e+00,9.758822834926472026e-06,-8.032326873369704385e-07
2.290476190476190332e+00,9.525627662761713523e-06,5.639644734382753047e-06
2.291269841269841123e+00,8.774275321676313190e-06,1.048346339919480274e-05
2.292063492063491914e+00,7.860643206923133768e-06,1.307635383802495561e-05
2.292857142857142705e+00,7.102290665933235572e-06,1.319937815637778363e-05
2.293650793650793496e+00,6.706577086605780575e-06,1.109746281905850792e-05
2.294444444444444287e+00,6.736494225636458352e-06,7.410006933592069091e-06
2.295238095238095077e+00,7.114040855688823776e-06,3.029063267073645054e-06
2.296031746031745868e+00,7.651753214132166848e-06,-1.079276299969699923e-06
2.296825396825396659e+00,8.100925637756964918e-06,-4.057137089544757223e-06
2.297619047619047450e+00,8.206881550971671652e-06,-5.312492971519250232e-06
2.298412698412698241e+00,7.763028103949653555e-06,-4.627183712607093638e-06
2.299206349206349032e+00,6.655113262799563595e-06,-2.194742759873837861e-06
2.299999999999999822e+00,4.887039144179654500e-06,1.422582629282970551e-06
2.300793650793650613e+00,2.582038326215550318e-06,5.412643576760536651e-06
2.301587301587301404e+00,-4.162847122247108124e-08,8.885967603710160503e-06
2.302380952380952195e+00,-2.714675352867767448e-06,1.106646274728676503e-05
2.303174603174602986e+00,-5.169321872591296267e-06,1.145850220884360588e-05
2.303968253968253777e+00,-7.187141986958775888e-06,9.952350319234445680e-06
2.304761904761904567e+00,-8.631213387133101922e-06,6.843177577336436671e-06
2.305555555555555358e+00,-9.457116411525768571e-06,2.758208394228953718e-06
2.306349206349206149e+00,-9.703970666804832780e-06,-1.493153521407491471e-06
2.307142857142856940e+00,-9.471636280179021659e-06,-5.113428292199789411e-06
2.307936507936507731e+00,-8.891767049253334368e-06,-7.509488180206059989e-06
2.308730158730158522e+00,-8.099250000870685919e-06,-8.433907068294851811e-06
2.309523809523809312e+00,-7.208837426018190393e-06,-8.036995646384586804e-06
2.310317460317460103e+00,-6.300549759951314396e-06,-6.815921103669036849e-06
2.311111111111110894e+00,-5.415889256534709970e-06,-5.476274082869466812e-06
2.311904761904761685e+00,-4.564140317559834234e-06,-4.743755678965558010e-06
2.312698412698412920e+00,-3.734518846967104058e-06,-5.173065617217856631e-06
2.313492063492063711e+00,-2.907327490504480199e-06,-6.997673768517941658e-06
2.314285714285714501e+00,-2.057558789839824178e-06,-1.005228262827408416e-05
2.315079365079365292e+00,-1.148640485593854700e-06,-1.378458219156797075e-05
2.315873015873016083e+00,-1.209527368133060075e-07,-1.735697373706083637e-05
2.316666666666666874e+00,1.114453705485274887e-06,-1.982184210056194234e-05
2.317460317460317665e+00,2.665984464563639805e-06,-2.033586941422095595e-05
2.318253968253968456e+00,4.630281807055188562e-06,-1.836441216705211844e-05
2.319047619047619246e+00,7.043411366684539122e-06,-1.382363778845798346e-05
2.319841269841270037e+00,9.826531301916899402e-06,-7.120716993259301756e-06
2.320634920634920828e+00,1.274439456908660023e-05,9.211787451573650046e-07
2.321428571428571619e+00,1.539810928656641011e-05,9.234450057748086631e-06
2.322222222222222410e+00,1.726979864142498254e-05,1.673019647543511442e-05
2.323015873015873201e+00,1.782287385185931172e-05,2.251566198820330233e-05
2.323809523809523991e+00,1.663997575487532031e-05,2.605380576803476993e-05
2.324603174603174782e+00,1.356031578960400394e-05,2.723157039763182089e-05
2.325396825396825573e+00,8.770270615089943402e-06,2.632780315271699830e-05
2.326190476190476364e+00,2.811713471511606591e-06,2.389409081309414780e-05
2.326984126984127155e+00,-3.502113221553957743e-06,2.057896215970007642e-05
2.327777777777777946e+00,-9.244768251133356985e-06,1.693841624143052678e-05
2.328571428571428736e+00,-1.356957927715008552e-05,1.328240262375813088e-05
2.329365079365079527e+00,-1.588998634460299505e-05,9.603199790559771991e-06
2.330158730158730318e+00,-1.600356490181839648e-05,5.613854740152820290e-06
2.330952380952381109e+00,-1.412923981053878025e-05,8.952102163856742409e-07
2.331746031746031900e+00,-1.084792418216922171e-05,-4.882767676772384067e-06
2.332539682539682691e+00,-6.961796482759393558e-06,-1.172556378106587272e-05
2.333333333333333481e+00,-3.309760222781710584e-06,-1.913723530129848209e-05
2.334126984126984272e+00,-5.878053970435509393e-07,-2.607053495035390776e-05
2.334920634920635063e+00,7.814231700208528162e-07,-3.104983725505743958e-05
2.335714285714285854e+00,7.029661489245600768e-07,-3.247214803694331657e-05
2.336507936507936645e+00,-6.158676436675749833e-07,-2.903850390935784303e-05
2.337301587301587436e+00,-2.753249012216678734e-06,-2.021332783182787130e-05
2.338095238095238226e+00,-5.192728759705926671e-06,-6.569810222955783715e-06
2.338888888888889017e+00,-7.443472702677301357e-06,1.012114916964568593e-05
2.339682539682539808e+00,-9.136523723182255526e-06,2.714287466441846073e-05
2.340476190476190599e+00,-1.008385861166863428e-05,4.139979000581512063e-05
2.341269841269841390e+00,-1.029592587318107374e-05,5.015214002362965769e-05
2.342063492063492181e+00,-9.957667363007400373e-06,5.169634609323100647e-05
2.342857142857142971e+00,-9.364991883593994142e-06,4.577742996394719649e-05
2.343650793650793762e+00,-8.828367774032705033e-06,3.361012729276273431e-05
2.344444444444444553e+00,-8.560408757495202274e-06,1.751841699004209231e-05
2.345238095238095344e+00,-8.576403287463925366e-06,3.252788645148683618e-07
2.346031746031746135e+00,-8.642732786463691659e-06,-1.530872725889104145e-05
2.346825396825396925e+00,-8.302058626583544020e-06,-2.740690458292835321e-05
2.347619047619047716e+00,-6.985410571868003346e-06,-3.493879080119486241e-05
2.348412698412698507e+00,-4.193471396985021136e-06,-3.780772512691791480e-05
2.349206349206349298e+00,3.006005197484469497e-07,-3.663804048986408324e-05
2.350000000000000089e+00,6.294997344183018807e-06,-3.247850038684083892e-05
2.350793650793650880e+00,1.311525085711293698e-05,-2.652539253688721894e-05
2.351587301587301670e+00,1.971563957943096810e-05,-1.992070699970850176e-05
2.352380952380952461e+00,2.490776867535729350e-05,-1.363075818775020443e-05
2.353174603174603252e+00,2.765104423213489209e-05,-8.382171918119736543e-06
2.353968253968254043e+00,2.731866501032335714e-05,-4.628761721411227720e-06
2.354761904761904834e+00,2.386378809089611925e-05,-2.533650182215590113e-06
2.355555555555555625e+00,1.784454682007555196e-05,-1.964789362224291752e-06
2.356349206349206415e+00,1.030795898274169159e-05,-2.513245469480574317e-06
2.357142857142857206e+00,2.567857049978528415e-06,-3.549429038229966843e-06
2.357936507936507997e+00,-4.066896011683473436e-06,-4.329316081519950740e-06
2.358730158730158788e+00,-8.552373736595079686e-06,-4.147674292193377232e-06
2.359523809523809579e+00,-1.030449185577108964e-05,-2.511206742631174951e-06
2.360317460317460370e+00,-9.292668862456428684e-06,7.171317414348679119e-07
2.361111111111111160e+00,-6.017006493094654974e-06,5.255579628200025483e-06
2.361904761904761951e+00,-1.375994769827072632e-06,1.045484006927352708e-05
2.362698412698412742e+00,3.545574603786064653e-06,1.545615505767363625e-05
2.363492063492063533e+00,7.718677370193547204e-06,1.940970018671516040e-05
2.364285714285714324e+00,1.038209798670933439e-05,2.168515923478664506e-05
2.365079365079365115e+00,1.117195081084051419e-05,2.201127690874918555e-05
2.365873015873015905e+00,1.014225217117859404e-05,2.050882121711929807e-05
2.366666666666666696e+00,7.685332698552218634e-06,1.761826355127862976e-05
2.367460317460317487e+00,4.390291316039505163e-06,1.395418202226584675e-05
2.368253968253968278e+00,8.894564658103951327e-07,1.013385612715137608e-05
2.369047619047619069e+00,-2.265554701934791345e-06,6.627925799207117118e-06
2.369841269841269860e+00,-4.677897956062862898e-06,3.670679797732253785e-06
2.370634920634920650e+00,-6.131673543529079167e-06,1.249281560192098253e-06
2.371428571428571441e+00,-6.585547688468156880e-06,-8.324613712056866265e-07
2.372222222222222232e+00,-6.150391510165916314e-06,-2.842630498931109005e-06
2.373015873015873023e+00,-5.060104471865630264e-06,-5.000976829241685363e-06
2.373809523809523814e+00,-3.635651778135550648e-06,-7.386535022604598262e-06
2.374603174603174605e+00,-2.237862755404641076e-06,-9.896864951780837827e-06
2.375396825396825395e+00,-1.207547086244514696e-06,-1.226658654584003413e-05
2.376190476190476186e+00,-7.998631427659312161e-07,-1.413768317385928446e-05
2.376984126984126977e+00,-1.128035672217961117e-06,-1.516131660630146781e-05
2.377777777777777768e+00,-2.134162523727025677e-06,-1.510258163383373264e-05
2.378571428571428559e+00,-3.599894435391772509e-06,-1.391826242082439075e-05
2.379365079365079350e+00,-5.198735513163027855e-06,-1.178415745811554231e-05
2.380158730158730140e+00,-6.578443506900647210e-06,-9.061944648849720344e-06
2.380952380952380931e+00,-7.451358299779323633e-06,-6.213393186663795306e-06
2.381746031746031722e+00,-7.666810559411283508e-06,-3.686843205581711236e-06
2.382539682539682513e+00,-7.244871135732403856e-06,-1.810139181834740992e-06
2.383333333333333304e+00,-6.362754649186531490e-06,-7.209171301754273438e-07
2.384126984126984095e+00,-5.299672654441535790e-06,-3.504017564931244550e-07
2.384920634920634885e+00,-4.357712165353439520e-06,-4.571499545112731956e-07
2.385714285714285676e+00,-3.781779217343866410e-06,-6.918589936722465365e-07
2.386507936507936467e+00,-3.700034918673093009e-06,-6.709449914358468885e-07
2.387301587301587258e+00,-4.099078441135777156e-06,-4.479288384967894111e-08
2.388095238095238049e+00,-4.837683780346075109e-06,1.442118893372558925e-06
2.388888888888888840e+00,-5.691941655317238079e-06,3.896744332653625450e-06
2.389682539682539630e+00,-6.416635863853003549e-06,7.229229852392791666e-06
2.390476190476190421e+00,-6.805309792732710428e-06,1.111866657865697108e-05
2.391269841269841212e+00,-6.734749003490941211e-06,1.500663510394209841e-05
2.392063492063492003e+00,-6.185868141432048513e-06,1.813417913206210198e-05
2.392857142857142794e+00,-5.239126945728080053e-06,1.963395060602572624e-05
2.393650793650793585e+00,-4.047087318529623996e-06,1.867908876452588286e-05
2.394444444444444375e+00,-2.790010767342658454e-06,1.467484123065294418e-05
2.395238095238095166e+00,-1.623646684790826751e-06,7.460284340181997639e-06
2.396031746031745957e+00,-6.317326587046384633e-07,-2.529864739961219985e-06
2.396825396825396748e+00,2.024341471926850949e-07,-1.420122221199581669e-05
2.397619047619047539e+00,9.934152957996039628e-07,-2.588047700277979380e-05
2.398412698412698330e+00,1.916419456564158502e-06,-3.555567419715677588e-05
2.399206349206349120e+00,3.144192255848777696e-06,-4.124564157049450725e-05
2.399999999999999911e+00,4.777661847305624943e-06,-4.142493250571428347e-05
2.400793650793650702e+00,6.793860036833170149e-06,-3.540389179451522775e-05
2.401587301587301493e+00,9.029478977759409911e-06,-2.356279524989943292e-05
2.402380952380952284e+00,1.120662647306832272e-05,-7.367051756262068671e-06
2.403174603174603075e+00,1.299368555439501011e-05,1.085844293719936137e-05
2.403968253968253865e+00,1.408349950484893689e-05,2.835648691909437385e-05
2.404761904761904656e+00,1.426660147592325688e-05,4.247269917171725607e-05
2.405555555555555447e+00,1.347984369111079729e-05,5.117420706358929890e-05
2.406349206349206238e+00,1.181947675218909124e-05,5.343049059242366814e-05
2.407142857142857029e+00,9.519364506378109224e-06,4.937155374193272461e-05
2.407936507936507819e+00,6.904731074975487188e-06,4.019794118479506624e-05
2.408730158730158610e+00,4.335494251341997005e-06,2.788070774406059660e-05
2.409523809523809401e+00,2.150676880854345380e-06,1.473632479191509425e-05
2.410317460317460192e+00,6.202936498064621399e-07,2.977472328866494238e-06
2.411111111111110983e+00,-9.268003155667652483e-08,-5.673663897200077863e-06
2.411904761904761774e+00,4.103088850362069309e-08,-1.025411419421886848e-05
2.412698412698412564e+00,9.034177480695290263e-07,-1.068733295280797312e-05
2.413492063492063355e+00,2.231766781923363376e-06,-7.768068336798172402e-06
2.414285714285714146e+00,3.642075441387708148e-06,-3.015704665776666181e-06
2.415079365079364937e+00,4.678373035481465049e-06,1.587867225016496479e-06
2.415873015873015728e+00,4.890389710448330256e-06,3.953358786042274060e-06
2.416666666666666519e+00,3.935028572096340158e-06,2.296331587496097730e-06
2.417460317460317309e+00,1.685778162008779710e-06,-4.449332179729718733e-06
2.418253968253968100e+00,-1.678530243310727278e-06,-1.629252064701130906e-05
2.419047619047618891e+00,-5.641667852463606096e-06,-3.200555013094028955e-05
2.419841269841269682e+00,-9.404987526164491698e-06,-4.917901722995879062e-05
2.420634920634920473e+00,-1.203782691654898321e-05,-6.455071036882783120e-05
2.421428571428571264e+00,-1.269937969455809407e-05,-7.458952300420664775e-05
2.422222222222222054e+00,-1.087769243150049506e-05,-7.624100812498402029e-05
2.423015873015872845e+00,-6.575674442274533363e-06,-6.767315568698728284e-05
2.423809523809523636e+00,-3.806125819724285621e-07,-4.882870968057299589e-05
2.424603174603174427e+00,6.617204973079391632e-06,-2.161549192678103014e-05
2.425396825396825218e+00,1.304761801221544615e-05,1.035090343061167661e-05
2.426190476190476009e+00,1.757243728692850019e-05,4.241829097851070176e-05
2.426984126984126799e+00,1.920374126503447394e-05,6.982860841941713852e-05
2.427777777777777590e+00,1.754199906689301046e-05,8.867296099478997782e-05
2.428571428571428381e+00,1.286912702732479230e-05,9.662803228600615462e-05
2.429365079365079172e+00,6.072195580374081644e-06,9.330300902303916293e-05
2.430158730158729963e+00,-1.578894294244138491e-06,8.014876888650039990e-05
2.430952380952380754e+00,-8.735523127700707351e-06,6.000359869038582203e-05
2.431746031746031544e+00,-1.427114038332790011e-05,3.642992822507469069e-05
2.432539682539682335e+00,-1.750066869471128929e-05,1.301892642866664514e-05
2.433333333333333126e+00,-1.827178054005247141e-05,-7.187978334121866030e-06
2.434126984126983917e+00,-1.692247150463331568e-05,-2.207106798842736690e-05
2.434920634920634708e+00,-1.413449652308783492e-05,-3.057781150187711852e-05
2.435714285714285499e+00,-1.073285148770509740e-05,-3.268009240686607305e-05
2.436507936507936289e+00,-7.486576113015662158e-06,-2.921220723389205857e-05
2.437301587301587080e+00,-4.957426152060070901e-06,-2.165776789223030442e-05
2.438095238095238315e+00,-3.423608315011088420e-06,-1.192929968252825441e-05
2.438888888888889106e+00,-2.882106075054689126e-06,-2.151184602662698766e-06
2.439682539682539897e+00,-3.113033724712397940e-06,5.569957741513324783e-06
2.440476190476190688e+00,-3.778117692850478357e-06,9.409694321053851739e-06
2.441269841269841478e+00,-4.523350862269475504e-06,8.125684287781849785e-06
2.442063492063492269e+00,-5.060862591677580239e-06,1.350328508124753854e-06
2.442857142857143060e+00,-5.214766521916302059e-06,-1.020922489482313000e-05
2.443650793650793851e+00,-4.928084461198636581e-06,-2.476206469980117163e-05
2.444444444444444642e+00,-4.239472069038851739e-06,-3.967983365718733360e-05
2.445238095238095433e+00,-3.245251988056824037e-06,-5.198796247145313134e-05
2.446031746031746223e+00,-2.062273700128419543e-06,-5.900380714173411616e-05
2.446825396825397014e+00,-8.021488031513429950e-07,-5.896016112824781355e-05
2.447619047619047805e+00,4.395057031029489398e-07,-5.144142695450238994e-05
2.448412698412698596e+00,1.582174186978514513e-06,-3.750665092281155839e-05
2.449206349206349387e+00,2.556481000004954832e-06,-1.946150424171357821e-05
2.450000000000000178e+00,3.306120069861545851e-06,-3.408002052394644035e-07
2.450793650793650968e+00,3.798771073491511140e-06,1.675708303469276804e-05
2.451587301587301759e+00,4.040768544134989686e-06,2.930864890856843451e-05
2.452380952380952550e+00,4.085863173989224635e-06,3.582440636983893036e-05
2.453174603174603341e+00,4.030429003742892631e-06,3.604372558722702762e-05
2.453968253968254132e+00,3.993070572389754076e-06,3.086073588601757417e-05
2.454761904761904923e+00,4.082089128922663467e-06,2.203835920853784816e-05
2.455555555555555713e+00,4.358424484086315986e-06,1.179631765887842434e-05
2.456349206349206504e+00,4.804260794960086199e-06,2.360338605365052824e-06
2.457142857142857295e+00,5.307631193764036193e-06,-4.451070850759644948e-06
2.457936507936508086e+00,5.670675326841310649e-06,-7.538103924253596716e-06
2.458730158730158877e+00,5.644642570524997980e-06,-6.678117214215138360e-06
2.459523809523809668e+00,4.989312805569166751e-06,-2.500415710992655111e-06
2.460317460317460458e+00,3.548187190789759208e-06,3.718424972155542146e-06
2.461111111111111249e+00,1.323717527619014086e-06,1.038930200713042780e-05
2.461904761904762040e+00,-1.468934469783162240e-06,1.598824145845979057e-05
2.462698412698412831e+00,-4.392173944664822172e-06,1.937982950401905043e-05
2.463492063492063622e+00,-6.836815995442500198e-06,2.001318740356204895e-05
2.464285714285714413e+00,-8.136885115453933718e-06,1.796171087443123270e-05
2.465079365079365203e+00,-7.733426959592926879e-06,1.382104999607001489e-05
2.465873015873015994e+00,-5.352448577060008176e-06,8.507995966798137635e-06
2.466666666666666785e+00,-1.146659661758196410e-06,3.016192516190700554e-06
2.467460317460317576e+00,4.251837203148086830e-06,-1.811802934364222486e-06
2.468253968253968367e+00,9.803527846436506393e-06,-5.442620122341983762e-06
2.469047619047619158e+00,1.425807969921172612e-05,-7.705934672791369942e-06
2.469841269841269948e+00,1.643383496824498977e-05,-8.740106211728107142e-06
2.470634920634920739e+00,1.550861866006533713e-05,-8.858425002622371462e-06
2.471428571428571530e+00,1.124404827596509678e-05,-8.388411373337516035e-06
2.472222222222222321e+00,4.082813851759746688e-06,-7.542158523692180047e-06
2.473015873015873112e+00,-4.909470182120293720e-06,-6.360855910561742824e-06
2.473809523809523903e+00,-1.424902848463032450e-05,-4.747048283587131428e-06
2.474603174603174693e+00,-2.234088239341866110e-05,-2.565349916539183950e-06
2.475396825396825484e+00,-2.781439183064969147e-05,2.314551396967951154e-07
2.476190476190476275e+00,-2.979848569420219799e-05,3.501092595784655491e-06
2.476984126984127066e+00,-2.805767642138373453e-05,6.875710464761237754e-06
2.477777777777777857e+00,-2.295216714082391662e-05,9.810241838189793026e-06
2.478571428571428648e+00,-1.524962887727254228e-05,1.170789227671267203e-05
2.479365079365079438e+00,-5.873568010632733373e-06,1.208921251836628341e-05
2.480158730158730229e+00,4.307588891711998632e-06,1.075198402092734754e-05
2.480952380952381020e+00,1.457674550828401442e-05,7.864720290492311614e-06
2.481746031746031811e+00,2.433899888149327291e-05,3.952493716691912764e-06
2.482539682539682602e+00,3.301989020333884932e-05,-2.316755491867696478e-07
2.483333333333333393e+00,3.997612206716805102e-05,-3.914738487927282051e-06
2.484126984126984183e+00,4.448987705283208711e-05,-6.523694662859805585e-06
2.484920634920634974e+00,4.586772406182157408e-05,-7.843187451869641991e-06
2.485714285714285765e+00,4.360866841689050813e-05,-8.057136536103038895e-06
2.486507936507936556e+00,3.757318500215380181e-05,-7.662327180897277477e-06
2.487301587301587347e+00,2.808757549865110838e-05,-7.286754116761113577e-06
2.488095238095238138e+00,1.594666547376616644e-05,-7.476260191174157607e-06
2.488888888888888928e+00,2.314705686906864523e-06,-8.518844661702408617e-06
2.489682539682539719e+00,-1.144598956258321883e-05,-1.035734916367989520e-05
2.490476190476190510e+00,-2.397486495652812179e-05,-1.260822417247474403e-05
2.491269841269841301e+00,-3.409959246587451038e-05,-1.467086152993165080e-05
2.492063492063492092e+00,-4.098025221880954893e-05,-1.588984716126606763e-05
2.492857142857142883e+00,-4.419750999444657311e-05,-1.572537206386755848e-05
2.493650793650793673e+00,-4.378102318639566753e-05,-1.389181508064317519e-05
2.494444444444444464e+00,-4.017638107664967678e-05,-1.043534440111400416e-05
2.495238095238095255e+00,-3.414847602165473045e-05,-5.734166569329046303e-06
2.496031746031746046e+00,-2.662701464164666417e-05,-4.194165519419839794e-07
2.496825396825396837e+00,-1.852089766982807710e-05,4.767590340817584153e-06
2.497619047619047628e+00,-1.055197615322986202e-05,9.146502216364539266e-06
2.498412698412698418e+00,-3.164469461508204962e-06,1.224965839857857250e-05
2.499206349206349209e+00,3.458837198168377730e-06,1.391150006147783652e-05
2.500000000000000000e+00,9.289681977143214979e-06,1.427615006726397954e-05
2.500793650793650791e+00,1.431505798472727902e-05,1.373269708812881281e-05
2.501587301587301582e+00,1.843570575879927074e-05,1.280533107829715981e-05
2.502380952380952372e+00,2.144769408360866210e-05,1.202573902981716141e-05
2.503174603174603163e+00,2.310731235626424057e-05,1.180814728101405266e-05
2.503968253968253954e+00,2.323982813284403680e-05,1.234604111639118745e-05
2.504761904761904745e+00,2.183724240480052828e-05,1.355402151816378280e-05
2.505555555555555536e+00,1.910170181968034908e-05,1.507690660589713044e-05
2.506349206349206327e+00,1.541868614793619853e-05,1.637250895855788050e-05
2.507142857142857117e+00,1.127273335978334970e-05,1.684892650223518415e-05
2.507936507936507908e+00,7.137734938259007187e-06,1.601562287699147578e-05
2.508730158730158699e+00,3.378956922223929228e-06,1.360231221549996218e-05
2.509523809523809490e+00,1.955289779086310884e-07,9.612614826989606675e-06
2.510317460317460281e+00,-2.384364851324098171e-06,4.303048315555815566e-06
2.511111111111111072e+00,-4.460925515470999711e-06,-1.897482864009617987e-06
2.511904761904761862e+00,-6.191752639967428083e-06,-8.494082010915416758e-06
2.512698412698412653e+00,-7.718126726543143382e-06,-1.501751128638718582e-05
2.513492063492063444e+00,-9.112338553793017200e-06,-2.106844328486027424e-05
2.514285714285714235e+00,-1.035980264244776232e-05,-2.630331876527419515e-05
2.515079365079365026e+00,-1.137567004842770417e-05,-3.037812392412878089e-05
2.515873015873015817e+00,-1.204386028095936891e-05,-3.288787150843648817e-05
2.516666666666666607e+00,-1.226155491594587966e-05,-3.334666235579900821e-05
2.517460317460317398e+00,-1.197463804770464431e-05,-3.124334605373873007e-05
2.518253968253968189e+00,-1.119596235404434605e-05,-2.618218897000704925e-05
2.519047619047618980e+00,-1.000487048322026953e-05,-1.808012213693605246e-05
2.519841269841269771e+00,-8.531317771865285811e-06,-7.352159173887801189e-06
2.520634920634920562e+00,-6.930828151079397415e-06,5.005192173280629892e-06
2.521428571428571352e+00,-5.357067397761279464e-06,1.750455346953704066e-05
2.522222222222222143e+00,-3.937249289805712711e-06,2.844319809672407820e-05
2.523015873015872934e+00,-2.753376316922125627e-06,3.629547466329229087e-05
2.523809523809523725e+00,-1.831071251935190796e-06,4.009731478483965957e-05
2.524603174603174516e+00,-1.137478229962805225e-06,3.969240133872513056e-05
2.525396825396825307e+00,-5.891159691070144727e-07,3.575772490923454460e-05
2.526190476190476097e+00,-6.905957197521242143e-08,2.960397200072618494e-05
2.526984126984126888e+00,5.488185765050119318e-07,2.281721711503490981e-05
2.527777777777777679e+00,1.371885910703136738e-06,1.684674395283685942e-05
2.528571428571428470e+00,2.461238545932850300e-06,1.264669653435320247e-05
2.529365079365079261e+00,3.809933447018570808e-06,1.045893593551801523e-05
2.530158730158730052e+00,5.333213453769262215e-06,9.790266364198068971e-06
2.530952380952380842e+00,6.876537622008630030e-06,9.589663331663701907e-06
2.531746031746031633e+00,8.244022783360558556e-06,8.574703858809533586e-06
2.532539682539682424e+00,9.243340398231257238e-06,5.610865708125347797e-06
2.533333333333333215e+00,9.735114394336682564e-06,3.672865165689012648e-08
2.534126984126984006e+00,9.670211023728436515e-06,-8.143538754795456915e-06
2.534920634920634797e+00,9.101254918814570991e-06,-1.823215669461238824e-05
2.535714285714285587e+00,8.164741470363284621e-06,-2.896446799387585968e-05
2.536507936507936378e+00,7.041898469247528998e-06,-3.875388073490449467e-05
2.537301587301587169e+00,5.913760784074349238e-06,-4.600315532077155044e-05
2.538095238095237960e+00,4.925535260389686087e-06,-4.942173662072443265e-05
2.538888888888888751e+00,4.168314709064208766e-06,-4.828655709091235980e-05
2.539682539682539542e+00,3.676941785573675681e-06,-4.259100595436243644e-05
2.540476190476190332e+00,3.436561561196014496e-06,-3.304812638854031216e-05
2.541269841269841123e+00,3.390051184916239674e-06,-2.094957766254618696e-05
2.542063492063491914e+00,3.442912002930794149e-06,-7.921942410161250314e-06
2.542857142857142705e+00,3.467573446804972759e-06,4.351158249208800829e-06
2.543650793650793496e+00,3.312169126263590987e-06,1.437412677224613790e-05
2.544444444444444287e+00,2.818569912764922120e-06,2.101304073718008184e-05
2.545238095238095077e+00,1.851150835519735407e-06,2.359515626967883118e-05
2.546031746031745868e+00,3.327251290071209543e-07,2.195318207139386525e-05
2.546825396825396659e+00,-1.720579225845129677e-06,1.643356257346561587e-05
2.547619047619047450e+00,-4.176011008123066721e-06,7.874242287192271937e-06
2.548412698412698241e+00,-6.782140793819548315e-06,-2.458753911530110345e-06
2.549206349206349032e+00,-9.194030350041597536e-06,-1.299474373986657296e-05
2.549999999999999822e+00,-1.102542821675220867e-05,-2.205364208340475929e-05
2.550793650793650613e+00,-1.192028642551511739e-05,-2.810213620864779799e-05
2.551587301587301404e+00,-1.162941272134360725e-05,-3.003011633938737859e-05
2.552380952380952195e+00,-1.007502000576781391e-05,-2.738455129029938173e-05
2.553174603174602986e+00,-7.387061871708397620e-06,-2.049502167109909842e-05
2.553968253968253777e+00,-3.899934998716341515e-06,-1.044388886946506538e-05
2.554761904761904567e+00,-1.057548405551521020e-07,1.129862746963723107e-06
2.555555555555555358e+00,3.429823007036363858e-06,1.235893231708175623e-05
2.556349206349206149e+00,6.173438678042399040e-06,2.153240779950513223e-05
2.557142857142856940e+00,7.728886983356459124e-06,2.743892696179135309e-05
2.557936507936507731e+00,7.916956844046170403e-06,2.957883715081780090e-05
2.558730158730158522e+00,6.811190021579106490e-06,2.819421498374224906e-05
2.559523809523809312e+00,4.721113570114542029e-06,2.412062792920446181e-05
2.560317460317460103e+00,2.127862700931104565e-06,1.851730437475166606e-05
2.561111111111110894e+00,-4.113441923618070420e-07,1.256530245284973985e-05
2.561904761904761685e+00,-2.367756725022089825e-06,7.224937383894374292e-06
2.562698412698412920e+00,-3.334016456373086409e-06,3.113229349009534368e-06
2.563492063492063711e+00,-3.091279727658855889e-06,5.114298523162417230e-07
2.564285714285714501e+00,-1.643847071880230718e-06,-5.375830451706354835e-07
2.565079365079365292e+00,7.802728622823347068e-07,-1.121443112264474075e-07
2.565873015873016083e+00,3.762169455337075497e-06,1.657347559773160491e-06
2.566666666666666874e+00,6.755707159840866328e-06,4.576346940769786233e-06
2.567460317460317665e+00,9.175707266841519585e-06,8.312002110756672770e-06
2.568253968253968456e+00,1.049846656598839776e-05,1.232009944552315508e-05
2.569047619047619246e+00,1.035742436601081980e-05,1.584677404323238308e-05
2.569841269841270037e+00,8.615604348987716899e-06,1.804698105525694295e-05
2.570634920634920828e+00,5.400374415836683943e-06,1.820114164361312953e-05
2.571428571428571619e+00,1.093721185450724111e-06,1.595108572530736649e-05
2.572222222222222410e+00,-3.720347383796421691e-06,1.145040950868679111e-05
2.573015873015873201e+00,-8.342886221629605605e-06,5.353654285927495319e-06
2.573809523809523991e+00,-1.206874937285128856e-05,-1.358239877653715566e-06
2.574603174603174782e+00,-1.430144922761735397e-05,-7.644499697894780506e-06
2.575396825396825573e+00,-1.465692809030059193e-05,-1.265857107813114752e-05
2.576190476190476364e+00,-1.303838365860601669e-05,-1.590549520165377589e-05
2.576984126984127155e+00,-9.665810301564964888e-06,-1.727132741650445942e-05
2.577777777777777946e+00,-5.049317433983950859e-06,-1.694661023262802277e-05
2.578571428571428736e+00,9.438294102293735101e-08,-1.529664745616979410e-05
2.579365079365079527e+00,4.969056721492273967e-06,-1.273394204952319417e-05
2.580158730158730318e+00,8.843613918189586516e-06,-9.630751367221763025e-06
2.580952380952381109e+00,1.118236394838221341e-05,-6.284845893841102748e-06
2.581746031746031900e+00,1.173191396396700013e-05,-2.929380331019495072e-06
2.582539682539682691e+00,1.054629830980460659e-05,2.358071092698374730e-07
2.583333333333333481e+00,7.946957238698227461e-06,3.016657668297239134e-06
2.584126984126984272e+00,4.430298867834559519e-06,5.218368113849893945e-06
2.584920634920635063e+00,5.482919590238292146e-07,6.663394304731101350e-06
2.585714285714285854e+00,-3.207002556544022916e-06,7.225280945586279682e-06
2.586507936507936645e+00,-6.486630359609272052e-06,6.864075012896341750e-06
2.587301587301587436e+00,-9.116822080315779972e-06,5.649964351422549239e-06
2.588095238095238226e+00,-1.107626896131009760e-05,3.765913419909632803e-06
2.588888888888889017e+00,-1.243265272673171643e-05,1.485719126042161434e-06
2.589682539682539808e+00,-1.326605325440271670e-05,-8.688952367797851306e-07
2.590476190476190599e+00,-1.360937660163358384e-05,-2.981317588956872794e-06
2.591269841269841390e+00,-1.342613462443738103e-05,-4.589012668981781727e-06
2.592063492063492181e+00,-1.262940255866438883e-05,-5.516937959742050640e-06
2.592857142857142971e+00,-1.113085688279139018e-05,-5.690739540884581350e-06
2.593650793650793762e+00,-8.901008448124856186e-06,-5.132141096703960991e-06
2.594444444444444553e+00,-6.021521599685382606e-06,-3.943740624597990030e-06
2.595238095238095344e+00,-2.714362865510813467e-06,-2.291653799689004366e-06
2.596031746031746135e+00,6.630535440755400819e-07,-3.917596257389751261e-07
2.596825396825396925e+00,3.662260667843288013e-06,1.499929498328962494e-06
2.597619047619047716e+00,5.823682474116043078e-06,3.097337077719699865e-06
2.598412698412698507e+00,6.774030194350148080e-06,4.101957527282904400e-06
2.599206349206349298e+00,6.311466374433406263e-06,4.234303677508518720e-06
2.600000000000000089e+00,4.449682250698902688e-06,3.281437008357157828e-06
2.600793650793650880e+00,1.407874864030407194e-06,1.156543418067377887e-06
2.601587301587301670e+00,-2.444108511570999824e-06,-2.041113344136010990e-06
2.602380952380952461e+00,-6.660098502779722468e-06,-5.984340166873505947e-06
2.603174603174603252e+00,-1.078319854904889082e-05,-1.011517667196055137e-05
2.603968253968254043e+00,-1.438364619381887501e-05,-1.369676247314612633e-05
2.604761904761904834e+00,-1.706529601696850918e-05,-1.592224899521555353e-05
2.605555555555555625e+00,-1.845192177848825214e-05,-1.606531135173168859e-05
2.606349206349206415e+00,-1.817382204818322413e-05,-1.364140770358030656e-05
2.607142857142857206e+00,-1.587663039847265890e-05,-8.542037541884559297e-06
2.607936507936507997e+00,-1.126757925404767593e-05,-1.107836709706508777e-06
2.608730158730158788e+00,-4.200805635165172995e-06,7.881584602800218180e-06
2.609523809523809579e+00,5.214286483690521145e-06,1.730611429530049179e-05
2.610317460317460370e+00,1.651324095973318045e-05,2.587844267689187622e-05
2.611111111111111160e+00,2.882409492883146883e-05,3.236190284290698684e-05
2.611904761904761951e+00,4.089588027882958650e-05,3.579069558224542237e-05
2.612698412698412742e+00,5.122518549103307451e-05,3.564678451088788337e-05
2.613492063492063533e+00,5.827383761022463145e-05,3.195477263455255503e-05
2.614285714285714324e+00,6.074430809125628959e-05,2.527334978421377003e-05
2.615079365079365115e+00,5.785725948665931074e-05,1.658553347529973050e-05
2.615873015873015905e+00,4.956567192787505191e-05,7.112769652592553260e-06
2.616666666666666696e+00,3.664734737693622690e-05,-1.907483578159166266e-06
2.617460317460317487e+00,2.064029247081950393e-05,-9.437875222699459475e-06
2.618253968253968278e+00,3.616733001437609614e-06,-1.481325574108795461e-05
2.619047619047619069e+00,-1.217330568071178322e-05,-1.783912694938545531e-05
2.619841269841269860e+00,-2.472104678345497455e-05,-1.879598652251259823e-05
2.620634920634920650e+00,-3.264309991332578758e-05,-1.834201004908875320e-05
2.621428571428571441e+00,-3.542891670259772189e-05,-1.732696705098381944e-05
2.622222222222222232e+00,-3.348440710499152269e-05,-1.655703460797157972e-05
2.623015873015873023e+00,-2.796815179148617688e-05,-1.657312641115499344e-05
2.623809523809523814e+00,-2.047873042811945024e-05,-1.750993463723190494e-05
2.624603174603174605e+00,-1.268496569571438956e-05,-1.908127252683545510e-05
2.625396825396825395e+00,-5.989743460550742633e-06,-2.069560068393607108e-05
2.626190476190476186e+00,-1.294551770647257497e-06,-2.166059996813674211e-05
2.626984126984126977e+00,1.099390243591848054e-06,-2.140577524298124603e-05
2.627777777777777768e+00,1.448152388844123430e-06,-1.964930741587313381e-05
2.628571428571428559e+00,4.025714412477463609e-07,-1.646053502658162364e-05
2.629365079365079350e+00,-1.227601220251136679e-06,-1.221169430373912909e-05
2.630158730158730140e+00,-2.719759462818776673e-06,-7.453380264779655771e-06
2.630952380952380931e+00,-3.628214079089538776e-06,-2.769868724331399090e-06
2.631746031746031722e+00,-3.866655904330258881e-06,1.334547906278200583e-06
2.632539682539682513e+00,-3.665549624247272962e-06,4.492515969036355063e-06
2.633333333333333304e+00,-3.428337303620948170e-06,6.479746347308201906e-06
2.634126984126984095e+00,-3.544684022784032734e-06,7.199626050280784554e-06
2.634920634920634885e+00,-4.230906329305501911e-06,6.680975486909440936e-06
2.635714285714285676e+00,-5.451634257928822975e-06,5.107331419130595480e-06
2.636507936507936467e+00,-6.940942289325796286e-06,2.865158270623152543e-06
2.637301587301587258e+00,-8.302802017553997192e-06,5.706854140898181271e-07
2.638095238095238049e+00,-9.145813300251299564e-06,-9.706005731476301498e-07
2.638888888888888840e+00,-9.203001928174415122e-06,-8.960337480585389772e-07
2.639682539682539630e+00,-8.401028835437038722e-06,1.504210811440829269e-06
2.640476190476190421e+00,-6.865406866344176246e-06,6.548666710630573068e-06
2.641269841269841212e+00,-4.870059325258068825e-06,1.396782907670788781e-05
2.642063492063492003e+00,-2.754589390561798529e-06,2.281943505916150358e-05
2.642857142857142794e+00,-8.378946520504440228e-07,3.156559577607953273e-05
2.643650793650793585e+00,6.477677211598150805e-07,3.832303666293058417e-05
2.644444444444444375e+00,1.589095791505706873e-06,4.124866279175981874e-05
2.645238095238095166e+00,1.989321050830033498e-06,3.897693997916498059e-05
2.646031746031745957e+00,1.939089654232054996e-06,3.099895273278748236e-05
2.646825396825396748e+00,1.573666259266337616e-06,1.787661884474917040e-05
2.647619047619047539e+00,1.030477767691480058e-06,1.222255652220976911e-06
2.648412698412698330e+00,4.183930531491959996e-07,-1.656401291136271313e-05
2.649206349206349120e+00,-1.952832568496956396e-07,-3.273852306311372725e-05
2.649999999999999911e+00,-7.805662661468823043e-07,-4.473234931574026501e-05
2.650793650793650702e+00,-1.329224892715935115e-06,-5.062644885160888178e-05
2.651587301587301493e+00,-1.837096321588182274e-06,-4.949076585339439658e-05
2.652380952380952284e+00,-2.293909502194371746e-06,-4.153488448424781838e-05
2.653174603174603075e+00,-2.686985634600413845e-06,-2.805880266485776835e-05
2.653968253968253865e+00,-3.017764680329832857e-06,-1.122602889248319921e-05
2.654761904761904656e+00,-3.320424421938152066e-06,6.294676379293844229e-06
2.655555555555555447e+00,-3.665335321386957252e-06,2.175739127486551664e-05
2.656349206349206238e+00,-4.133270631545899783e-06,3.276835820873466934e-05
2.657142857142857029e+00,-4.761137141713040787e-06,3.765008526268845044e-05
2.657936507936507819e+00,-5.480053073004195966e-06,3.568698854372784980e-05
2.658730158730158610e+00,-6.079840091221776583e-06,2.722250297150463651e-05
2.659523809523809401e+00,-6.230489698733642768e-06,1.360400634437716412e-05
2.660317460317460192e+00,-5.569525186768240551e-06,-3.007857309867729001e-06
2.661111111111110983e+00,-3.833168513933573898e-06,-1.993957476911077488e-05
2.661904761904761774e+00,-9.840924353006244982e-07,-3.438602510005333505e-05
2.662698412698412564e+00,2.716950147762272574e-06,-4.383706104110244396e-05
2.663492063492063355e+00,6.730160439807428776e-06,-4.649773908975047984e-05
2.664285714285714146e+00,1.034729372370856277e-05,-4.163077785136140590e-05
2.665079365079364937e+00,1.286112626301256538e-05,-2.974163119244606327e-05
2.665873015873015728e+00,1.374194740706546401e-05,-1.254299623206096849e-05
2.666666666666666519e+00,1.277058577180452239e-05,7.322294520709609258e-06
2.667460317460317309e+00,1.009509778065310742e-05,2.676317527780325557e-05
2.668253968253968100e+00,6.202318008235853778e-06,4.283179198701298954e-05
2.669047619047618891e+00,1.816863974295053863e-06,5.328888111967538643e-05
2.669841269841269682e+00,-2.246144422173457916e-06,5.700440861099428854e-05
2.670634920634920473e+00,-5.242688611708751524e-06,5.409770508675412661e-05
2.671428571428571264e+00,-6.643483398814806864e-06,4.579723615623776248e-05
2.672222222222222054e+00,-6.231043170655599942e-06,3.407823390855423639e-05
2.673015873015872845e+00,-4.130577039657555203e-06,2.118698402107179295e-05
2.673809523809523636e+00,-7.695781359908169993e-07,9.172007922085011786e-06
2.674603174603174427e+00,3.222822984994197538e-06,-4.781305745428639171e-07
2.675396825396825218e+00,7.152728805178832715e-06,-7.028564746285023778e-06
2.676190476190476009e+00,1.040324713233639835e-05,-1.050436327152750335e-05
2.676984126984126799e+00,1.254887037956587270e-05,-1.152997960308708637e-05
2.677777777777777590e+00,1.341714318483251289e-05,-1.105519485238052109e-05
2.678571428571428381e+00,1.308743153916268073e-05,-1.004304001683314470e-05
2.679365079365079172e+00,1.183491780754017227e-05,-9.202067915408275101e-06
2.680158730158729963e+00,1.004173027727744433e-05,-8.831916888496290524e-06
2.680952380952380754e+00,8.101917865984558270e-06,-8.817566664931850021e-06
2.681746031746031544e+00,6.343035704808299831e-06,-8.761900971208890339e-06
2.682539682539682335e+00,4.977040693910713807e-06,-8.201894093411834033e-06
2.683333333333333126e+00,4.081519511102588351e-06,-6.827131530054972498e-06
2.684126984126983917e+00,3.604904686255060942e-06,-4.623027840093637605e-06
2.684920634920634708e+00,3.389178803097289745e-06,-1.894834385592872194e-06
2.685714285714285499e+00,3.207001059245355468e-06,8.236233769028765888e-07
2.686507936507936289e+00,2.810985914649696083e-06,2.932385851626502943e-06
2.687301587301587080e+00,1.989201723012036287e-06,3.936767671285518166e-06
2.688095238095238315e+00,6.165174929371483315e-07,3.571973471885005296e-06
2.688888888888889106e+00,-1.309826939005897821e-06,1.849862504988242445e-06
2.689682539682539897e+00,-3.659694477548976516e-06,-9.718365134014704849e-07
2.690476190476190688e+00,-6.189173692518704168e-06,-4.472585127472694473e-06
2.691269841269841478e+00,-8.587218276262318839e-06,-8.169405087279882986e-06
2.692063492063492269e+00,-1.053930263518985944e-05,-1.160552611165323737e-05
2.692857142857143060e+00,-1.179070473038934086e-05,-1.441249130244138090e-05
2.693650793650793851e+00,-1.219097294244468736e-05,-1.634422098336564097e-05
2.694444444444444642e+00,-1.170781296055155011e-05,-1.728875666302152691e-05
2.695238095238095433e+00,-1.041079319997852372e-05,-1.726459055748331975e-05
2.696031746031746223e+00,-8.437477998310194605e-06,-1.640625220643835607e-05
2.696825396825397014e+00,-5.960555677367476132e-06,-1.494064383329186703e-05
2.697619047619047805e+00,-3.170426373505680807e-06,-1.315344437053329781e-05
2.698412698412698596e+00,-2.755314646377076502e-07,-1.134538773306260856e-05
2.699206349206349387e+00,2.489915914361547966e-06,-9.781679314237342032e-06
2.700000000000000178e+00,4.866183485997039317e-06,-8.642423534288198376e-06
2.700793650793650968e+00,6.586988615172176059e-06,-7.985008004575381451e-06
2.701587301587301759e+00,7.418087066772319194e-06,-7.729352558402057018e-06
2.702380952380952550e+00,7.207350105407158969e-06,-7.673367062749616784e-06
2.703174603174603341e+00,5.932724034685562750e-06,-7.538575004601415924e-06
2.703968253968254132e+00,3.732424266086865111e-06,-7.035747042004141571e-06
2.704761904761904923e+00,9.031926779987791110e-07,-5.932337254455071600e-06
2.705555555555555713e+00,-2.141053641333412494e-06,-4.103432386265404140e-06
2.706349206349206504e+00,-4.946015195740351597e-06,-1.556192213854256280e-06
2.707142857142857295e+00,-7.111819804532226041e-06,1.572024478107743870e-06
2.707936507936508086e+00,-8.380412450404199363e-06,5.035728858500966825e-06
2.708730158730158877e+00,-8.691491860898188906e-06,8.516339137547532346e-06
2.709523809523809668e+00,-8.192448705388737806e-06,1.166374746188471144e-05
2.710317460317460458e+00,-7.200461245275158494e-06,1.413890761268661543e-05
2.711111111111111249e+00,-6.126255794788544954e-06,1.565315797095074378e-05
2.711904761904762040e+00,-5.376774709161734561e-06,1.600173064573163882e-05
2.712698412698412831e+00,-5.257661410309662603e-06,1.509049595921500580e-05
2.713492063492063622e+00,-5.896168392058814672e-06,1.295553357166653087e-05
2.714285714285714413e+00,-7.200916234177360414e-06,9.774505817017929571e-06
2.715079365079365203e+00,-8.867361563067985002e-06,5.867956901351780213e-06
2.715873015873015994e+00,-1.042833937459487596e-05,1.688235011894221195e-06
2.716666666666666785e+00,-1.133999997804959842e-05,-2.206869199630208785e-06
2.717460317460317576e+00,-1.108733700634581254e-05,-5.200065133751584222e-06
2.718253968253968367e+00,-9.291781419537986370e-06,-6.685234991907463184e-06
2.719047619047619158e+00,-5.805001397301323705e-06,-6.165373855151502013e-06
2.719841269841269948e+00,-7.745218816474684086e-07,-3.372142796627803983e-06
2.720634920634920739e+00,5.333856508143270617e-06,1.611822070011078960e-06
2.721428571428571530e+00,1.177059796471984612e-05,8.261333974074132108e-06
2.722222222222222321e+00,1.759857659144619562e-05,1.559083058894267766e-05
2.723015873015873112e+00,2.183934536097829898e-05,2.224913602708460214e-05
2.723809523809523903e+00,2.364329759388942898e-05,2.674141008884551131e-05
2.724603174603174693e+00,2.245144726296218328e-05,2.775119443707496029e-05
2.725396825396825484e+00,1.811952126513397972e-05,2.449058850378447289e-05
2.726190476190476275e+00,1.098283840175193484e-05,1.697896307097232485e-05
2.726984126984127066e+00,1.849237104903031074e-06,6.155607052663013076e-06
2.727777777777777857e+00,-8.084462635653718365e-06,-6.229566882454977364e-06
2.728571428571428648e+00,-1.738866881471643890e-05,-1.794327187186261913e-05
2.729365079365079438e+00,-2.461559619746915114e-05,-2.674715987385099783e-05
2.730158730158730229e+00,-2.854406042541388563e-05,-3.091152927429591571e-05
2.730952380952381020e+00,-2.841161038788688807e-05,-2.962901097292906807e-05
2.731746031746031811e+00,-2.408167139943920721e-05,-2.321211159905781540e-05
2.732539682539682602e+00,-1.609695911734735130e-05,-1.301538203384873747e-05
2.733333333333333393e+00,-5.592916098076332925e-06,-1.100831366298286434e-06
2.734126984126984183e+00,5.916215939223047180e-06,1.026190352335132653e-05
2.734920634920634974e+00,1.682622153619934595e-05,1.912438560625707439e-05
2.735714285714285765e+00,2.573352752611214408e-05,2.427638464538334708e-05
2.736507936507936556e+00,3.166158778469943996e-05,2.544535678302237434e-05
2.737301587301587347e+00,3.418301438077552939e-05,2.323664465360777376e-05
2.738095238095238138e+00,3.342759311250944069e-05,1.884785587551364387e-05
2.738888888888888928e+00,2.999140958501935475e-05,1.365745245984484222e-05
2.739682539682539719e+00,2.477840967403784284e-05,8.825407198144112796e-06
2.740476190476190510e+00,1.881102255667805247e-05,5.034610317823075561e-06
2.741269841269841301e+00,1.304269978894046507e-05,2.440226102478328375e-06
2.742063492063492092e+00,8.197801916037201960e-06,8.029680546117904355e-07
2.742857142857142883e+00,4.658067962645302693e-06,-2.921629225682474071e-07
2.743650793650793673e+00,2.410994689836128226e-06,-1.247248578393219301e-06
2.744444444444444464e+00,1.071540647193897901e-06,-2.363898580101876751e-06
2.745238095238095255e+00,-1.897339253963771238e-08,-3.854332629104091222e-06
2.746031746031746046e+00,-1.626296756587505741e-06,-5.891438866405701883e-06
2.746825396825396837e+00,-4.415871989681262959e-06,-8.626311944390008718e-06
2.747619047619047628e+00,-8.746703506308677709e-06,-1.213559254302935738e-05
2.748412698412698418e+00,-1.451503985582325101e-05,-1.631602783937122068e-05
2.749206349206349209e+00,-2.109119894458168310e-05,-2.078725694743239910e-05
2.750000000000000000e+00,-2.737735545515501435e-05,-2.487254712680050155e-05
2.750793650793650791e+00,-3.199215189264804422e-05,-2.769724321554908601e-05
2.751587301587301582e+00,-3.356188456177393217e-05,-2.839172727601751902e-05
2.752380952380952372e+00,-3.106741174551801718e-05,-2.633653245315418546e-05
2.753174603174603163e+00,-2.416423757215336733e-05,-2.136577204221625225e-05
2.753968253968253954e+00,-1.337597507194118851e-05,-1.385941409999105335e-05
2.754761904761904745e+00,-8.057311749586901270e-08,-4.695157061001731702e-06
2.755555555555555536e+00,1.373023602581413163e-05,4.922914169656543665e-06
2.756349206349206327e+00,2.586077097527369760e-05,1.370677537608123155e-05
2.757142857142857117e+00,3.437962173963459334e-05,2.053145556319805972e-05
2.757936507936507908e+00,3.802551456931620269e-05,2.462678084628955867e-05
2.758730158730158699e+00,3.645452250124102481e-05,2.567750855999785693e-05
2.759523809523809490e+00,3.027360563221380914e-05,2.382627201141337183e-05
2.760317460317460281e+00,2.085631766353090831e-05,1.959873072332433890e-05
2.761111111111111072e+00,9.993147285852699158e-06,1.378026584230105879e-05
2.761904761904761862e+00,-5.237701704661973709e-07,7.271089153198334961e-06
2.762698412698412653e+00,-9.266572584813810625e-06,9.415980701411019258e-07
2.763492063492063444e+00,-1.539962805939260585e-05,-4.492503547093032199e-06
2.764285714285714235e+00,-1.873456817115561521e-05,-8.557556617002202805e-06
2.765079365079365026e+00,-1.963154950864116457e-05,-1.105856477280626525e-05
2.765873015873015817e+00,-1.880126004707749791e-05,-1.206000878503725562e-05
2.766666666666666607e+00,-1.707441706126288123e-05,-1.181686906439602084e-05
2.767460317460317398e+00,-1.519891353626860373e-05,-1.067425852544981327e-05
2.768253968253968189e+00,-1.370547223768403108e-05,-8.963843244095084746e-06
2.769047619047618980e+00,-1.285709587039463324e-05,-6.927150763048330584e-06
2.769841269841269771e+00,-1.267289652386850991e-05,-4.687377077365415910e-06
2.770634920634920562e+00,-1.299968075394352883e-05,-2.274975518718868552e-06
2.771428571428571352e+00,-1.359889609316506264e-05,3.060858571834223537e-07
2.772222222222222143e+00,-1.422194173176400849e-05,2.998965687552495601e-06
2.773015873015872934e+00,-1.465912437774347278e-05,5.634533399602488327e-06
2.773809523809523725e+00,-1.476055268723492774e-05,7.918822762427630174e-06
2.774603174603174516e+00,-1.443601534022862149e-05,9.478238249867710177e-06
2.775396825396825307e+00,-1.364359707735388232e-05,9.952886986158734868e-06
2.776190476190476097e+00,-1.237505186061387757e-05,9.110237761754097876e-06
2.776984126984126888e+00,-1.064299144712417121e-05,6.941685091618719647e-06
2.777777777777777679e+00,-8.472906695166695291e-06,3.707478038120513974e-06
2.778571428571428470e+00,-5.901790597401381449e-06,-8.946673074437275553e-08
2.779365079365079261e+00,-2.983662518142552785e-06,-3.798456720137531311e-06
2.780158730158730052e+00,1.997002739486263230e-07,-6.761606338394440902e-06
2.780952380952380842e+00,3.526695859417656655e-06,-8.464483908369720231e-06
2.781746031746031633e+00,6.828125392687338965e-06,-8.658951926658986460e-06
2.782539682539682424e+00,9.889693179292889040e-06,-7.427115539429242569e-06
2.783333333333333215e+00,1.246887119498192344e-05,-5.168707760145188587e-06
2.784126984126984006e+00,1.432628363086193360e-05,-2.512101403582262051e-06
2.784920634920634797e+00,1.526678528866668363e-05,-1.683556714156586283e-07
2.785714285714285587e+00,1.518077950406361447e-05,1.236705851802219291e-06
2.786507936507936378e+00,1.407404444784024761e-05,1.310428310252399274e-06
2.787301587301587169e+00,1.207644690701059735e-05,-1.714435027891290503e-08
2.788095238095237960e+00,9.426499381434476718e-06,-2.487773237034333142e-06
2.788888888888888751e+00,6.436773895819734558e-06,-5.598683052422538366e-06
2.789682539682539542e+00,3.450457076451925511e-06,-8.754106872171331166e-06
2.790476190476190332e+00,7.995235052489754459e-07,-1.143783479892108503e-05
2.791269841269841123e+00,-1.228552675361612912e-06,-1.334713190912748195e-05
2.792063492063491914e+00,-2.412548357629235957e-06,-1.443778791755051230e-05
2.792857142857142705e+00,-2.606989582742961284e-06,-1.486014784443240412e-05
2.793650793650793496e+00,-1.740342960393869760e-06,-1.480650085210781940e-05
2.794444444444444287e+00,1.943999448543993569e-07,-1.432852092104516813e-05
2.795238095238095077e+00,3.149899498754604064e-06,-1.320593320259947656e-05
2.796031746031745868e+00,7.027618271987209443e-06,-1.093988555793027943e-05
2.796825396825396659e+00,1.166878073549574475e-05,-6.900210904605405975e-06
2.797619047619047450e+00,1.683343862465741444e-05,-5.885373879832103800e-07
2.798412698412698241e+00,2.217525574616301009e-05,8.079040593563781994e-06
2.799206349206349032e+00,2.722752978395506684e-05,1.858497977684096168e-05
2.799999999999999822e+00,3.142039047444377482e-05,2.980449474928991159e-05
2.800793650793650613e+00,3.414390035955212687e-05,4.020162306036339069e-05
2.801587301587301404e+00,3.485467360342273070e-05,4.817375896563623651e-05
2.802380952380952195e+00,3.320128426578658536e-05,5.243497647502235462e-05
2.803174603174602986e+00,2.912916132202923006e-05,5.231152145467054155e-05
2.803968253968253777e+00,2.292842412574023638e-05,4.785515288613446569e-05
2.804761904761904567e+00,1.520619985160413416e-05,3.975153543866509162e-05
2.805555555555555358e+00,6.787737887809732306e-06,2.907986233839914437e-05
2.806349206349206149e+00,-1.431000379968156264e-06,1.702753834556024675e-05
2.807142857142856940e+00,-8.645587943912637195e-06,4.659580791430802356e-06
2.807936507936507731e+00,-1.428318433132474218e-05,-7.202024496064284464e-06
2.808730158730158522e+00,-1.808842296641710611e-05,-1.798688464689631936e-05
2.809523809523809312e+00,-2.013643236318094805e-05,-2.730651445852542463e-05
2.810317460317460103e+00,-2.077275856906910130e-05,-3.485283453678378519e-05
2.811111111111110894e+00,-2.049845728176672222e-05,-4.030793881216539643e-05
2.811904761904761685e+00,-1.983194610356062810e-05,-4.329822714969050723e-05
2.812698412698412920e+00,-1.918367911047789054e-05,-4.341444696120115186e-05
2.813492063492063711e+00,-1.877412513499311677e-05,-4.030540857319450421e-05
2.814285714285714501e+00,-1.861172812489366972e-05,-3.383257844506302510e-05
2.815079365079365292e+00,-1.852988209315548177e-05,-2.424434806975600814e-05
2.815873015873016083e+00,-1.826578973239830042e-05,-1.230275415686086024e-05
2.816666666666666874e+00,-1.755406434958380597e-05,7.093466517061587258e-07
2.817460317460317665e+00,-1.620702193261182327e-05,1.314319914262089576e-05
2.818253968253968456e+00,-1.416187087676646202e-05,2.328593907595690379e-05
2.819047619047619246e+00,-1.148885360600832027e-05,2.973143195032285817e-05
2.819841269841270037e+00,-8.367810397140991257e-06,3.170378006338062083e-05
2.820634920634920828e+00,-5.048273510346849252e-06,2.922353028396843021e-05
2.821428571428571619e+00,-1.807913124021675835e-06,2.306059342617448836e-05
2.822222222222222410e+00,1.082307200471668671e-06,1.449814623667108023e-05
2.823015873015873201e+00,3.385845926339997535e-06,5.000118352901007018e-06
2.823809523809523991e+00,4.925018372507208843e-06,-4.102001262801136880e-06
2.824603174603174782e+00,5.604170762159466750e-06,-1.181535382655517207e-05
2.825396825396825573e+00,5.427668445990393618e-06,-1.755346752708581481e-05
2.826190476190476364e+00,4.504038947659905927e-06,-2.108736175186635352e-05
2.826984126984127155e+00,3.029147559739074551e-06,-2.243310802274050254e-05
2.827777777777777946e+00,1.249614286107863307e-06,-2.173543691753416975e-05
2.828571428571428736e+00,-5.823170558312597645e-07,-1.919377158607367661e-05
2.829365079365079527e+00,-2.246379537275088339e-06,-1.505152269930154466e-05
2.830158730158730318e+00,-3.571785206140600439e-06,-9.639763700215968464e-06
2.830952380952381109e+00,-4.432056477943073648e-06,-3.441008781439151588e-06
2.831746031746031900e+00,-4.726134850192755423e-06,2.874793510616332039e-06
2.832539682539682691e+00,-4.362373444716337205e-06,8.486311255143524042e-06
2.833333333333333481e+00,-3.262065881796119783e-06,1.254962165548823358e-05
2.834126984126984272e+00,-1.391192867926651268e-06,1.440053247427561719e-05
2.834920634920635063e+00,1.183606918053881340e-06,1.376967091260778426e-05
2.835714285714285854e+00,4.231271608196010167e-06,1.092859952396090459e-05
2.836507936507936645e+00,7.309595860013081667e-06,6.699417570315284898e-06
2.837301587301587436e+00,9.762681091469775326e-06,2.304129913580797021e-06
2.838095238095238226e+00,1.078432695546341752e-05,-9.178989227731400570e-07
2.838888888888889017e+00,9.555400249097017860e-06,-1.856692189617383559e-06
2.839682539682539808e+00,5.442755562617308462e-06,4.305105093852858154e-08
2.840476190476190599e+00,-1.775381890482748991e-06,4.561578499365647728e-06
2.841269841269841390e+00,-1.171153302815921548e-05,1.065326157564382147e-05
2.842063492063492181e+00,-2.326195626423105192e-05,1.659727642590423460e-05
2.842857142857142971e+00,-3.464936314970748244e-05,2.033902859297054386e-05
2.843650793650793762e+00,-4.365229930250760467e-05,1.996545556033631384e-05
2.844444444444444553e+00,-4.801677971198342360e-05,1.421674621967524178e-05
2.845238095238095344e+00,-4.598761824590492930e-05,2.912237950564089279e-06
2.846031746031746135e+00,-3.683563855814368776e-05,-1.283022147097766973e-05
2.846825396825396925e+00,-2.122006693818400991e-05,-3.066689611446748884e-05
2.847619047619047716e+00,-1.242580432255658610e-06,-4.741053822161738873e-05
2.848412698412698507e+00,1.987150595440544378e-05,-5.965515489137085826e-05
2.849206349206349298e+00,3.841592984598063952e-05,-6.450077274451939660e-05
2.850000000000000089e+00,5.101949359136884150e-05,-6.020092308760609473e-05
2.850793650793650880e+00,5.543136460395891381e-05,-4.657669252211308963e-05
2.851587301587301670e+00,5.107734398465710952e-05,-2.510889854459765212e-05
2.852380952380952461e+00,3.924364833555600123e-05,1.294779338063654829e-06
2.853174603174603252e+00,2.282953603893415472e-05,2.879022122995660249e-05
2.853968253968254043e+00,5.707438940452363020e-06,5.324134892065118205e-05
2.854761904761904834e+00,-8.174795179163405831e-06,7.091141494516420621e-05
2.855555555555555625e+00,-1.573900360378782030e-05,7.910008390455100275e-05
2.856349206349206415e+00,-1.552920068810372201e-05,7.662311610523656470e-05
2.857142857142857206e+00,-8.070276755007741148e-06,6.403031334881357996e-05
2.857936507936507997e+00,4.264206149915080973e-06,4.348697286909894389e-05
2.858730158730158788e+00,1.783677725078965272e-05,1.832043556089876400e-05
2.859523809523809579e+00,2.862755236807536745e-05,-7.664538231554823028e-06
2.860317460317460370e+00,3.319479767047654034e-05,-3.091897836177773262e-05
2.861111111111111160e+00,2.949836239394318366e-05,-4.873836016199292818e-05
2.861904761904761951e+00,1.741601391723797155e-05,-5.957913315127167210e-05
2.862698412698412742e+00,-1.150429770393090863e-06,-6.308032562364923222e-05
2.863492063492063533e+00,-2.260818263992532678e-05,-5.985792178633129237e-05
2.864285714285714324e+00,-4.239679170260545675e-05,-5.118323652043184211e-05
2.865079365079365115e+00,-5.597310393018783460e-05,-3.865281635700355101e-05
2.865873015873015905e+00,-5.985686200903544496e-05,-2.392414198557162901e-05
2.866666666666666696e+00,-5.249058286721310670e-05,-8.547442941782251358e-06
2.867460317460317487e+00,-3.467909380428629005e-05,6.116816280236932276e-06
2.868253968253968278e+00,-9.463887897397807930e-06,1.893257401270718947e-05
2.869047619047619069e+00,1.855800913720917524e-05,2.901903391893978466e-05
2.869841269841269860e+00,4.429422957639372286e-05,3.580505132625661315e-05
2.870634920634920650e+00,6.330644877635766216e-05,3.910250862283522080e-05
2.871428571428571441e+00,7.274156200631315102e-05,3.916377106720519323e-05
2.872222222222222232e+00,7.181712992786505058e-05,3.667540736565383396e-05
2.873015873015873023e+00,6.177681374577827982e-05,3.265252979379308320e-05
2.873809523809523814e+00,4.538576157003410005e-05,2.823231831631000034e-05
2.874603174603174605e+00,2.615042930857487064e-05,2.440870219633478098e-05
2.875396825396825395e+00,7.491871524775306879e-06,2.178349734275686692e-05
2.876190476190476186e+00,-7.924310219393429437e-06,2.041515646139027142e-05
2.876984126984126977e+00,-1.857181336773994988e-05,1.981973002276496732e-05
2.877777777777777768e+00,-2.412362343024073292e-05,1.913073208738196918e-05
2.878571428571428559e+00,-2.523587833060757083e-05,1.737459945958991472e-05
2.879365079365079350e+00,-2.316396369932576907e-05,1.378248965640074604e-05
2.880158730158730140e+00,-1.934204331465062533e-05,8.046467964235337305e-06
2.880952380952380931e+00,-1.503873939774168681e-05,4.430107165640067853e-07
2.881746031746031722e+00,-1.115348916783892706e-05,-8.212127448801566915e-06
2.882539682539682513e+00,-8.162690645416925342e-06,-1.675803325106753640e-05
2.883333333333333304e+00,-6.182099762603196990e-06,-2.396430587693219446e-05
2.884126984126984095e+00,-5.091088957888517144e-06,-2.880248966364528688e-05
2.884920634920634885e+00,-4.664886276779494552e-06,-3.064358177742365820e-05
2.885714285714285676e+00,-4.676805467395690894e-06,-2.934738825062249378e-05
2.886507936507936467e+00,-4.954484743894136435e-06,-2.524392103480994868e-05
2.887301587301587258e+00,-5.393152837348848193e-06,-1.903045621335704518e-05
2.888095238095238049e+00,-5.940092756901329956e-06,-1.162047193132188765e-05
2.888888888888888840e+00,-6.567710342464105719e-06,-3.983748970631530875e-06
2.889682539682539630e+00,-7.249936070768413479e-06,2.989651372581129969e-06
2.890476190476190421e+00,-7.950400939904566237e-06,8.583076133519519784e-06
2.891269841269841212e+00,-8.623387834275606745e-06,1.230274175704079451e-05
2.892063492063492003e+00,-9.222280390890135070e-06,1.389325913587881545e-05
2.892857142857142794e+00,-9.707035967032478745e-06,1.333294788070670744e-05
2.893650793650793585e+00,-1.004363495541100381e-05,1.081810530017798617e-05
2.894444444444444375e+00,-1.019448285431307971e-05,6.737894711116586761e-06
2.895238095238095166e+00,-1.010620685615520036e-05,1.636178211117588872e-06
2.896031746031745957e+00,-9.705135150516340563e-06,-3.844346734055130087e-06
2.896825396825396748e+00,-8.907912153483782251e-06,-9.037034944825206350e-06
2.897619047619047539e+00,-7.646559748470926470e-06,-1.334003545505433435e-05
2.898412698412698330e+00,-5.898548735433512956e-06,-1.630600495241547093e-05
2.899206349206349120e+00,-3.708212966705920801e-06,-1.771379636671963355e-05
2.899999999999999911e+00,-1.188826620695713641e-06,-1.760179622542582204e-05
2.900793650793650702e+00,1.496484312718026906e-06,-1.624874342659280590e-05
2.901587301587301493e+00,4.166784553274790874e-06,-1.410160488259116667e-05
2.902380952380952284e+00,6.654026833717660080e-06,-1.166680594404371729e-05
2.903174603174603075e+00,8.819014461375153027e-06,-9.393278615741299049e-06
2.903968253968253865e+00,1.054694326827874459e-05,-7.578068413531888412e-06
2.904761904761904656e+00,1.172773371491786573e-05,-6.317577097629997391e-06
2.905555555555555447e+00,1.223500276771005940e-05,-5.513815154820252479e-06
2.906349206349206238e+00,1.191977636661896152e-05,-4.930229346230589659e-06
2.907142857142857029e+00,1.063002140075578420e-05,-4.279618102655331061e-06
2.907936507936507819e+00,8.256574962431638973e-06,-3.319382978646833128e-06
2.908730158730158610e+00,4.793641871571653318e-06,-1.927812001983106046e-06
2.909523809523809401e+00,3.925056593363773121e-07,-1.400201257438025630e-07
2.910317460317460192e+00,-4.615106671664199435e-06,1.866474192135612539e-06
2.911111111111110983e+00,-9.740368457744295668e-06,3.831099487497979973e-06
2.911904761904761774e+00,-1.440875682690180961e-05,5.493929850190283940e-06
2.912698412698412564e+00,-1.806371327704296928e-05,6.673324653139231551e-06
2.913492063492063355e+00,-2.027512000596755356e-05,7.306907681925926965e-06
2.914285714285714146e+00,-2.082374448708896166e-05,7.437024441832623377e-06
2.915079365079364937e+00,-1.974056133265067404e-05,7.143732955659923479e-06
2.915873015873015728e+00,-1.729248618288493946e-05,6.453225456899119031e-06
2.916666666666666519e+00,-1.391974802084112322e-05,5.265948175948009232e-06
2.917460317460317309e+00,-1.014193075786914720e-05,3.346504567070272612e-06
2.918253968253968100e+00,-6.456526794735396899e-06,3.951462857634507651e-07
2.919047619047618891e+00,-3.253442715586687733e-06,-3.812633452950033361e-06
2.919841269841269682e+00,-7.619543477177898639e-07,-9.262277974474690144e-06
2.920634920634920473e+00,9.634814821187617731e-07,-1.557196737907606915e-05
2.921428571428571264e+00,2.021754034260192617e-06,-2.195528783161277084e-05
2.922222222222222054e+00,2.618189202154545169e-06,-2.730487919982403316e-05
2.923015873015872845e+00,3.006015202154735111e-06,-3.038884132187820691e-05
2.923809523809523636e+00,3.429869480093710868e-06,-3.011401490049706207e-05
2.924603174603174427e+00,4.081751530464333903e-06,-2.578876574018228247e-05
2.925396825396825218e+00,5.075061560890615563e-06,-1.732101587927803809e-05
2.926190476190476009e+00,6.437699402926834836e-06,-5.309382154284530012e-06
2.926984126984126799e+00,8.121383858758631050e-06,8.988909064195050810e-06
2.927777777777777590e+00,1.002163845251076346e-05,2.381088491940495564e-05
2.928571428571428381e+00,1.200164758919910711e-05,3.714504142938224770e-05
2.929365079365079172e+00,1.391376681001981567e-05,4.705951174667179015e-05
2.930158730158729963e+00,1.561465629548783099e-05,5.204744711373093867e-05
2.930952380952380754e+00,1.697297692560353639e-05,5.132202567513316981e-05
2.931746031746031544e+00,1.787150600051524640e-05,4.499686592537352736e-05
2.932539682539682335e+00,1.820790472494694087e-05,3.410920873116894740e-05
2.933333333333333126e+00,1.789954673630798332e-05,2.047341238874765055e-05
2.934126984126983917e+00,1.689651861563584752e-05,6.380714926538393511e-06
2.934920634920634708e+00,1.520224706810154397e-05,-5.812761162581488964e-06
2.935714285714285499e+00,1.289469857498325923e-05,-1.413850917216618877e-05
2.936507936507936289e+00,1.013692186588162609e-05,-1.740911080611819278e-05
2.937301587301587080e+00,7.167627780348101075e-06,-1.544645747025423814e-05
2.938095238095238315e+00,4.270191730893544869e-06,-9.073254877712835529e-06
2.938888888888889106e+00,1.727622397250391007e-06,1.312785428398245381e-07
2.939682539682539897e+00,-2.232861046954796006e-07,1.023124582616734362e-05
2.940476190476190688e+00,-1.426032970055615699e-06,1.936164434396822289e-05
2.941269841269841478e+00,-1.820377370629175055e-06,2.606361058467201653e-05
2.942063492063492269e+00,-1.441679624299139309e-06,2.946327568564824218e-05
2.942857142857143060e+00,-4.099615682860433669e-07,2.929942231673868670e-05
2.943650793650793851e+00,1.084948416453689331e-06,2.584811805883546076e-05
2.944444444444444642e+00,2.799433406482037651e-06,1.979482142561676269e-05
2.945238095238095433e+00,4.454943920111325096e-06,1.208333135074177429e-05
2.946031746031746223e+00,5.763430265255831632e-06,3.753327953210322297e-06
2.946825396825397014e+00,6.461028295619918316e-06,-4.222550967666412207e-06
2.947619047619047805e+00,6.346811575106736430e-06,-1.108042350352800821e-05
2.948412698412698596e+00,5.319043657911981415e-06,-1.635696957250878770e-05
2.949206349206349387e+00,3.399716997103764041e-06,-1.991120222659706026e-05
2.950000000000000178e+00,7.393342366945409214e-07,-2.187805231894169295e-05
2.950793650793650968e+00,-2.402807928427601775e-06,-2.257674200910705947e-05
2.951587301587301759e+00,-5.702261566000597309e-06,-2.240482453640496756e-05
2.952380952380952550e+00,-8.829284843450533091e-06,-2.174312803266294079e-05
2.953174603174603341e+00,-1.151018482471838255e-05,-2.088627632453977378e-05
2.953968253968254132e+00,-1.357237788242388735e-05,-2.000544090786136747e-05
2.954761904761904923e+00,-1.495931289968615044e-05,-1.914490514888994439e-05
2.955555555555555713e+00,-1.571147724925505792e-05,-1.824818122990244206e-05
2.956349206349206504e+00,-1.592158427852829539e-05,-1.720211226546751384e-05
2.957142857142857295e+00,-1.568048755824557266e-05,-1.588317163386621797e-05
2.957936507936508086e+00,-1.503217913385235343e-05,-1.419339890519206056e-05
2.958730158730158877e+00,-1.395185723892409122e-05,-1.208219417511370048e-05
2.959523809523809668e+00,-1.235369289738306721e-05,-9.557539053948241179e-06
2.960317460317460458e+00,-1.012754264776031565e-05,-6.690952989922132172e-06
2.961111111111111249e+00,-7.197226503154369632e-06,-3.615869309121960383e-06
2.961904761904762040e+00,-3.586915190975677515e-06,-5.148326528177982370e-07
2.962698412698412831e+00,5.224051742082415620e-07,2.408116196089473531e-06
2.963492063492063622e+00,4.765411526893862676e-06,4.966865100153317906e-06
2.964285714285714413e+00,8.608620411209615743e-06,7.033266359768115425e-06
2.965079365079365203e+00,1.141549348513672487e-05,8.562370167681743207e-06
2.965873015873015994e+00,1.255339270443665031e-05,9.590330272425442643e-06
2.966666666666666785e+00,1.152467834656567314e-05,1.020185408085059978e-05
2.967460317460317576e+00,8.098742317235733655e-06,1.047688759260259226e-05
2.968253968253968367e+00,2.420917751420299968e-06,1.043754334890566513e-05
2.969047619047619158e+00,-4.925283672330398060e-06,1.001978989384742666e-05
2.969841269841269948e+00,-1.292609601559316558e-05,9.086068738915454595e-06
2.970634920634920739e+00,-2.023668033149343614e-05,7.477895082385400586e-06
2.971428571428571530e+00,-2.538154883451767510e-05,5.091013662549777587e-06
2.972222222222222321e+00,-2.704140916795463227e-05,1.947819439336789734e-06
2.973015873015873112e+00,-2.437584644892880082e-05,-1.756824927001321540e-06
2.973809523809523903e+00,-1.729831392435973250e-05,-5.653768476960276567e-06
2.974603174603174693e+00,-6.609965334158730649e-06,-9.250016406140924220e-06
2.975396825396825484e+00,6.074275540307646828e-06,-1.202690576954100001e-05
2.976190476190476275e+00,1.861499224299125057e-05,-1.356575317331641176e-05
2.976984126984127066e+00,2.879186702546526728e-05,-1.366750368439099065e-05
2.977777777777777857e+00,3.478973913805050378e-05,-1.242820464183626808e-05
2.978571428571428648e+00,3.560039391944360489e-05,-1.023919143319430162e-05
2.979365079365079438e+00,3.123710373970633867e-05,-7.700969639224619715e-06
2.980158730158730229e+00,2.271073819044913068e-05,-5.469248120908293061e-06
2.980952380952381020e+00,1.177854142055889847e-05,-4.077897438108057453e-06
2.981746031746031811e+00,5.317879999318200123e-07,-3.792529606527740212e-06
2.982539682539682602e+00,-9.076494672621277903e-06,-4.536805684488257100e-06
2.983333333333333393e+00,-1.565377289396098067e-05,-5.910225383293357193e-06
2.984126984126984183e+00,-1.864653063551846671e-05,-7.290963306693804510e-06
2.984920634920634974e+00,-1.841603846816231157e-05,-7.995971495208876434e-06
2.985714285714285765e+00,-1.609677161178106795e-05,-7.457426057655443338e-06
2.986507936507936556e+00,-1.326953808846550460e-05,-5.372980417689717394e-06
2.987301587301587347e+00,-1.152343124023094809e-05,-1.795817819173529071e-06
2.988095238095238138e+00,-1.200988844286329957e-05,2.856001472358018483e-06
2.988888888888888928e+00,-1.509937080422522795e-05,7.876294611926284227e-06
2.989682539682539719e+00,-2.023136370158971228e-05,1.242178735369585407e-05
2.990476190476190510e+00,-2.600425944127145197e-05,1.570596670735690463e-05
2.991269841269841301e+00,-3.049334866411002899e-05,1.718719483939433023e-05
2.992063492063492092e+00,-3.172712375506457584e-05,1.669787978448654438e-05
2.992857142857142883e+00,-2.820912580381199240e-05,1.447668490948282744e-05
2.993650793650793673e+00,-1.935498091043309109e-05,1.109695309816344827e-05
2.994444444444444464e+00,-5.727005372542692291e-06,7.317719147456763727e-06
2.995238095238095255e+00,1.100650513420825129e-05,3.905097462623433613e-06
2.996031746031746046e+00,2.838871872139028422e-05,1.475227040947823216e-06
2.996825396825396837e+00,4.369138020723893498e-05,3.961105403981928005e-07
2.997619047619047628e+00,5.449812410664965227e-05,7.610503224393067615e-07
2.998412698412698418e+00,5.920643812713748388e-05,2.422219245243804995e-06
2.999206349206349209e+00,5.732964478794806354e-05,5.059606854436350185e-06
3.000000000000000000e+00,4.953847738813326184e-05,8.260496348162658098e-06
3.000793650793650791e+00,3.745052889682540627e-05,1.159173695957396926e-05
3.001587301587301582e+00,2.323631314575461945e-05,1.465400824539005524e-05
3.002380952380952372e+00,9.148119739667103087e-06,1.711243174727839931e-05
3.003174603174603163e+00,-2.914614202475016573e-06,1.870504604933930035e-05
3.003968253968253954e+00,-1.171015073678975419e-05,1.924073030874705903e-05
3.004761904761904745e+00,-1.677671412508097563e-05,1.860411738591812120e-05
3.005555555555555536e+00,-1.836885896895205215e-05,1.677883977986058438e-05
3.006349206349206327e+00,-1.725085542408212022e-05,1.388358426355624455e-05
3.007142857142857117e+00,-1.442106589032372966e-05,1.019927079323108684e-05
3.007936507936507908e+00,-1.084891564391370090e-05,6.161735410332180206e-06
3.008730158730158699e+00,-7.288867087118506197e-06,2.305171838966905564e-06
3.009523809523809490e+00,-4.200680071388033090e-06,-8.394806951953492269e-07
3.010317460317460281e+00,-1.766110658530149274e-06,-2.868918347929187866e-06
3.011111111111111072e+00,3.500927112004448354e-08,-3.620448819294430612e-06
3.011904761904761862e+00,1.332216176303586931e-06,-3.237076719240606732e-06
3.012698412698412653e+00,2.285571258231027292e-06,-2.158402807104659466e-06
3.013492063492063444e+00,3.031258289569615139e-06,-1.032079312154260535e-06
3.014285714285714235e+00,3.648044186174415981e-06,-5.642150769607325997e-07
3.015079365079365026e+00,4.137649133996984276e-06,-1.344415132319887750e-06
3.015873015873015817e+00,4.418006324982605182e-06,-3.688185911710371312e-06
3.016666666666666607e+00,4.335947194362999520e-06,-7.536659754652339563e-06
3.017460317460317398e+00,3.706119957238531941e-06,-1.244216187979789356e-05
3.018253968253968189e+00,2.373203892147270792e-06,-1.764888198382982303e-05
3.019047619047618980e+00,2.808746131694783800e-07,-2.225328198072732379e-05
3.019841269841269771e+00,-2.476921908005203548e-06,-2.540561642955525265e-05
3.020634920634920562e+00,-5.643443379879728376e-06,-2.650178340062551776e-05
3.021428571428571352e+00,-8.833268711951398723e-06,-2.531948195626330250e-05
3.022222222222222143e+00,-1.160495825272736543e-05,-2.207095726333925171e-05
3.023015873015872934e+00,-1.355271835069690285e-05,-1.736718049249172242e-05
3.023809523809523725e+00,-1.439353644376034810e-05,-1.210691807981545568e-05
3.024603174603174516e+00,-1.402820778178702740e-05,-7.314432146350485446e-06
3.025396825396825307e+00,-1.256089059415773687e-05,-3.951326304451003850e-06
3.026190476190476097e+00,-1.027189446589147804e-05,-2.726192525750206635e-06
3.026984126984126888e+00,-7.550857318492755869e-06,-3.927446698684772423e-06
3.027777777777777679e+00,-4.808812900472021197e-06,-7.312101923659423763e-06
3.028571428571428470e+00,-2.394085322343645916e-06,-1.208917125367625081e-05
3.029365079365079261e+00,-5.356233216520762486e-07,-1.702987739178840645e-05
3.030158730158730052e+00,6.726384105437986686e-07,-2.071122368823662328e-05
3.030952380952380842e+00,1.248556749678939170e-06,-2.185711493530543499e-05
3.031746031746031633e+00,1.276246022168335760e-06,-1.969455614024479253e-05
3.032539682539682424e+00,8.608349664102337011e-07,-1.421261444527145275e-05
3.033333333333333215e+00,1.019384694046065193e-07,-6.220853005598768977e-06
3.034126984126984006e+00,-9.067136363999171350e-07,2.839534516859578709e-06
3.034920634920634797e+00,-2.056581524167049117e-06,1.129013942790670186e-05
3.035714285714285587e+00,-3.197370157339366857e-06,1.768942706943040394e-05
3.036507936507936378e+00,-4.122561149312238073e-06,2.122192685488252898e-05
3.037301587301587169e+00,-4.582652989401149523e-06,2.186841216666180463e-05
3.038095238095237960e+00,-4.330931439012622190e-06,2.031171538848384659e-05
3.038888888888888751e+00,-3.192358624881965398e-06,1.763662123680133912e-05
3.039682539682539542e+00,-1.133414711059481538e-06,1.495145384721849204e-05
3.040476190476190332e+00,1.694536604241637160e-06,1.306775309704019601e-05
3.041269841269841123e+00,4.959654469423171768e-06,1.233127086454558003e-05
3.042063492063491914e+00,8.206803169834831320e-06,1.263139565695855098e-05
3.042857142857142705e+00,1.095274954692984156e-05,1.355500909370298534e-05
3.043650793650793496e+00,1.279002940361009875e-05,1.461057371102963044e-05
3.044444444444444287e+00,1.346705898710138198e-05,1.543505062038807985e-05
3.045238095238095077e+00,1.292198861571742759e-05,1.591057941522301377e-05
3.046031746031745868e+00,1.126629436422071595e-05,1.615427426433508400e-05
3.046825396825396659e+00,8.732100002752976305e-06,1.639130388378184602e-05
3.047619047619047450e+00,5.606358658774891124e-06,1.676413227374976795e-05
3.048412698412698241e+00,2.173448592715694452e-06,1.715663245643189806e-05
3.049206349206349032e+00,-1.320249181262414487e-06,1.711217212320973301e-05
3.049999999999999822e+00,-4.675622537035265032e-06,1.589635065222105707e-05
3.050793650793650613e+00,-7.728244360016734780e-06,1.270295805473379381e-05
3.051587301587301404e+00,-1.032479356747741644e-05,6.943784510695945397e-06
3.052380952380952195e+00,-1.230252317178107263e-05,-1.475011086166973321e-06
3.053174603174602986e+00,-1.348426385529194650e-05,-1.198789978835413654e-05
3.053968253968253777e+00,-1.369569653216589874e-05,-2.338075151589378602e-05
3.054761904761904567e+00,-1.280395406386535136e-05,-3.399038350346342003e-05
3.055555555555555358e+00,-1.076918954083270530e-05,-4.205166425239842778e-05
3.056349206349206149e+00,-7.694726185866677978e-06,-4.610508603429588475e-05
3.057142857142856940e+00,-3.857616526831007236e-06,-4.535329831331480325e-05
3.057936507936507731e+00,2.986428994621393897e-07,-3.986484932634286061e-05
3.058730158730158522e+00,4.221352366299572833e-06,-3.056866627761416541e-05
3.059523809523809312e+00,7.353402960715125690e-06,-1.904733364387774288e-05
3.060317460317460103e+00,9.262533173479488193e-06,-7.193967747478519474e-06
3.061111111111110894e+00,9.754358149542554949e-06,3.175591884246112121e-06
3.061904761904761685e+00,8.926500549070329337e-06,1.066986859106001588e-05
3.062698412698412920e+00,7.140884438725136629e-06,1.456709211224882442e-05
3.063492063492063711e+00,4.924544659499027273e-06,1.492224450427832202e-05
3.064285714285714501e+00,2.836878093041546483e-06,1.251926893005668375e-05
3.065079365079365292e+00,1.347249540690243677e-06,8.674880248386524084e-06
3.065873015873016083e+00,7.516369488919857459e-07,4.930276694765340423e-06
3.066666666666666874e+00,1.134871033567534930e-06,2.696148449521997815e-06
3.067460317460317665e+00,2.370699297299036416e-06,2.932341111345549227e-06
3.068253968253968456e+00,4.150371444093193388e-06,5.938475215407363941e-06
3.069047619047619246e+00,6.036276326730413462e-06,1.130516078123900275e-05
3.069841269841270037e+00,7.540105782286226869e-06,1.803377412359335788e-05
3.070634920634920828e+00,8.218704436633228464e-06,2.478876286693333070e-05
3.071428571428571619e+00,7.769096300918514479e-06,3.021408938601563066e-05
3.072222222222222410e+00,6.098033031671356582e-06,3.323332778584576011e-05
3.073015873015873201e+00,3.347550433643941145e-06,3.326201705693861268e-05
3.073809523809523991e+00,-1.274481994586036733e-07,3.028749267620815943e-05
3.074603174603174782e+00,-3.820328341912167956e-06,2.480960466140237145e-05
3.075396825396825573e+00,-7.157507463685637749e-06,1.767518666611012985e-05
3.076190476190476364e+00,-9.592399631360707166e-06,9.865641307298514799e-06
3.076984126984127155e+00,-1.069648197633358174e-05,2.300371478430973870e-06
3.077777777777777946e+00,-1.023644695440758020e-05,-4.299536280315478669e-06
3.078571428571428736e+00,-8.225651523753614835e-06,-9.471922340509282835e-06
3.079365079365079527e+00,-4.937573649768798844e-06,-1.300977053628099237e-05
3.080158730158730318e+00,-8.716959119153384721e-07,-1.491991896637769925e-05
3.080952380952381109e+00,3.329720311178395465e-06,-1.537238438913246367e-05
3.081746031746031900e+00,7.002681805688081132e-06,-1.465807772271336074e-05
3.082539682539682691e+00,9.595332173171588529e-06,-1.315761699318859543e-05
3.083333333333333481e+00,1.078102347809500621e-05,-1.131192645895320356e-05
3.084126984126984272e+00,1.051866374400911276e-05,-9.581854917970455333e-06
3.084920634920635063e+00,9.041466488031861298e-06,-8.390046534121881858e-06
3.085714285714285854e+00,6.775040080435091234e-06,-8.049900699973610050e-06
3.086507936507936645e+00,4.205003972343044091e-06,-8.697293596309810555e-06
3.087301587301587436e+00,1.728035525726060787e-06,-1.024508663852080793e-05
3.088095238095238226e+00,-4.727076069801149525e-07,-1.237627755267242587e-05
3.088888888888889017e+00,-2.487010669481585795e-06,-1.458205634110153006e-05
3.089682539682539808e+00,-4.641309367748551524e-06,-1.624183731411545198e-05
3.090476190476190599e+00,-7.359611911083367868e-06,-1.673668789768230179e-05
3.091269841269841390e+00,-1.094928598227347275e-05,-1.558322035090818752e-05
3.092063492063492181e+00,-1.537500047454853599e-05,-1.256808764727531258e-05
3.092857142857142971e+00,-2.010576193161101645e-05,-7.854100331930788772e-06
3.093650793650793762e+00,-2.411472412058850658e-05,-2.023288225024110079e-06
3.094444444444444553e+00,-2.607328481501569082e-05,3.973400710792881468e-06
3.095238095238095344e+00,-2.471529147230771512e-05,8.972518989104140394e-06
3.096031746031746135e+00,-1.927454478911697823e-05,1.184455878425915783e-05
3.096825396825396925e+00,-9.851245523225585075e-06,1.178063089711153992e-05
3.097619047619047716e+00,2.432057840698413745e-06,8.542070605652711640e-06
3.098412698412698507e+00,1.556338636674086735e-05,2.589015244128539299e-06
3.099206349206349298e+00,2.704856355425503932e-05,-4.969945546863851945e-06
3.100000000000000089e+00,3.449062048157390699e-05,-1.260954780182140195e-05
3.100793650793650880e+00,3.618649388237272450e-05,-1.874130974413640557e-05
3.101587301587301670e+00,3.158032799109715156e-05,-2.208755131520419993e-05
3.102380952380952461e+00,2.145063040453810377e-05,-2.196988530611533220e-05
3.103174603174603252e+00,7.777898092805027696e-06,-1.843678106409151106e-05
3.103968253968254043e+00,-6.677777146268945390e-06,-1.220842841320292063e-05
3.104761904761904834e+00,-1.898545337771792514e-05,-4.472754009877490674e-06
3.105555555555555625e+00,-2.669091519031757971e-05,3.397066484789423294e-06
3.106349206349206415e+00,-2.835201872370872605e-05,1.012587692357820348e-05
3.107142857142857206e+00,-2.384138116717559257e-05,1.475981119094173362e-05
3.107936507936507997e+00,-1.434936565073025072e-05,1.679714046794187609e-05
3.108730158730158788e+00,-2.089190031314400196e-06,1.622173173127086765e-05
3.109523809523809579e+00,1.022035322894599664e-05,1.345364900748294159e-05
3.110317460317460370e+00,1.996318899966302536e-05,9.241275601719560253e-06
3.111111111111111160e+00,2.517860751440857963e-05,4.521168207120889799e-06
3.111904761904761951e+00,2.494084391346288284e-05,2.684643121713296532e-07
3.112698412698412742e+00,1.950350063137601145e-05,-2.645020078030807722e-06
3.113492063492063533e+00,1.020231432697770494e-05,-3.572654903370366960e-06
3.114285714285714324e+00,-8.497536915342157829e-07,-2.183834088152017156e-06
3.115079365079365115e+00,-1.121455639197020260e-05,1.488100780621216360e-06
3.115873015873015905e+00,-1.864624118855057416e-05,7.050418506839962213e-06
3.116666666666666696e+00,-2.157478635242183779e-05,1.380821986167967971e-05
3.117460317460317487e+00,-1.945066485575895005e-05,2.086187574815564973e-05
3.118253968253968278e+00,-1.286433874885761426e-05,2.722480508119001649e-05
3.119047619047619069e+00,-3.401614366088029580e-06,3.194403790113802276e-05
3.119841269841269860e+00,6.737678983365786502e-06,3.421495210398187191e-05
3.120634920634920650e+00,1.526604522414656695e-05,3.348869624517180189e-05
3.121428571428571441e+00,2.034836554823475077e-05,2.956797611630796745e-05
3.122222222222222232e+00,2.102110310046847107e-05,2.267396596767822604e-05
3.123015873015873023e+00,1.738848030085324482e-05,1.345540344102923031e-05
3.123809523809523814e+00,1.055123402909385164e-05,2.915031753861659013e-06
3.124603174603174605e+00,2.292246774165016311e-06,-7.747061929197222494e-06
3.125396825396825395e+00,-5.393643608210444615e-06,-1.733979641533807774e-05
3.126190476190476186e+00,-1.079780873477049580e-05,-2.487949687262913125e-05
3.126984126984126977e+00,-1.289138744405919884e-05,-2.972331286758931880e-05
3.127777777777777768e+00,-1.151645648259975278e-05,-3.160780962804197449e-05
3.128571428571428559e+00,-7.340359436135836005e-06,-3.060324953122236364e-05
3.129365079365079350e+00,-1.607625693335641673e-06,-2.702609682063752465e-05
3.130158730158730140e+00,4.224979724870549893e-06,-2.135867534484812698e-05
3.130952380952380931e+00,8.863983457993137436e-06,-1.420354817586396894e-05
3.131746031746031722e+00,1.146864227175442462e-05,-6.266379434398686959e-06
3.132539682539682513e+00,1.179045379755458807e-05,1.662375565293753931e-06
3.133333333333333304e+00,1.014486444227149061e-05,8.755986777284226457e-06
3.134126984126984095e+00,7.244138148323432457e-06,1.423944847563840129e-05
3.134920634920634885e+00,3.954841580265535806e-06,1.750344711297943754e-05
3.135714285714285676e+00,1.055802932840035780e-06,1.821682534804128762e-05
3.136507936507936467e+00,-9.390289080375407858e-07,1.640626045992958624e-05
3.137301587301587258e+00,-1.857076962571985515e-06,1.247600578328743891e-05
3.138095238095238049e+00,-1.841840599282188480e-06,7.153307941725558772e-06
3.138888888888888840e+00,-1.253479797227359131e-06,1.365720082276764319e-06
3.139682539682539630e+00,-5.375785256974135469e-07,-3.923044175623174222e-06
3.140476190476190421e+00,-1.027661238384456128e-07,-7.882158374673034259e-06
3.141269841269841212e+00,-2.346212454530781971e-07,-9.954691376510697140e-06
3.142063492063492003e+00,-1.056458365900649309e-06,-9.949003595885747827e-06
3.142857142857142794e+00,-2.533866724125895770e-06,-8.070355747239089808e-06
3.143650793650793585e+00,-4.511583709904404412e-06,-4.890525048576700087e-06
3.144444444444444375e+00,-6.767309424288768647e-06,-1.258921150281658773e-06
3.145238095238095166e+00,-9.065945870422805437e-06,1.835637888812982282e-06
3.146031746031745957e+00,-1.119970071464652452e-05,3.436819680894506699e-06
3.146825396825396748e+00,-1.300543197505942664e-05,2.803653754876692760e-06
3.147619047619047539e+00,-1.435972925521594835e-05,-4.244996491352768991e-07
3.148412698412698330e+00,-1.516129405954852895e-05,-6.112505200063750814e-06
3.149206349206349120e+00,-1.531506573704051086e-05,-1.359190449431575339e-05
3.149999999999999911e+00,-1.473061940740229304e-05,-2.172018264987334694e-05
3.150793650793650702e+00,-1.333953266114122213e-05,-2.904128133946126477e-05
3.151587301587301493e+00,-1.112716594388710584e-05,-3.403299174632093952e-05
3.152380952380952284e+00,-8.168540003080290430e-06,-3.540525121390637059e-05
3.153174603174603075e+00,-4.657029781072333204e-06,-3.239352754135977789e-05
3.153968253968253865e+00,-9.159322607430358459e-07,-2.498021210084145564e-05
3.154761904761904656e+00,2.615686467450471537e-06,-1.398039763481248555e-05
3.155555555555555447e+00,5.429118120273694889e-06,-9.502031693376183127e-07
3.156349206349206238e+00,7.024390269080492051e-06,1.208457609378455229e-05
3.157142857142857029e+00,7.011008830803595757e-06,2.303196249033685142e-05
3.157936507936507819e+00,5.209711042479614933e-06,3.017814918507515974e-05
3.158730158730158610e+00,1.726271932806042832e-06,3.256197171900861826e-05
3.159523809523809401e+00,-3.029762228099246826e-06,3.018252236901519705e-05
3.160317460317460192e+00,-8.394674448819907482e-06,2.398414438033765115e-05
3.161111111111110983e+00,-1.356004170949286325e-05,1.561758727710837923e-05
3.161904761904761774e+00,-1.771396160340927349e-05,7.030679967159850517e-06
3.162698412698412564e+00,-2.017754433047756990e-05,-1.405753721939939435e-08
3.163492063492063355e+00,-2.050571666482707634e-05,-4.373980666417990354e-06
3.164285714285714146e+00,-1.853684763979593551e-05,-5.797583333212318739e-06
3.165079365079364937e+00,-1.439314345829082049e-05,-4.953598197204321729e-06
3.165873015873015728e+00,-8.445062375684383389e-06,-3.201641745721526909e-06
3.166666666666666519e+00,-1.254606932077096910e-06,-2.163182875292644085e-06
3.167460317460317309e+00,6.492110237356693022e-06,-3.216736630229219128e-06
3.168253968253968100e+00,1.405633987904914731e-05,-7.069428720436154652e-06
3.169047619047618891e+00,2.071654241290291922e-05,-1.353119160704865429e-05
3.169841269841269682e+00,2.583362106517372387e-05,-2.154561014791742105e-05
3.170634920634920473e+00,2.891435565788680291e-05,-2.944594693476864831e-05
3.171428571428571264e+00,2.967732403607275840e-05,-3.534411732306894972e-05
3.172222222222222054e+00,2.811574390958063849e-05,-3.754228387243558886e-05
3.173015873015872845e+00,2.453622985891105627e-05,-3.487389531454168488e-05
3.173809523809523636e+00,1.954601271800221447e-05,-2.691659853719580693e-05
3.174603174603174427e+00,1.397208955192200926e-05,-1.406062275602386226e-05
3.175396825396825218e+00,8.719164477576817670e-06,2.549309503502719294e-06
3.176190476190476009e+00,4.596579493346309636e-06,2.116719415732909543e-05
3.176984126984126799e+00,2.156917615243739340e-06,3.967309735315628915e-05
3.177777777777777590e+00,1.586862914161724152e-06,5.586711109135924835e-05
3.178571428571428381e+00,2.677091846580931643e-06,6.781291517922338643e-05
3.179365079365079172e+00,4.878199113418724602e-06,7.418005892449466246e-05
3.180158730158729963e+00,7.429576399894654437e-06,7.450275448785442149e-05
3.180952380952380754e+00,9.532219086157520143e-06,6.927360722236590765e-05
3.181746031746031544e+00,1.052751770115413135e-05,5.982927398296980167e-05
3.182539682539682335e+00,1.004318900508412611e-05,4.804319645418160414e-05
3.183333333333333126e+00,8.073928668674216331e-06,3.589452766055088560e-05
3.184126984126983917e+00,4.976770466104768398e-06,2.501798451687305312e-05
3.184920634920634708e+00,1.378432316642454505e-06,1.635043749399062084e-05
3.185714285714285499e+00,-1.987096442229097858e-06,9.971147751847892919e-06
3.186507936507936289e+00,-4.471180518771461851e-06,5.181398597017653809e-06
3.187301587301587080e+00,-5.679519025182747658e-06,7.966968170622659494e-07
3.188095238095238315e+00,-5.565400405916898547e-06,-4.442797478555167002e-06
3.188888888888889106e+00,-4.417188540286290540e-06,-1.147126935673502722e-05
3.189682539682539897e+00,-2.745958160806581938e-06,-2.061896360160939178e-05
3.190476190476190688e+00,-1.113995941216574508e-06,-3.151762039460075354e-05
3.191269841269841478e+00,3.693575650346112631e-08,-4.318636438739399322e-05
3.192063492063492269e+00,5.036630312501351638e-07,-5.424584068167206263e-05
3.192857142857143060e+00,3.546309946359123665e-07,-6.318878429478977658e-05
3.193650793650793851e+00,-1.249272374778099922e-07,-6.864079688565888045e-05
3.194444444444444642e+00,-5.525428820798733230e-07,-6.956419729383731400e-05
3.195238095238095433e+00,-5.907047439354137036e-07,-6.538346168339100148e-05
3.196031746031746223e+00,-6.302443309916287982e-08,-5.603870605683797658e-05
3.196825396825397014e+00,9.933434622802891164e-07,-4.199430078843968580e-05
3.197619047619047805e+00,2.350800610860080956e-06,-2.423102277472214682e-05
3.198412698412698596e+00,3.672893204576214846e-06,-4.228584959631678016e-06
3.199206349206349387e+00,4.619149537618603383e-06,1.608839591437727037e-05
3.200000000000000178e+00,4.936344436672100640e-06,3.449197153117830003e-05
3.200793650793650968e+00,4.511437275008677348e-06,4.872158783257020761e-05
3.201587301587301759e+00,3.379004329871366188e-06,5.687340904053050071e-05
3.202380952380952550e+00,1.690931881749766574e-06,5.782280153215344404e-05
3.203174603174603341e+00,-3.356502852141102813e-07,5.154232573977734393e-05
3.203968253968254132e+00,-2.474306917949340305e-06,3.918749542736779364e-05
3.204761904761904923e+00,-4.533622271329447635e-06,2.289556644342959662e-05
3.205555555555555713e+00,-6.380126821641289391e-06,5.341403732731444075e-06
3.206349206349206504e+00,-7.938324401431114973e-06,-1.082659723455901437e-05
3.207142857142857295e+00,-9.174919671245769913e-06,-2.351640445209340181e-05
3.207936507936508086e+00,-1.007958641083208500e-05,-3.155498174071539100e-05
3.208730158730158877e+00,-1.065364452924019992e-05,-3.480930485380962067e-05
3.209523809523809668e+00,-1.091096503400375174e-05,-3.406226609074774331e-05
3.210317460317460458e+00,-1.088580455541002804e-05,-3.069908373095200720e-05
3.211111111111111249e+00,-1.063553650446507819e-05,-2.629526893932441502e-05
3.211904761904762040e+00,-1.022734366344574092e-05,-2.220830773582320108e-05
3.212698412698412831e+00,-9.708109072628310555e-06,-1.926538174487220007e-05
3.213492063492063622e+00,-9.071039458056010730e-06,-1.761263512271805934e-05
3.214285714285714413e+00,-8.241621461489631448e-06,-1.675344405577594551e-05
3.215079365079365203e+00,-7.102032476131022025e-06,-1.576084895852954200e-05
3.215873015873015994e+00,-5.557393573102129111e-06,-1.360831172350543988e-05
3.216666666666666785e+00,-3.626856164161086364e-06,-9.529149563408180376e-06
3.217460317460317576e+00,-1.527311773824838575e-06,-3.299563159407621065e-06
3.218253968253968367e+00,2.859921508202399707e-07,4.643537718967906576e-06
3.219047619047619158e+00,1.149030813032817654e-06,1.328830724999071582e-05
3.219841269841269948e+00,2.991255581951176783e-07,2.130792560801640902e-05
3.220634920634920739e+00,-2.944318399038502577e-06,2.740810254884905369e-05
3.221428571428571530e+00,-8.958802959647277093e-06,3.065187547483459019e-05
3.222222222222222321e+00,-1.760533793257064756e-05,3.066842258295788935e-05
3.223015873015873112e+00,-2.808165452072237445e-05,2.769907576343948804e-05
3.223809523809523903e+00,-3.890144651302423996e-05,2.248777643197077326e-05
3.224603174603174693e+00,-4.804386164227074439e-05,1.606522962515205950e-05
3.225396825396825484e+00,-5.328315332460751799e-05,9.497296634950917272e-06
3.226190476190476275e+00,-5.265759552502146149e-05,3.668207822726020404e-06
3.226984126984127066e+00,-4.498190406668672913e-05,-8.501343441018487088e-07
3.227777777777777857e+00,-3.026807309347223575e-05,-3.824630185689866301e-06
3.228571428571428648e+00,-9.914770534467977629e-06,-5.300428948732148683e-06
3.229365079365079438e+00,1.343309027929860386e-05,-5.494992694489416356e-06
3.230158730158730229e+00,3.636668228387814159e-05,-4.694640746870153680e-06
3.230952380952381020e+00,5.543927574719171133e-05,-3.189792079322979276e-06
3.231746031746031811e+00,6.794340652867211794e-05,-1.261790929388191977e-06
3.232539682539682602e+00,7.251187056796450277e-05,7.915207317776540546e-07
3.233333333333333393e+00,6.936235517001986374e-05,2.622881296533008434e-06
3.234126984126984183e+00,6.012053156695933441e-05,3.830851105734103987e-06
