Timestamp,Flexor carpi radialis,Extensor digitorum
2.000000000000000000e+00,-1.341157625892398558e-05,-3.880992841857065584e-06
2.000793650793650791e+00,-2.884576583899298348e-05,-2.402928378177105831e-06
2.001587301587301582e+00,-4.035876115762603207e-05,1.654021804733313761e-06
2.002380952380952372e+00,-4.733692740594227935e-05,7.854652936460800221e-06
2.003174603174603163e+00,-4.996103894424255691e-05,1.508033462793821752e-05
2.003968253968253954e+00,-4.901556673511987691e-05,2.168378017168905790e-05
2.004761904761904745e+00,-4.558699749493219400e-05,2.581744901174795926e-05
2.005555555555555536e+00,-4.074446034817986561e-05,2.587353279177896512e-05
2.006349206349206327e+00,-3.529188849590457391e-05,2.092695029680477430e-05
2.007142857142857117e+00,-2.965450579744412072e-05,1.105436373046175485e-05
2.007936507936507908e+00,-2.391856110294584160e-05,-2.577128554909686589e-06
2.008730158730158699e+00,-1.799066643715517525e-05,-1.789914356767040247e-05
2.009523809523809490e+00,-1.179959803887262303e-05,-3.237414267656625252e-05
2.010317460317460281e+00,-5.450373029981417097e-06,-4.355652920869585506e-05
2.011111111111111072e+00,7.327787675525166816e-07,-4.962412135154340196e-05
2.011904761904761862e+00,6.284006973804011387e-06,-4.973267080787900207e-05
2.012698412698412653e+00,1.074990728793213948e-05,-4.411063234063840446e-05
2.013492063492063444e+00,1.384727660605734034e-05,-3.390110474522479522e-05
2.014285714285714235e+00,1.555751593975418715e-05,-2.083338658261108865e-05
2.015079365079365026e+00,1.612459258347344446e-05,-6.838989929190713992e-06
2.015873015873015817e+00,1.596800316022279918e-05,6.287760293723505078e-06
2.016666666666666607e+00,1.555535666278211199e-05,1.712774949495650910e-05
2.017460317460317398e+00,1.528557037121837527e-05,2.476305057493607790e-05
2.018253968253968189e+00,1.541409101877966987e-05,2.881071074021762958e-05
2.019047619047618980e+00,1.602233086568839336e-05,2.939383136545256278e-05
2.019841269841269771e+00,1.701350395549615705e-05,2.707292901994951201e-05
2.020634920634920562e+00,1.811471578073635839e-05,2.274678637568982434e-05
2.021428571428571352e+00,1.887683364466516048e-05,1.751998094967374377e-05
2.022222222222222143e+00,1.868056550308145941e-05,1.253190728915884568e-05
2.023015873015872934e+00,1.677140861886758597e-05,8.753821596336000961e-06
2.023809523809523725e+00,1.235151076609152330e-05,6.783258367130147657e-06
2.024603174603174516e+00,4.747689699889650025e-06,6.687778560031522218e-06
2.025396825396825307e+00,-6.350369412890161123e-06,7.957925660792098608e-06
2.026190476190476097e+00,-2.062442201807818229e-05,9.612366108303480844e-06
2.026984126984126888e+00,-3.691294175344476725e-05,1.045608857887464750e-05
2.027777777777777679e+00,-5.314532910747393258e-05,9.437014809760891666e-06
2.028571428571428470e+00,-6.651218088177573344e-05,5.999146960858466164e-06
2.029365079365079261e+00,-7.390848607935787370e-05,3.141644711512859817e-07
2.030158730158730052e+00,-7.260051543709620571e-05,-6.699424129673825233e-06
2.030952380952380842e+00,-6.097078080577027361e-05,-1.359443157317636146e-05
2.031746031746031633e+00,-3.913262619293065593e-05,-1.879194216736488802e-05
2.032539682539682424e+00,-9.214472803890175889e-06,-2.103043959352839123e-05
2.033333333333333215e+00,2.480266389084527347e-05,-1.971834235001666564e-05
2.034126984126984006e+00,5.768544502489401178e-05,-1.507759720375212839e-05
2.034920634920634797e+00,8.385904909285411520e-05,-8.046378866142040590e-06
2.035714285714285587e+00,9.842961911063479060e-05,2.478682303994536112e-09
2.036507936507936378e+00,9.811017527743978674e-05,7.613027852540764914e-06
2.037301587301587169e+00,8.188414805782839845e-05,1.354939870993159702e-05
2.038095238095237960e+00,5.130580706155485847e-05,1.697720543883880941e-05
2.038888888888888751e+00,1.039873549094570874e-05,1.751498308428961503e-05
2.039682539682539542e+00,-3.483747002669938418e-05,1.519744125984749736e-05
2.040476190476190332e+00,-7.726140671175789093e-05,1.040578612561266987e-05
2.041269841269841123e+00,-1.096727985068752213e-04,3.801336391714953308e-06
2.042063492063491914e+00,-1.260048418025910757e-04,-3.732239584517438498e-06
2.042857142857142705e+00,-1.224396210830574995e-04,-1.115580309545224687e-05
2.043650793650793496e+00,-9.823223531854393818e-05,-1.737392936687775464e-05
2.044444444444444287e+00,-5.604293176374870700e-05,-2.137708124835567466e-05
2.045238095238095077e+00,-1.646187197532243789e-06,-2.241425961990155477e-05
2.046031746031745868e+00,5.698930973008219136e-05,-2.016129376282347656e-05
2.046825396825396659e+00,1.110978759894520749e-04,-1.483807352274924019e-05
2.047619047619047450e+00,1.526977492056839881e-04,-7.230592000870348858e-06
2.048412698412698241e+00,1.759975565690574456e-04,1.409371887469479435e-06
2.049206349206349032e+00,1.783177048218121004e-04,9.585045769571977667e-06
2.049999999999999822e+00,1.603585060607605017e-04,1.585861177514860613e-05
2.050793650793650613e+00,1.258238863754562731e-04,1.916927335123739962e-05
2.051587301587301404e+00,8.055464853520298628e-05,1.908083059886505755e-05
2.052380952380952195e+00,3.140052696000200563e-05,1.588458593486746797e-05
2.053174603174602986e+00,-1.493435849533064313e-05,1.052108739477266235e-05
2.053968253968253777e+00,-5.288051888155058226e-05,4.338390277654414298e-06
2.054761904761904567e+00,-7.870001054524245637e-05,-1.244445422585484333e-06
2.055555555555555358e+00,-9.083206100347288991e-05,-5.071798223701263122e-06
2.056349206349206149e+00,-8.988150238873986436e-05,-6.492708709872331960e-06
2.057142857142856940e+00,-7.828058685670806146e-05,-5.453744236432251009e-06
2.057936507936507731e+00,-5.968667345491364558e-05,-2.438536088982801814e-06
2.058730158730158522e+00,-3.821765015507499010e-05,1.706918317841218248e-06
2.059523809523809312e+00,-1.766817619961675036e-05,6.000189054019383561e-06
2.060317460317460103e+00,-8.694142227677860438e-07,9.536336358903965880e-06
2.061111111111110894e+00,1.067133513865132936e-05,1.164473870763059188e-05
2.061904761904761685e+00,1.679109922395525018e-05,1.197009097540643176e-05
2.062698412698412920e+00,1.839338040369007277e-05,1.048271632570349501e-05
2.063492063492063711e+00,1.699622044722992980e-05,7.438103107323573714e-06
2.064285714285714501e+00,1.425729183980284874e-05,3.309766265914261503e-06
2.065079365079365292e+00,1.159369370456949634e-05,-1.285243323793665554e-06
2.065873015873016083e+00,9.951417471829651493e-06,-5.659188016036602521e-06
2.066666666666666874e+00,9.728613127118414559e-06,-9.126406760553669380e-06
2.067460317460317665e+00,1.083425509371020856e-05,-1.108268389779076130e-05
2.068253968253968456e+00,1.285186962633129097e-05,-1.109484378910525526e-05
2.069047619047619246e+00,1.525446717808847806e-05,-8.994343425427356802e-06
2.069841269841270037e+00,1.758995629297252383e-05,-4.956602137971417754e-06
2.070634920634920828e+00,1.955892517663237182e-05,4.607165100981351244e-07
2.071428571428571619e+00,2.095568894031470415e-05,6.347701319110129990e-06
2.072222222222222410e+00,2.151653879895881343e-05,1.155804539968337704e-05
2.073015873015873201e+00,2.077240528181425314e-05,1.490896005809418970e-05
2.073809523809523991e+00,1.800418250729277577e-05,1.543678374306305584e-05
2.074603174603174782e+00,1.234604903093969181e-05,1.265227454185604945e-05
2.075396825396825573e+00,3.005148157669872960e-06,6.721986587067567734e-06
2.076190476190476364e+00,-1.049106246030186052e-05,-1.492619895063464761e-06
2.076984126984127155e+00,-2.811618978305657941e-05,-1.057271099237528014e-05
2.077777777777777946e+00,-4.929263888949786014e-05,-1.883620606549079931e-05
2.078571428571428736e+00,-7.296531288384516551e-05,-2.471477296051455838e-05
2.079365079365079527e+00,-9.775355923289582867e-05,-2.711056463086489000e-05
2.080158730158730318e+00,-1.221141577046368557e-04,-2.563678397334681860e-05
2.080952380952381109e+00,-1.444578650881389711e-04,-2.068434420599423335e-05
2.081746031746031900e+00,-1.631922546986014756e-04,-1.330786231563267843e-05
2.082539682539682691e+00,-1.767032777820602718e-04,-4.969643709612392835e-06
2.083333333333333481e+00,-1.833258190065895955e-04,2.790189381040480026e-06
2.084126984126984272e+00,-1.813758313142990058e-04,8.678490676860414012e-06
2.084920634920635063e+00,-1.693096314287674011e-04,1.189676613164267378e-05
2.085714285714285854e+00,-1.460330828571486351e-04,1.226135488469679753e-05
2.086507936507936645e+00,-1.113127113232246140e-04,1.017730563219951866e-05
2.087301587301587436e+00,-6.616880733382820190e-05,6.481813804374002341e-06
2.088095238095238226e+00,-1.309522362508786446e-05,2.203211639934355595e-06
2.088888888888889017e+00,4.402147319304546778e-05,-1.699647232623040610e-06
2.089682539682539808e+00,1.003252440184870022e-04,-4.549895572229826167e-06
2.090476190476190599e+00,1.506890905913930501e-04,-6.064352102826807506e-06
2.091269841269841390e+00,1.905308577264055601e-04,-6.341996600460775719e-06
2.092063492063492181e+00,2.165474884584750145e-04,-5.744119516385151650e-06
2.092857142857142971e+00,2.271935935877959052e-04,-4.713559088592534166e-06
2.093650793650793762e+00,2.228114650816521232e-04,-3.597104332686340084e-06
2.094444444444444553e+00,2.054227016462437637e-04,-2.530127879517886261e-06
2.095238095238095344e+00,1.782740178157660280e-04,-1.418012332599701939e-06
2.096031746031746135e+00,1.452665069660828440e-04,-1.438278688838868579e-08
2.096825396825396925e+00,1.103889951485463323e-04,1.936316490026163885e-06
2.097619047619047716e+00,7.723860523025294009e-05,4.544933575643927813e-06
2.098412698412698507e+00,4.866662011561801246e-05,7.668859450752379172e-06
2.099206349206349298e+00,2.655390121744240326e-05,1.089034544993519019e-05
2.100000000000000089e+00,1.170625346543575114e-05,1.359487345656894982e-05
2.100793650793650880e+00,3.861682095205024083e-06,1.512754658622637952e-05
2.101587301587301670e+00,1.806650518563906964e-06,1.497635235297606258e-05
2.102380952380952461e+00,3.598103809013323893e-06,1.291934514688698176e-05
2.103174603174603252e+00,6.879396401129134951e-06,9.084430716690552758e-06
2.103968253968254043e+00,9.262324242173760214e-06,3.903452746797704592e-06
2.104761904761904834e+00,8.727345344381295711e-06,-2.014836553441887028e-06
2.105555555555555625e+00,3.976208685569472316e-06,-8.034704701047883118e-06
2.106349206349206415e+00,-5.335155846147162971e-06,-1.360241197875964247e-05
2.107142857142857206e+00,-1.854251476073306222e-05,-1.827883458450872407e-05
2.107936507936507997e+00,-3.412243619525986011e-05,-2.170816368557523218e-05
2.108730158730158788e+00,-5.001954910171412709e-05,-2.357247658914737921e-05
2.109523809523809579e+00,-6.407729861635204024e-05,-2.358439847145506755e-05
2.110317460317460370e+00,-7.446750388732489476e-05,-2.153803915862387644e-05
2.111111111111111160e+00,-8.001768673114343050e-05,-1.739686031219923090e-05
2.111904761904761951e+00,-8.037078403044938695e-05,-1.137403103685423040e-05
2.112698412698412742e+00,-7.596278077085918197e-05,-3.965683896375780261e-06
2.113492063492063533e+00,-6.784987458252007332e-05,4.080422740038219654e-06
2.114285714285714324e+00,-5.744495979182873797e-05,1.185549746142993300e-05
2.115079365079365115e+00,-4.623060339241088850e-05,1.842021571881178441e-05
2.115873015873015905e+00,-3.550671086877713419e-05,2.295138264907131787e-05
2.116666666666666696e+00,-2.621272784523124495e-05,2.488220355868640666e-05
2.117460317460317487e+00,-1.884319180649652350e-05,2.401535924601161731e-05
2.118253968253968278e+00,-1.345717584943935646e-05,2.058785118202240572e-05
2.119047619047619069e+00,-9.768890355291976100e-06,1.526680646193821067e-05
2.119841269841269860e+00,-7.296376157389002364e-06,9.061885030719095947e-06
2.120634920634920650e+00,-5.535176573778532122e-06,3.156041360518701847e-06
2.121428571428571441e+00,-4.116148401162618459e-06,-1.320985108085997681e-06
2.122222222222222232e+00,-2.907477175536909206e-06,-3.531322418319664493e-06
2.123015873015873023e+00,-2.034780191269953441e-06,-3.124223688615752762e-06
2.123809523809523814e+00,-1.817342891057161170e-06,-3.366148425705871049e-07
2.124603174603174605e+00,-2.644642292517922688e-06,4.034276027139247166e-06
2.125396825396825395e+00,-4.835172119988234261e-06,8.791548121965283815e-06
2.126190476190476186e+00,-8.521262213518761186e-06,1.260593127915198179e-05
2.126984126984126977e+00,-1.358765896113872626e-05,1.433389586698187395e-05
2.127777777777777768e+00,-1.966589742824073823e-05,1.331167007993552539e-05
2.128571428571428559e+00,-2.616485678483093416e-05,9.548671871933467448e-06
2.129365079365079350e+00,-3.231202456767374678e-05,3.763539231282107453e-06
2.130158730158730140e+00,-3.719237998102310620e-05,-2.755833311043523697e-06
2.130952380952380931e+00,-3.979436870854831078e-05,-8.440720195351864282e-06
2.131746031746031722e+00,-3.908959836947461332e-05,-1.181214228378161757e-05
2.132539682539682513e+00,-3.416928313004620688e-05,-1.184781282453778654e-05
2.133333333333333304e+00,-2.443321465801747401e-05,-8.262322874655742667e-06
2.134126984126984095e+00,-9.791331452023901492e-06,-1.637192173902025561e-06
2.134920634920634885e+00,9.184254231941062059e-06,6.633603574608500790e-06
2.135714285714285676e+00,3.121593870096712759e-05,1.458526441439056839e-05
2.136507936507936467e+00,5.441949880644736783e-05,2.008093684129897595e-05
2.137301587301587258e+00,7.653995296951282491e-05,2.130191602946353342e-05
2.138095238095238049e+00,9.528057665640427747e-05,1.722661916254424429e-05
2.138888888888888840e+00,1.086569068482177053e-04,7.971269485578079208e-06
2.139682539682539630e+00,1.153041918412150659e-04,-5.125176259852404864e-06
2.140476190476190421e+00,1.146771760623742066e-04,-1.973333263020432765e-05
2.141269841269841212e+00,1.070957001185555003e-04,-3.305208912607783008e-05
2.142063492063492003e+00,9.361228209875503833e-05,-4.248547792307910665e-05
2.142857142857142794e+00,7.572025197847374466e-05,-4.628604039312501933e-05
2.143650793650793585e+00,5.497864102066355975e-05,-4.397334132102712696e-05
2.144444444444444375e+00,3.267434321239777803e-05,-3.640542420386777366e-05
2.145238095238095166e+00,9.642016813010282210e-06,-2.549343476620026638e-05
2.146031746031745957e+00,-1.368994703325370652e-05,-1.366066461625224037e-05
2.146825396825396748e+00,-3.704335443559777835e-05,-3.216268019600299186e-06
2.147619047619047539e+00,-5.992316180480889267e-05,4.177918103338617911e-06
2.148412698412698330e+00,-8.129016341910569711e-05,7.815742845637725040e-06
2.149206349206349120e+00,-9.942520237638693384e-05,7.977268905787477228e-06
2.149999999999999911e+00,-1.120823490992305229e-04,5.710547833539993648e-06
2.150793650793650702e+00,-1.169304845069889931e-04,2.455498689863245416e-06
2.151587301587301493e+00,-1.121728457067213102e-04,-3.713616252870918416e-07
2.152380952380952284e+00,-9.715745914639751602e-05,-1.720932281046379509e-06
2.153174603174603075e+00,-7.278276428823730784e-05,-1.110659633672565772e-06
2.153968253968253865e+00,-4.156317792058710560e-05,1.345032687533558892e-06
2.154761904761904656e+00,-7.318486999842787045e-06,5.051202735362283921e-06
2.155555555555555447e+00,2.544949481840837457e-05,9.144184771666712732e-06
2.156349206349206238e+00,5.235783987705962359e-05,1.273596536731610757e-05
2.157142857142857029e+00,6.995523687398734741e-05,1.513201668862381742e-05
2.157936507936507819e+00,7.638757625964855938e-05,1.597708363805383576e-05
2.158730158730158610e+00,7.178552071261859035e-05,1.530361079739807117e-05
2.159523809523809401e+00,5.828269651581903548e-05,1.348118225637967129e-05
2.160317460317460192e+00,3.963064438384149784e-05,1.108824971078777124e-05
2.161111111111110983e+00,2.045793133600101347e-05,8.744583510676332724e-06
2.161904761904761774e+00,5.309781553341213531e-06,6.950407396933466434e-06
2.162698412698412564e+00,-2.330475705418383273e-06,5.973938242160090192e-06
2.163492063492063355e+00,-8.202179799958555736e-07,5.813035414469755161e-06
2.164285714285714146e+00,9.245067612064222508e-06,6.232873843837943600e-06
2.165079365079364937e+00,2.511957313242815521e-05,6.858711223813556326e-06
2.165873015873015728e+00,4.248178978467375858e-05,7.290020059263352392e-06
2.166666666666666519e+00,5.638865455059422312e-05,7.202872943187697312e-06
2.167460317460317309e+00,6.240538479586517102e-05,6.417891446113839206e-06
2.168253968253968100e+00,5.764805666531723521e-05,4.924646008919566351e-06
2.169047619047618891e+00,4.148088910787352978e-05,2.865058800159436954e-06
2.169841269841269682e+00,1.569240731956587801e-05,4.864917983264436604e-07
2.170634920634920473e+00,-1.588244057802399919e-05,-1.919998980946093814e-06
2.171428571428571264e+00,-4.817394239118692474e-05,-4.079717004229648781e-06
2.172222222222222054e+00,-7.590167458562320534e-05,-5.779569159824640087e-06
2.173015873015872845e+00,-9.457499799688670280e-05,-6.892158656660687186e-06
2.173809523809523636e+00,-1.012889076248263398e-04,-7.379655109728616411e-06
2.174603174603174427e+00,-9.520870135032075653e-05,-7.283411068113248654e-06
2.175396825396825218e+00,-7.769258370120671385e-05,-6.706731924611683004e-06
2.176190476190476009e+00,-5.203669844356452771e-05,-5.796154659729414419e-06
2.176984126984126799e+00,-2.286687453679558536e-05,-4.722683487706663108e-06
2.177777777777777590e+00,4.735785760939815721e-06,-3.661315100426942435e-06
2.178571428571428381e+00,2.621389975487027090e-05,-2.767167463832037689e-06
2.179365079365079172e+00,3.840695580004503147e-05,-2.150160275285300784e-06
2.180158730158729963e+00,4.011820917421941320e-05,-1.855246089619725985e-06
2.180952380952380754e+00,3.224690288846566213e-05,-1.856958361101037912e-06
2.181746031746031544e+00,1.746593029783204812e-05,-2.071995409707241588e-06
2.182539682539682335e+00,-4.646781873840419229e-07,-2.383969680760627205e-06
2.183333333333333126e+00,-1.757606404495345900e-05,-2.667701757782761583e-06
2.184126984126983917e+00,-3.055326062855841165e-05,-2.802277644744805865e-06
2.184920634920634708e+00,-3.739011275513801671e-05,-2.671219481974416310e-06
2.185714285714285499e+00,-3.769989619467668281e-05,-2.157846834829141672e-06
2.186507936507936289e+00,-3.262795629748227363e-05,-1.148076677679399261e-06
2.187301587301587080e+00,-2.440795581509103089e-05,4.503247007792162877e-07
2.188095238095238315e+00,-1.569043840968961827e-05,2.671693811290217917e-06
2.188888888888889106e+00,-8.826373063513542639e-06,5.449475204449063335e-06
2.189682539682539897e+00,-5.290889329039507489e-06,8.583310009643167193e-06
2.190476190476190688e+00,-5.382833086635581658e-06,1.173364920826880461e-05
2.191269841269841478e+00,-8.252841572129416073e-06,1.445391566372276090e-05
2.192063492063492269e+00,-1.222492928082704632e-05,1.625795812958333981e-05
2.192857142857143060e+00,-1.530769250537848504e-05,1.670921439619395293e-05
2.193650793650793851e+00,-1.575376170049891535e-05,1.551219612569804210e-05
2.194444444444444642e+00,-1.252541417562321871e-05,1.258664509179989143e-05
2.195238095238095433e+00,-5.558842593763234140e-06,8.107247621936659957e-06
2.196031746031746223e+00,4.222784821696904334e-06,2.496174372840558355e-06
2.196825396825397014e+00,1.513582730733112471e-05,-3.636140645594325072e-06
2.197619047619047805e+00,2.514050257615672664e-05,-9.593463803323632459e-06
2.198412698412698596e+00,3.232913600248504593e-05,-1.471622633733400622e-05
2.199206349206349387e+00,3.539181946575454488e-05,-1.849177348251374568e-05
2.200000000000000178e+00,3.396076781125164458e-05,-2.062325943524316780e-05
2.200793650793650968e+00,2.876153239531538565e-05,-2.104303519949985473e-05
2.201587301587301759e+00,2.153875199603792534e-05,-1.987618291881530525e-05
2.202380952380952550e+00,1.476582228940542216e-05,-1.737520868207843530e-05
2.203174603174603341e+00,1.118267122232365436e-05,-1.385194804641636699e-05
2.203968253968254132e+00,1.323074613133080783e-05,-9.627435182234279435e-06
2.204761904761904923e+00,2.247206385041167697e-05,-5.009276234879190153e-06
2.205555555555555713e+00,3.909348325124124905e-05,-2.943024659985953879e-07
2.206349206349206504e+00,6.160724447545361574e-05,4.214665906260917758e-06
2.207142857142857295e+00,8.685467695707060583e-05,8.193880021866777145e-06
2.207936507936508086e+00,1.103854698624049188e-04,1.130104145495042657e-05
2.208730158730158877e+00,1.272080511573660689e-04,1.320406896019788932e-05
2.209523809523809668e+00,1.327958314074907914e-04,1.363442383911982894e-05
2.210317460317460458e+00,1.241254294937753377e-04,1.245229221488969303e-05
2.211111111111111249e+00,1.004680525319858695e-04,9.704848369859757332e-06
2.211904761904762040e+00,6.369316842302943081e-05,5.659205835029855426e-06
2.212698412698412831e+00,1.797457068767949735e-05,7.966873219314642306e-07
2.213492063492063622e+00,-3.103355951710171009e-05,-4.237908141017125631e-06
2.214285714285714413e+00,-7.732972386597404275e-05,-8.730297612997386692e-06
2.215079365079365203e+00,-1.157124070893718754e-04,-1.202243685797082983e-05
2.215873015873015994e+00,-1.426653494335444544e-04,-1.364644242069055001e-05
2.216666666666666785e+00,-1.567950250649338174e-04,-1.343202218363738467e-05
2.217460317460317576e+00,-1.587635896303408881e-04,-1.155045497594053822e-05
2.218253968253968367e+00,-1.507927002259921686e-04,-8.472181053170480363e-06
2.219047619047619158e+00,-1.359130466564342614e-04,-4.842964432127434188e-06
2.219841269841269948e+00,-1.171746209602581750e-04,-1.312213782147989074e-06
2.220634920634920739e+00,-9.701012409573169122e-05,1.637467340244808083e-06
2.221428571428571530e+00,-7.687710629352702925e-05,3.812660235517617812e-06
2.222222222222222321e+00,-5.721823917805242464e-05,5.351298545029726652e-06
2.223015873015873112e+00,-3.769348862712809802e-05,6.671516644961790893e-06
2.223809523809523903e+00,-1.757225778630477797e-05,8.332917385285205461e-06
2.224603174603174693e+00,3.850491032800232149e-06,1.083464670328284220e-05
2.225396825396825484e+00,2.692183112221424208e-05,1.439343598801665416e-05
2.226190476190476275e+00,5.142545784198995692e-05,1.876000147894799633e-05
2.226984126984127066e+00,7.648479529240783813e-05,2.313679134353921669e-05
2.227777777777777857e+00,1.005342375044578833e-04,2.624783459939150065e-05
2.228571428571428648e+00,1.213464810715800192e-04,2.657972396090803151e-05
2.229365079365079438e+00,1.361564447319504195e-04,2.276364273138512147e-05
2.230158730158730229e+00,1.419512461905210368e-04,1.401222287353624696e-05
2.230952380952381020e+00,1.359662399692110118e-04,4.830129454828031925e-07
2.231746031746031811e+00,1.163448273806575535e-04,-1.656289327562575884e-05
2.232539682539682602e+00,8.282606758390031847e-05,-3.489014514406647702e-05
2.233333333333333393e+00,3.726636126818088306e-05,-5.170028124646036861e-05
2.234126984126984183e+00,-1.619357996651650186e-05,-6.422206087732403826e-05
2.234920634920634974e+00,-7.143795160720496900e-05,-7.031523996898051169e-05
2.235714285714285765e+00,-1.211730950579952346e-04,-6.891986732272693936e-05
2.236507936507936556e+00,-1.581022527271602155e-04,-6.024009539799621705e-05
2.237301587301587347e+00,-1.762627142820716417e-04,-4.563869297153262683e-05
2.238095238095238138e+00,-1.722479349155519235e-04,-2.729865270987302957e-05
2.238888888888888928e+00,-1.460335416184435381e-04,-7.756673700539296230e-06
2.239682539682539719e+00,-1.011890168737534352e-04,1.057467480125308764e-05
2.240476190476190510e+00,-4.438173200649278858e-05,2.579563130685889039e-05
2.241269841269841301e+00,1.575776138755295914e-05,3.675324613623299629e-05
2.242063492063492092e+00,7.018452416574585972e-05,4.309951354776779612e-05
2.242857142857142883e+00,1.110743615075055586e-04,4.519469886556942711e-05
2.243650793650793673e+00,1.331956957283796799e-04,4.390584136251392088e-05
2.244444444444444464e+00,1.347325376550796748e-04,4.036059355926293799e-05
2.245238095238095255e+00,1.174067206636309645e-04,3.571036653209973098e-05
2.246031746031746046e+00,8.591601083313397285e-05,3.094082842998599969e-05
2.246825396825396837e+00,4.685865101229059554e-05,2.674896982650635339e-05
2.247619047619047628e+00,7.410863069571976181e-06,2.348959971237041616e-05
2.248412698412698418e+00,-2.595650477285689871e-05,2.118382442976876026e-05
2.249206349206349209e+00,-4.848541027446756451e-05,1.957831141626965139e-05
2.250000000000000000e+00,-5.772065058025286071e-05,1.824377931983020725e-05
2.250793650793650791e+00,-5.364869113198395781e-05,1.669953181215583346e-05
2.251587301587301582e+00,-3.843790819309513495e-05,1.454575791076564211e-05
2.252380952380952372e+00,-1.588136322294579603e-05,1.157891543939597266e-05
2.253174603174603163e+00,9.340888243011492145e-06,7.862616387078183843e-06
2.253968253968253954e+00,3.246388780557831838e-05,3.731195841975015821e-06
2.254761904761904745e+00,4.939279932064923810e-05,-2.832831610126828473e-07
2.255555555555555536e+00,5.730570387407670765e-05,-3.589846090859511468e-06
2.256349206349206327e+00,5.501745393005632944e-05,-5.711144073456989883e-06
2.257142857142857117e+00,4.305875660505380963e-05,-6.441215123776089028e-06
2.257936507936507908e+00,2.348198334219866115e-05,-5.935131502781610099e-06
2.258730158730158699e+00,-5.425705257288630822e-07,-4.689601683346361330e-06
2.259523809523809490e+00,-2.524929974331099094e-05,-3.404983029866768143e-06
2.260317460317460281e+00,-4.683080160899724291e-05,-2.762704373201124073e-06
2.261111111111111072e+00,-6.195514376506137792e-05,-3.191120807200901835e-06
2.261904761904761862e+00,-6.820222580051955332e-05,-4.707583124499530714e-06
2.262698412698412653e+00,-6.438839072951573947e-05,-6.903693546529973857e-06
2.263492063492063444e+00,-5.075290650894788088e-05,-9.088921029852637203e-06
2.264285714285714235e+00,-2.898137763178306492e-05,-1.054485531476587950e-05
2.265079365079365026e+00,-2.048376441203614157e-06,-1.079563583071386431e-05
2.265873015873015817e+00,2.612028085137056899e-05,-9.790845481121145669e-06
2.266666666666666607e+00,5.113975680245243179e-05,-7.929644657399290443e-06
2.267460317460317398e+00,6.876410610920267671e-05,-5.915205280123443422e-06
2.268253968253968189e+00,7.552683582731429710e-05,-4.492253630640422865e-06
2.269047619047618980e+00,6.935171560742556458e-05,-4.163217792003362261e-06
2.269841269841269771e+00,5.004880639272394342e-05,-4.984808726856815970e-06
2.270634920634920562e+00,1.959574436500737443e-05,-6.516624585210841038e-06
2.271428571428571352e+00,-1.789725347693198437e-05,-7.940274828641179992e-06
2.272222222222222143e+00,-5.660917486453060380e-05,-8.311967077733655999e-06
2.273015873015872934e+00,-8.981779818892409242e-05,-6.871723445480853003e-06
2.273809523809523725e+00,-1.110034725763833747e-04,-3.318230680169687129e-06
2.274603174603174516e+00,-1.150606196781689395e-04,2.029940499720151529e-06
2.275396825396825307e+00,-9.937166802719315432e-05,8.234338920686401435e-06
2.276190476190476097e+00,-6.450010240982581382e-05,1.390286111400663024e-05
2.276984126984126888e+00,-1.432799316937494588e-05,1.748529746041038133e-05
2.277777777777777679e+00,4.442144421169039452e-05,1.763204574744714441e-05
2.278571428571428470e+00,1.032071804353309726e-04,1.353924993493468220e-05
2.279365079365079261e+00,1.530588840118109076e-04,5.208088453284390139e-06
2.280158730158730052e+00,1.860775623832841075e-04,-6.442003625264597239e-06
2.280952380952380842e+00,1.967745905311133587e-04,-1.964850266699698418e-05
2.281746031746031633e+00,1.830049738517904262e-04,-3.208209513328963517e-05
2.282539682539682424e+00,1.463209208922364851e-04,-4.129116967740326680e-05
2.283333333333333215e+00,9.167490976423831256e-05,-4.522798013355263340e-05
2.284126984126984006e+00,2.652755607572350498e-05,-4.273047243002161584e-05
2.284920634920634797e+00,-4.046009168512963770e-05,-3.383171712961751814e-05
2.285714285714285587e+00,-1.008843692927784776e-04,-1.981115125067985165e-05
2.286507936507936378e+00,-1.479216209704135670e-04,-2.971775483503215682e-06
2.287301587301587169e+00,-1.772786485229793565e-04,1.380347652261050093e-05
2.288095238095237960e+00,-1.876291948843708502e-04,2.761634581706267689e-05
2.288888888888888751e+00,-1.805054244532508338e-04,3.612070893447212773e-05
2.289682539682539542e+00,-1.597130763578028054e-04,3.798022623186733139e-05
2.290476190476190332e+00,-1.304136942486759762e-04,3.312652874288447841e-05
2.291269841269841123e+00,-9.806290547830005702e-05,2.276526383509136750e-05
2.292063492063491914e+00,-6.740819825141493435e-05,9.125318402059141696e-06
2.292857142857142705e+00,-4.173103338503982685e-05,-5.000613645581112330e-06
2.293650793650793496e+00,-2.246702835970359327e-05,-1.682936948894821064e-05
2.294444444444444287e+00,-9.259855056276876940e-06,-2.415290458205944342e-05
2.295238095238095077e+00,-4.116689993288973893e-07,-2.577664123671740632e-05
2.296031746031745868e+00,6.395316180403411540e-06,-2.174135969842209010e-05
2.296825396825396659e+00,1.329377051314149661e-05,-1.328636235755297964e-05
2.297619047619047450e+00,2.155052352630567277e-05,-2.562084683642747259e-06
2.298412698412698241e+00,3.118805587540727435e-05,7.852233715317537808e-06
2.299206349206349032e+00,4.100798616816435068e-05,1.552799764872554234e-05
2.299999999999999822e+00,4.900582208061032087e-05,1.873585810057871461e-05
2.300793650793650613e+00,5.305361590740174173e-05,1.683081234420538829e-05
2.301587301587301404e+00,5.164832095781652824e-05,1.037323041931714816e-05
2.302380952380952195e+00,4.450518173551560832e-05,9.519613797699902535e-07
2.303174603174602986e+00,3.282297835556032179e-05,-9.242094697267635016e-06
2.303968253968253777e+00,1.914352269821080420e-05,-1.797343553776098985e-05
2.304761904761904567e+00,6.838653748279320753e-06,-2.349668344227866170e-05
2.305555555555555358e+00,-6.484053663712518864e-07,-2.492523552012931813e-05
2.306349206349206149e+00,-6.246680357564382341e-07,-2.234438355380457695e-05
2.307142857142856940e+00,8.161414001725398782e-06,-1.666125406567583124e-05
2.307936507936507731e+00,2.512068204099156553e-05,-9.265190251711005525e-06
2.308730158730158522e+00,4.781264990880980208e-05,-1.621627502072922642e-06
2.309523809523809312e+00,7.233739076307940099e-05,5.076769425366714215e-06
2.310317460317460103e+00,9.405990273070000834e-05,1.011874346525964420e-05
2.311111111111110894e+00,1.085275887077448111e-04,1.331834707694926825e-05
2.311904761904761685e+00,1.123966412173567445e-04,1.492108921047372667e-05
2.312698412698412920e+00,1.041670432673463782e-04,1.542911620572481925e-05
2.313492063492063711e+00,8.454447487294865780e-05,1.540754505650810991e-05
2.314285714285714501e+00,5.631160782840826875e-05,1.532145743602708382e-05
2.315079365079365292e+00,2.370457274561586636e-05,1.543285133161948245e-05
2.315873015873016083e+00,-8.569655469041405105e-06,1.576676066510504257e-05
2.316666666666666874e+00,-3.642155935977731709e-05,1.613921117760045720e-05
2.317460317460317665e+00,-5.727511281755410957e-05,1.622881952745085335e-05
2.318253968253968456e+00,-7.052405373037285720e-05,1.567053227673127734e-05
2.319047619047619246e+00,-7.742793559576281238e-05,1.415353293693337709e-05
2.319841269841270037e+00,-8.048640792864427513e-05,1.151149459626112174e-05
2.320634920634920828e+00,-8.247431156510011874e-05,7.796426716849138186e-06
2.321428571428571619e+00,-8.541422724547880147e-05,3.324133891099891318e-06
2.322222222222222410e+00,-8.978353881680900496e-05,-1.326810386146721278e-06
2.323015873015873201e+00,-9.419171199411314230e-05,-5.380172924825091618e-06
2.323809523809523991e+00,-9.563579243938601690e-05,-7.994383378495072666e-06
2.324603174603174782e+00,-9.028367653582729474e-05,-8.440374374855640614e-06
2.325396825396825573e+00,-7.458657188515641187e-05,-6.281635658923174107e-06
2.326190476190476364e+00,-4.642194405712662318e-05,-1.507518887707530407e-06
2.326984126984127155e+00,-5.947226562726271460e-06,5.416610206635638843e-06
2.327777777777777946e+00,4.408372313411950419e-05,1.359574780441623738e-05
2.328571428571428736e+00,9.864139153587992326e-05,2.183800317009128837e-05
2.329365079365079527e+00,1.512976745855680409e-04,2.884574405205100572e-05
2.330158730158730318e+00,1.954196985004671365e-04,3.342759035482609713e-05
2.330952380952381109e+00,2.253571529976840519e-04,3.469335707065486496e-05
2.331746031746031900e+00,2.373259695229970503e-04,3.220150228838749022e-05
2.332539682539682691e+00,2.298211148180756818e-04,2.603898511881500713e-05
2.333333333333333481e+00,2.035656042505561733e-04,1.682137925814373338e-05
2.334126984126984272e+00,1.611348529550080350e-04,5.606618900979346462e-06
2.334920634920635063e+00,1.064296210034857565e-04,-6.274570008839739648e-06
2.335714285714285854e+00,4.412197107224287364e-05,-1.744878396753480018e-05
2.336507936507936645e+00,-2.086744775939722925e-05,-2.674320628921341786e-05
2.337301587301587436e+00,-8.383028586708009104e-05,-3.338163644170371859e-05
2.338095238095238226e+00,-1.406295650632719148e-04,-3.708465376635749643e-05
2.338888888888889017e+00,-1.879161838061678175e-04,-3.805689358436237110e-05
2.339682539682539808e+00,-2.232024262293186127e-04,-3.687733549321977965e-05
2.340476190476190599e+00,-2.448510856315192679e-04,-3.432837676167914734e-05
2.341269841269841390e+00,-2.520642612156101547e-04,-3.120577327820035985e-05
2.342063492063492181e+00,-2.449240980231076853e-04,-2.815058982953829255e-05
2.342857142857142971e+00,-2.244744838470177418e-04,-2.553791958281145162e-05
2.343650793650793762e+00,-1.927809230529648539e-04,-2.344223772598583215e-05
2.344444444444444553e+00,-1.528894469898699692e-04,-2.167718522509759157e-05
2.345238095238095344e+00,-1.086241170885331056e-04,-1.988774983844285416e-05
2.346031746031746135e+00,-6.420447345349218811e-05,-1.766440913908499301e-05
2.346825396825396925e+00,-2.371628644791110412e-05,-1.465217896150195204e-05
2.347619047619047716e+00,9.479133422660149439e-06,-1.063620782646442830e-05
2.348412698412698507e+00,3.327156159288217685e-05,-5.594021298926595708e-06
2.349206349206349298e+00,4.712865288167529065e-05,2.889932820351435455e-07
2.350000000000000089e+00,5.212423124188003242e-05,6.639968697481189475e-06
2.350793650793650880e+00,5.064842319737699705e-05,1.295137785883623935e-05
2.351587301587301670e+00,4.586608343200643191e-05,1.866011255854925374e-05
2.352380952380952461e+00,4.104590275263473529e-05,2.324144341128189423e-05
2.353174603174603252e+00,3.889873087186606558e-05,2.629943942114237003e-05
2.353968253968254043e+00,4.105390631200744552e-05,2.763101124315814490e-05
2.354761904761904834e+00,4.777792817730832807e-05,2.724458199498634500e-05
2.355555555555555625e+00,5.799814627288575391e-05,2.532815223037331173e-05
2.356349206349206415e+00,6.963179867866812112e-05,2.218014807787362327e-05
2.357142857142857206e+00,8.014548144651752627e-05,1.813126237440583174e-05
2.357936507936507997e+00,8.720116267136549405e-05,1.348939217387008861e-05
2.358730158730158788e+00,8.921088261374007756e-05,8.529399227019125024e-06
2.359523809523809579e+00,8.565117946040936637e-05,3.526792236179806515e-06
2.360317460317460370e+00,7.707707022532319058e-05,-1.191193157377119375e-06
2.361111111111111160e+00,6.487778582949711866e-05,-5.218659629713873111e-06
2.361904761904761951e+00,5.088134133877780921e-05,-8.104351977813947455e-06
2.362698412698412742e+00,3.692931813436002006e-05,-9.455646569338296904e-06
2.363492063492063533e+00,2.452391481403305091e-05,-9.088050469378650907e-06
2.364285714285714324e+00,1.461246950967268021e-05,-7.164130865913260961e-06
2.365079365079365115e+00,7.529422948130788756e-06,-4.253149971732465910e-06
2.365873015873015905e+00,3.074086282446912297e-06,-1.257690375408279163e-06
2.366666666666666696e+00,6.769340895428521104e-07,8.023093185215150655e-07
2.367460317460317487e+00,-3.996184247069371669e-07,1.097060466514192410e-06
2.368253968253968278e+00,-8.738126426963272728e-07,-7.155104339916754846e-07
2.369047619047619069e+00,-1.305824335156089886e-06,-4.316560988274674824e-06
2.369841269841269860e+00,-2.027341195071873804e-06,-8.756939607568746373e-06
2.370634920634920650e+00,-3.141794493965207560e-06,-1.270054047927981625e-05
2.371428571428571441e+00,-4.580910246246881042e-06,-1.481118501140356939e-05
2.372222222222222232e+00,-6.190606774217678866e-06,-1.415936181731978225e-05
2.373015873015873023e+00,-7.814465985179161082e-06,-1.051706909605445764e-05
2.373809523809523814e+00,-9.347948695253042659e-06,-4.450140307930150344e-06
2.374603174603174605e+00,-1.074972487533654344e-05,2.811897855015979357e-06
2.375396825396825395e+00,-1.201349134182004233e-05,9.679624582747321137e-06
2.376190476190476186e+00,-1.311875481650875432e-05,1.459066534348746077e-05
2.376984126984126977e+00,-1.398726182404034705e-05,1.638123828796182586e-05
2.377777777777777768e+00,-1.447014988760645185e-05,1.455961849271666448e-05
2.378571428571428559e+00,-1.437951011958816962e-05,9.425649603310442295e-06
2.379365079365079350e+00,-1.356029603731556924e-05,2.012689094459419501e-06
2.380158730158730140e+00,-1.198039466066641016e-05,-6.134975798465490561e-06
2.380952380952380931e+00,-9.804670530636036985e-06,-1.330008443846571187e-05
2.381746031746031722e+00,-7.418058644907093173e-06,-1.797022654304496618e-05
2.382539682539682513e+00,-5.375626726026338916e-06,-1.917063235669770691e-05
2.383333333333333304e+00,-4.280772814704728461e-06,-1.667627741168343215e-05
2.384126984126984095e+00,-4.617686864624597494e-06,-1.105339693972778842e-05
2.384920634920634885e+00,-6.582489649998259788e-06,-3.518596952900275773e-06
2.385714285714285676e+00,-9.965079518164927610e-06,4.352526700345203320e-06
2.386507936507936467e+00,-1.412758242875526143e-05,1.099632703781991667e-05
2.387301587301587258e+00,-1.810145269794147211e-05,1.521859683413346658e-05
2.388095238095238049e+00,-2.078634067819945414e-05,1.644917655123627492e-05
2.388888888888888840e+00,-2.119501847894592557e-05,1.483316711491691957e-05
2.389682539682539630e+00,-1.867043001382490795e-05,1.114313898386224030e-05
2.390476190476190421e+00,-1.301461551836447028e-05,6.544138630754032436e-06
2.391269841269841212e+00,-4.508675062139508958e-06,2.280586295824458853e-06
2.392063492063492003e+00,6.152695571932959892e-06,-6.284065128880418358e-07
2.392857142857142794e+00,1.796323486296933080e-05,-1.606806731729740033e-06
2.393650793650793585e+00,2.970149194734954154e-05,-6.057963986870084602e-07
2.394444444444444375e+00,4.001116195941387772e-05,1.948540426303136959e-06
2.395238095238095166e+00,4.748979706788976427e-05,5.308227237287540444e-06
2.396031746031745957e+00,5.082518563228729451e-05,8.601737703765407163e-06
2.396825396825396748e+00,4.900352272335393918e-05,1.102448193036733401e-05
2.397619047619047539e+00,4.157390897413539135e-05,1.198500953827069066e-05
2.398412698412698330e+00,2.890568243138481085e-05,1.119079546864032529e-05
2.399206349206349120e+00,1.233937503475116897e-05,8.673350272480836749e-06
2.399999999999999911e+00,-5.869801835714350415e-06,4.762111396529876653e-06
2.400793650793650702e+00,-2.287184075442539471e-05,2.155210410042504688e-08
2.401587301587301493e+00,-3.577707161692841799e-05,-4.833533565751065880e-06
2.402380952380952284e+00,-4.232850805032471590e-05,-9.033670758540005973e-06
2.403174603174603075e+00,-4.151827439835570631e-05,-1.185583720736462146e-05
2.403968253968253865e+00,-3.397749312051315625e-05,-1.272579481974532815e-05
2.404761904761904656e+00,-2.202172581878719500e-05,-1.131177133534068401e-05
2.405555555555555447e+00,-9.311280454408897255e-06,-7.592089709305891080e-06
2.406349206349206238e+00,-1.653627933110860980e-07,-1.877707614709139290e-06
2.407142857142857029e+00,1.358941918594650203e-06,5.221095827596493389e-06
2.407936507936507819e+00,-7.546179242781195341e-06,1.287943828436188239e-05
2.408730158730158610e+00,-2.758933676817085822e-05,2.017451613512851979e-05
2.409523809523809401e+00,-5.687015905624176552e-05,2.620684313872121717e-05
2.410317460317460192e+00,-9.087049493388791612e-05,3.020100731224474724e-05
2.411111111111110983e+00,-1.230241480182076691e-04,3.157168838867816619e-05
2.411904761904761774e+00,-1.458272034013488897e-04,2.995367465913716652e-05
2.412698412698412564e+00,-1.523203867423920499e-04,2.520438948743687515e-05
2.413492063492063355e+00,-1.376551678725972615e-04,1.739359475901773258e-05
2.414285714285714146e+00,-1.003828394031332395e-04,6.798882097054163516e-06
2.415079365079364937e+00,-4.311974385556045905e-05,-6.076196167452168759e-06
2.415873015873015728e+00,2.763796502011131630e-05,-2.045854040808407895e-05
2.416666666666666519e+00,1.025713315019524392e-04,-3.525894924479380538e-05
2.417460317460317309e+00,1.712575133489455093e-04,-4.906798064333392105e-05
2.418253968253968100e+00,2.241549097000819285e-04,-6.024301616107482387e-05
2.419047619047618891e+00,2.543771152395010141e-04,-6.711216667949471387e-05
2.419841269841269682e+00,2.588329755272089443e-04,-6.827742744397093534e-05
2.420634920634920473e+00,2.384929161526557525e-04,-6.295168778043731296e-05
2.421428571428571264e+00,1.977955430524779988e-04,-5.123262572894965255e-05
2.422222222222222054e+00,1.434411449155271264e-04,-3.422020580870194348e-05
2.423015873015872845e+00,8.294576769735634129e-05,-1.392617715762859057e-05
2.423809523809523636e+00,2.331976520601737360e-05,7.016357050185754447e-06
2.424603174603174427e+00,-2.987971804613445294e-05,2.578507952678156778e-05
2.425396825396825218e+00,-7.302675512729720072e-05,3.985740592534154568e-05
2.426190476190476009e+00,-1.044718525225232618e-04,4.746475828973545813e-05
2.426984126984126799e+00,-1.242672548502077312e-04,4.792601654465098609e-05
2.427777777777777590e+00,-1.337046176376671994e-04,4.178921815082074743e-05
2.428571428571428381e+00,-1.347839801470176937e-04,3.073936446049811575e-05
2.429365079365079172e+00,-1.297126197910747260e-04,1.727396771672008336e-05
2.430158730158729963e+00,-1.205139197466671225e-04,4.200140393222170937e-06
2.430952380952380754e+00,-1.088020768935059866e-04,-5.945509120766963052e-06
2.431746031746031544e+00,-9.573894214701388506e-05,-1.142443129576183495e-05
2.432539682539682335e+00,-8.213789066900746322e-05,-1.164324262226930438e-05
2.433333333333333126e+00,-6.863468447280207999e-05,-7.230040001764399766e-06
2.434126984126983917e+00,-5.583020483377983318e-05,1.818672930835976527e-07
2.434920634920634708e+00,-4.433670482816464071e-05,8.403109497552191894e-06
2.435714285714285499e+00,-3.471518166575630638e-05,1.524406479737138707e-05
2.436507936507936289e+00,-2.734413832565065817e-05,1.902473120851673569e-05
2.437301587301587080e+00,-2.228202982673443332e-05,1.890905129899308692e-05
2.438095238095238315e+00,-1.917531384614845657e-05,1.499617513850266398e-05
2.438888888888889106e+00,-1.723938524922379015e-05,8.179049566260710363e-06
2.439682539682539897e+00,-1.531786897220088997e-05,-1.532827282710111324e-07
2.440476190476190688e+00,-1.201239855462607764e-05,-8.462227509442444063e-06
2.441269841269841478e+00,-5.869245099068404554e-06,-1.535939594160693749e-05
2.442063492063492269e+00,4.391053307197705438e-06,-1.980611637811792043e-05
2.442857142857143060e+00,1.961565027271775042e-05,-2.120641701015088074e-05
2.443650793650793851e+00,3.995963962260715255e-05,-1.941800403028430476e-05
2.444444444444444642e+00,6.467707925075293714e-05,-1.471413097155745534e-05
2.445238095238095433e+00,9.203510721121268146e-05,-7.721677928750862193e-06
2.446031746031746223e+00,1.194101834988742412e-04,6.531570354023413362e-07
2.446825396825397014e+00,1.435770005071123484e-04,9.312733086263424450e-06
2.447619047619047805e+00,1.611457251131741112e-04,1.707637119665741002e-05
2.448412698412698596e+00,1.690704369889804075e-04,2.281288549558550151e-05
2.449206349206349387e+00,1.651437172677875916e-04,2.559052579352971143e-05
2.450000000000000178e+00,1.483961045462239121e-04,2.482587007248086700e-05
2.450793650793650968e+00,1.193280216458377847e-04,2.040528956661429683e-05
2.451587301587301759e+00,7.992196813672635476e-05,1.275078309213075736e-05
2.452380952380952550e+00,3.342262367688679341e-05,2.806056864024438093e-06
2.453174603174603341e+00,-1.607121279948226829e-05,-8.071025625838857797e-06
2.453968253968254132e+00,-6.410830921047340513e-05,-1.830587477374466415e-05
2.454761904761904923e+00,-1.063719554434096125e-04,-2.636739792752506128e-05
2.455555555555555713e+00,-1.390802163945017674e-04,-3.104218456114976143e-05
2.456349206349206504e+00,-1.592918691850818630e-04,-3.166336312555897135e-05
2.457142857142857295e+00,-1.651584250246246463e-04,-2.824109439879115833e-05
2.457936507936508086e+00,-1.561599802477903079e-04,-2.146249954156982770e-05
2.458730158730158877e+00,-1.333082035283623002e-04,-1.255723313563082636e-05
2.459523809523809668e+00,-9.922938401219303782e-05,-3.054176939325274002e-06
2.460317460317460458e+00,-5.800910462087735693e-05,5.520107982595898942e-06
2.461111111111111249e+00,-1.472461375367716370e-05,1.193506337167044149e-05
2.461904761904762040e+00,2.530072407610880599e-05,1.547605846885274751e-05
2.462698412698412831e+00,5.736848898400453625e-05,1.604232342507601726e-05
2.463492063492063622e+00,7.818174662380351578e-05,1.410506036531924922e-05
2.464285714285714413e+00,8.632436482214864181e-05,1.054290602494418184e-05
2.465079365079365203e+00,8.233673292621301269e-05,6.402627126286402853e-06
2.465873015873015994e+00,6.841139374267554165e-05,2.650180863138412157e-06
2.466666666666666785e+00,4.783371305947430795e-05,-2.543083110773529874e-08
2.467460317460317576e+00,2.432718408956842092e-05,-1.314463095490477323e-06
2.468253968253968367e+00,1.438133336170736066e-06,-1.284320450115251319e-06
2.469047619047619158e+00,-1.795169751277886361e-05,-2.903569923083887693e-07
2.469841269841269948e+00,-3.193492154668073818e-05,1.165185187170365673e-06
2.470634920634920739e+00,-3.969010057179806275e-05,2.584628216686551614e-06
2.471428571428571530e+00,-4.140479966533792668e-05,3.599293922558452393e-06
2.472222222222222321e+00,-3.805197380329844784e-05,4.041794645588351572e-06
2.473015873015873112e+00,-3.108515684844649423e-05,3.958500010077353715e-06
2.473809523809523903e+00,-2.212283693982402036e-05,3.571816127125675123e-06
2.474603174603174693e+00,-1.267874517672376067e-05,3.212839833305142711e-06
2.475396825396825484e+00,-3.971321066276937810e-06,3.246117069991922712e-06
2.476190476190476275e+00,3.177519142749876837e-06,4.001187714180951671e-06
2.476984126984127066e+00,8.361136430325931176e-06,5.715372785611453824e-06
2.477777777777777857e+00,1.154134828431373101e-05,8.484793449106304238e-06
2.478571428571428648e+00,1.295797394621441326e-05,1.222012361150286768e-05
2.479365079365079438e+00,1.301820640355995037e-05,1.661019930129331535e-05
2.480158730158730229e+00,1.218776591454246894e-05,2.110612984919592083e-05
2.480952380952381020e+00,1.090149884234202298e-05,2.494478464470109786e-05
2.481746031746031811e+00,9.504553123334665170e-06,2.722831185025960908e-05
2.482539682539682602e+00,8.227355032980027846e-06,2.706393974104320994e-05
2.483333333333333393e+00,7.189759789772489710e-06,2.374850228142640215e-05
2.484126984126984183e+00,6.424073904852946328e-06,1.696138249265258081e-05
2.484920634920634974e+00,5.904930842425965100e-06,6.915706616681952140e-06
2.485714285714285765e+00,5.576167695268397946e-06,-5.582565423287223116e-06
2.486507936507936556e+00,5.369043047555849862e-06,-1.920091209582128376e-05
2.487301587301587347e+00,5.210444048892074588e-06,-3.227276928867007757e-05
2.488095238095238138e+00,5.023311107633650517e-06,-4.307893435224891530e-05
2.488888888888888928e+00,4.724059119848139011e-06,-5.015126810957555787e-05
2.489682539682539719e+00,4.222723870717805166e-06,-5.252536473069405458e-05
2.490476190476190510e+00,3.430309462923548210e-06,-4.988818554322925296e-05
2.491269841269841301e+00,2.274618542148481409e-06,-4.260227968805605024e-05
2.492063492063492092e+00,7.221078748441255227e-07,-3.162252861927268680e-05
2.492857142857142883e+00,-1.199306209835784214e-06,-1.833984325361933803e-05
2.493650793650793673e+00,-3.382218511915617111e-06,-4.385795622323122746e-06
2.494444444444444464e+00,-5.631195043126408118e-06,8.578285453487448142e-06
2.495238095238095255e+00,-7.666955494221713572e-06,1.907129231785853547e-05
2.496031746031746046e+00,-9.145865432487580048e-06,2.598226415536909707e-05
2.496825396825396837e+00,-9.697393721030667769e-06,2.871434579963611782e-05
2.497619047619047628e+00,-8.980850136649479689e-06,2.725610893667632450e-05
2.498412698412698418e+00,-6.758040577744897343e-06,2.216299277653703019e-05
2.499206349206349209e+00,-2.971328633085116895e-06,1.444774951403355310e-05
2.500000000000000000e+00,2.190065333916783497e-06,5.396606005936443841e-06
2.500793650793650791e+00,8.256464833420752895e-06,-3.655373266776218859e-06
2.501587301587301582e+00,1.449728254409935726e-05,-1.154340181722108366e-05
2.502380952380952372e+00,2.000735001205711840e-05,-1.743707429833194801e-05
2.503174603174603163e+00,2.385787843809750939e-05,-2.091238027168704959e-05
2.503968253968253954e+00,2.528565307519653466e-05,-2.192231962569505288e-05
2.504761904761904745e+00,2.386975585360928730e-05,-2.069000455746626498e-05
2.505555555555555536e+00,1.963596145335441166e-05,-1.757151511053629234e-05
2.506349206349206327e+00,1.304702151070704135e-05,-1.293890354200401519e-05
2.507142857142857117e+00,4.879247733555922177e-06,-7.117577305502391748e-06
2.507936507936507908e+00,-3.967876166714146071e-06,-3.867012036730043751e-07
2.508730158730158699e+00,-1.265707826671899211e-05,6.972201862675163300e-06
2.509523809523809490e+00,-2.053169091391033324e-05,1.460714540296659803e-05
2.510317460317460281e+00,-2.714398020590101239e-05,2.203999798307302598e-05
2.511111111111111072e+00,-3.221468728176192476e-05,2.865090030551188926e-05
2.511904761904761862e+00,-3.556911360042627767e-05,3.372079846167852523e-05
2.512698412698412653e+00,-3.708890860956082827e-05,3.653417717809280768e-05
2.513492063492063444e+00,-3.669483255665369567e-05,3.652244639655115299e-05
2.514285714285714235e+00,-3.435618090615834752e-05,3.340785648111287978e-05
2.515079365079365026e+00,-3.011793180302385620e-05,2.729931337338266386e-05
2.515873015873015817e+00,-2.414040519361517444e-05,1.870278451441034876e-05
2.516666666666666607e+00,-1.674744602148304332e-05,8.438184586173319609e-06
2.517460317460317398e+00,-8.474972447219771872e-06,-2.510323304421152580e-06
2.518253968253968189e+00,-1.054222466933156794e-07,-1.315918235590143850e-05
2.519047619047618980e+00,7.332266226017024693e-06,-2.265200887438580056e-05
2.519841269841269771e+00,1.262147350734536320e-05,-3.031559611529772901e-05
2.520634920634920562e+00,1.449770985932582435e-05,-3.564696835989603074e-05
2.521428571428571352e+00,1.187710848321615744e-05,-3.826389800758229256e-05
2.522222222222222143e+00,4.152251494542586066e-06,-3.786487033578098582e-05
2.523015873015872934e+00,-8.502493590675980735e-06,-3.423475462651880932e-05
2.523809523809523725e+00,-2.490314260304065516e-05,-2.730583617365573752e-05
2.524603174603174516e+00,-4.279991886141236071e-05,-1.725598043874340272e-05
2.525396825396825307e+00,-5.906337798056287831e-05,-4.609211602314649241e-06
2.526190476190476097e+00,-7.012890174748691947e-05,9.699753963941664151e-06
2.526984126984126888e+00,-7.263960705982716430e-05,2.433103597047188237e-05
2.527777777777777679e+00,-6.415285681517235179e-05,3.763775100566416353e-05
2.528571428571428470e+00,-4.373427579778178012e-05,4.785945464369902123e-05
2.529365079365079261e+00,-1.228222439607280915e-05,5.338754542398699683e-05
2.530158730158730052e+00,2.749590890156521029e-05,5.305485895424712271e-05
2.530952380952380842e+00,7.143330823578409716e-05,4.638767416552202718e-05
2.531746031746031633e+00,1.144833277439863910e-04,3.376106221767962096e-05
2.532539682539682424e+00,1.514120791959970569e-04,1.641757943405565333e-05
2.533333333333333215e+00,1.775048726136005048e-04,-3.663103131515384979e-06
2.534126984126984006e+00,1.892122939859425680e-04,-2.402905866326417403e-05
2.534920634920634797e+00,1.846706634145297784e-04,-4.211788068026284341e-05
2.535714285714285587e+00,1.640226987359310630e-04,-5.565779939476620170e-05
2.536507936507936378e+00,1.294559574269234681e-04,-6.303495179222898183e-05
2.537301587301587169e+00,8.489731464227050065e-05,-6.354904987501125012e-05
2.538095238095237960e+00,3.536772940027402799e-05,-5.749489881222201264e-05
2.538888888888888751e+00,-1.390045976266896172e-05,-4.604617322503435934e-05
2.539682539682539542e+00,-5.839049334779366980e-05,-3.097207553461916232e-05
2.540476190476190332e+00,-9.503768459861986384e-05,-1.426566733069652570e-05
2.541269841269841123e+00,-1.225719332660691371e-04,2.216833185125633718e-06
2.542063492063491914e+00,-1.413625190734171626e-04,1.702059655442365383e-05
2.542857142857142705e+00,-1.528056855478045575e-04,2.921393164899072824e-05
2.543650793650793496e+00,-1.584474375383747356e-04,3.836617733071112830e-05
2.544444444444444287e+00,-1.591442591177485858e-04,4.441881014199056869e-05
2.545238095238095077e+00,-1.545811967382146302e-04,4.750960996128577365e-05
2.546031746031745868e+00,-1.433614612664782994e-04,4.781422391143549477e-05
2.546825396825396659e+00,-1.236740312957750488e-04,4.545597268285215457e-05
2.547619047619047450e+00,-9.430965734071593851e-05,4.050723924801287061e-05
2.548412698412698241e+00,-5.563506080799147338e-05,3.307279006837793290e-05
2.549206349206349032e+00,-1.012891643555892838e-05,2.341731920906033409e-05
2.549999999999999822e+00,3.776356221102769611e-05,1.208405630712939790e-05
2.550793650793650613e+00,8.245583081782340191e-05,-4.816228180799280661e-08
2.551587301587301404e+00,1.184839159490198884e-04,-1.180515380047312145e-05
2.552380952380952195e+00,1.418167787649865920e-04,-2.186151024180548515e-05
2.553174603174602986e+00,1.508060810709774518e-04,-2.896278008059964562e-05
2.553968253968253777e+00,1.464909173463695635e-04,-3.217596741221956944e-05
2.554761904761904567e+00,1.321843665415467148e-04,-3.110915425483568746e-05
2.555555555555555358e+00,1.124891572169638669e-04,-2.604460647138732776e-05
2.556349206349206149e+00,9.204512109237561902e-05,-1.794332349232593816e-05
2.557142857142856940e+00,7.436125943073384169e-05,-8.303279469167141347e-06
2.557936507936507731e+00,6.103213159938307111e-05,1.111489816108002607e-06
2.558730158730158522e+00,5.151485747906185117e-05,8.616069800461905815e-06
2.559523809523809312e+00,4.349109478367286819e-05,1.294285841323649161e-05
2.560317460317460103e+00,3.369195345411747693e-05,1.348857177599573521e-05
2.561111111111110894e+00,1.895054966385011395e-05,1.040921118846336232e-05
2.561904761904761685e+00,-2.804612314404204753e-06,4.543776363998945271e-06
2.562698412698412920e+00,-3.187104128994662077e-05,-2.806898908362597894e-06
2.563492063492063711e+00,-6.655805040488729058e-05,-1.018399762729822272e-05
2.564285714285714501e+00,-1.034477308285525156e-04,-1.627836792553901988e-05
2.565079365079365292e+00,-1.380236459648335741e-04,-2.016950839387598117e-05
2.565873015873016083e+00,-1.654973073032892789e-04,-2.144942690427581274e-05
2.566666666666666874e+00,-1.816592864988183793e-04,-2.021936212898264098e-05
2.567460317460317665e+00,-1.836152128754367431e-04,-1.697850105009584553e-05
2.568253968253968456e+00,-1.703064905201431454e-04,-1.244598082435582312e-05
2.569047619047619246e+00,-1.427445609922050425e-04,-7.369419657710040359e-06
2.569841269841270037e+00,-1.039117772768805698e-04,-2.373122370157685167e-06
2.570634920634920828e+00,-5.831886765858929707e-05,2.115617431449162871e-06
2.571428571428571619e+00,-1.126775515593564614e-05,5.851961251837836906e-06
2.572222222222222410e+00,3.206046848277171535e-05,8.694537306274832493e-06
2.573015873015873201e+00,6.751273111862899007e-05,1.051210922825284497e-05
2.573809523809523991e+00,9.266241722353932894e-05,1.113125745235291614e-05
2.574603174603174782e+00,1.071229545607351656e-04,1.035981212852530639e-05
2.575396825396825573e+00,1.123841142579692156e-04,8.082417467370780042e-06
2.576190476190476364e+00,1.112037257350181549e-04,4.385930448690312506e-06
2.576984126984127155e+00,1.067176925702141110e-04,-3.487251527994879983e-07
2.577777777777777946e+00,1.015187593487740041e-04,-5.444558065586240144e-06
2.578571428571428736e+00,9.696562135608305876e-05,-1.003884837774553296e-05
2.579365079365079527e+00,9.291545973511484600e-05,-1.328136424433016318e-05
2.580158730158730318e+00,8.794677438074202658e-05,-1.455632393504071685e-05
2.580952380952381109e+00,7.999015436975338779e-05,-1.364926482854043393e-05
2.581746031746031900e+00,6.715548051496613130e-05,-1.079695447263426350e-05
2.582539682539682691e+00,4.848161400651631773e-05,-6.600471653019538651e-06
2.583333333333333481e+00,2.437019902618955719e-05,-1.832111640635191998e-06
2.584126984126984272e+00,-3.410268894255406495e-06,2.793866618758209556e-06
2.584920634920635063e+00,-3.210601341085733191e-05,6.803873541377049766e-06
2.585714285714285854e+00,-5.858240925040569526e-05,1.003709077336691889e-05
2.586507936507936645e+00,-7.995283938113990788e-05,1.258634638809342119e-05
2.587301587301587436e+00,-9.407440155944728200e-05,1.463839189057684841e-05
2.588095238095238226e+00,-9.983150385143718935e-05,1.628461164393313882e-05
2.588888888888889017e+00,-9.720430809450958040e-05,1.738694799076574081e-05
2.589682539682539808e+00,-8.716736568019201980e-05,1.756367886201220898e-05
2.590476190476190599e+00,-7.147926832611493290e-05,1.631118431301524570e-05
2.591269841269841390e+00,-5.241674506440597859e-05,1.322006161244519622e-05
2.592063492063492181e+00,-3.249089150401828126e-05,8.202453248820867730e-06
2.592857142857142971e+00,-1.416792780032122238e-05,1.640936520545659423e-06
2.593650793650793762e+00,3.949600074345041948e-07,-5.600935822858823385e-06
2.594444444444444553e+00,9.593630941890277623e-06,-1.231604198557935408e-05
2.595238095238095344e+00,1.259153546422535519e-05,-1.720001348561826646e-05
2.596031746031746135e+00,9.482306481860848841e-06,-1.913776413658567192e-05
2.596825396825396925e+00,1.362477685104968692e-06,-1.745740753544750598e-05
2.597619047619047716e+00,-9.732011072599144191e-06,-1.209641438988712251e-05
2.598412698412698507e+00,-2.106452489691067241e-05,-3.653290270493222513e-06
2.599206349206349298e+00,-2.962126478415531513e-05,6.675818777552920585e-06
2.600000000000000089e+00,-3.267782947221674821e-05,1.726079340971991289e-05
2.600793650793650880e+00,-2.840508829789106972e-05,2.628106747822012588e-05
2.601587301587301670e+00,-1.636232673297857379e-05,3.202409833626062658e-05
2.602380952380952461e+00,2.279487037833622547e-06,3.320226941228651837e-05
2.603174603174603252e+00,2.488575310520153906e-05,2.923369926821327235e-05
2.603968253968254043e+00,4.787401756024079407e-05,2.041922583484447618e-05
2.604761904761904834e+00,6.747848497394108569e-05,7.954237647410023122e-06
2.605555555555555625e+00,8.056318764492781555e-05,-6.252849571615986092e-06
2.606349206349206415e+00,8.526673090456035207e-05,-1.993138716002237044e-05
2.607142857142857206e+00,8.131543611711390175e-05,-3.089203859582461743e-05
2.607936507936507997e+00,6.994760812107972381e-05,-3.745440323123582036e-05
2.608730158730158788e+00,5.350817352664503538e-05,-3.875134101497818690e-05
2.609523809523809579e+00,3.485528045775354209e-05,-3.483869831024185995e-05
2.610317460317460370e+00,1.674551406136531016e-05,-2.659796769500730941e-05
2.611111111111111160e+00,1.338466413653736646e-06,-1.547893442647531708e-05
2.611904761904761951e+00,-1.009296110585435599e-05,-3.167555691594983321e-06
2.612698412698412742e+00,-1.722105616949749622e-05,8.729544486025708121e-06
2.613492063492063533e+00,-2.051851069721801049e-05,1.891482845508875310e-05
2.614285714285714324e+00,-2.097603733609617669e-05,2.651299543864797328e-05
2.615079365079365115e+00,-1.976557462419796046e-05,3.107665826974735098e-05
2.615873015873015905e+00,-1.792947124336936651e-05,3.252251114602043244e-05
2.616666666666666696e+00,-1.615839468495522695e-05,3.104549118673380868e-05
2.617460317460317487e+00,-1.469552674668056089e-05,2.704844149424859913e-05
2.618253968253968278e+00,-1.337647721591825804e-05,2.110245366625555178e-05
2.619047619047619069e+00,-1.178525191475613308e-05,1.392880579768276458e-05
2.619841269841269860e+00,-9.479730323095510633e-06,6.376788860186051119e-06
2.620634920634920650e+00,-6.221748383592078506e-06,-6.310589173990272983e-07
2.621428571428571441e+00,-2.144066212094606570e-06,-6.202752102174776177e-06
2.622222222222222232e+00,2.197617457400074037e-06,-9.623875941802275893e-06
2.623015873015873023e+00,5.908513527126826132e-06,-1.051768975794627992e-05
2.623809523809523814e+00,7.958578318765520252e-06,-8.971050634989940781e-06
2.624603174603174605e+00,7.458244026971709685e-06,-5.576916968367096938e-06
2.625396825396825395e+00,3.938388054398497164e-06,-1.360768395023550669e-06
2.626190476190476186e+00,-2.435560530811327328e-06,2.410439573463336462e-06
2.626984126984126977e+00,-1.077076670084926083e-05,4.501938425466140007e-06
2.627777777777777768e+00,-1.950418910779709776e-05,4.002804698338014346e-06
2.628571428571428559e+00,-2.660943192031645012e-05,5.575273597925412982e-07
2.629365079365079350e+00,-2.992931171754720186e-05,-5.531075809448425269e-06
2.630158730158730140e+00,-2.759394620342032843e-05,-1.336273067641018998e-05
2.630952380952380931e+00,-1.846928762347373285e-05,-2.165036593259011847e-05
2.631746031746031722e+00,-2.561188972323550866e-06,-2.901871337610210973e-05
2.632539682539682513e+00,1.872138184773597584e-05,-3.430167931500013488e-05
2.633333333333333304e+00,4.254784899372372319e-05,-3.675428482263644445e-05
2.634126984126984095e+00,6.497049402963865964e-05,-3.613022576700960120e-05
2.634920634920634885e+00,8.156196150540066250e-05,-3.262668238724067621e-05
2.635714285714285676e+00,8.829444026227606336e-05,-2.674323423958871525e-05
2.636507936507936467e+00,8.246525856061012814e-05,-1.912409913179550022e-05
2.637301587301587258e+00,6.341444291090525770e-05,-1.044446011947491907e-05
2.638095238095238049e+00,3.280752314163089186e-05,-1.367680894706157169e-06
2.638888888888888840e+00,-5.622282113003959202e-06,7.441434534248579328e-06
2.639682539682539630e+00,-4.680744111416564913e-05,1.529033424662138918e-05
2.640476190476190421e+00,-8.534046493722791105e-05,2.146536351007241402e-05
2.641269841269841212e+00,-1.164479758408148839e-04,2.529779698691529463e-05
2.642063492063492003e+00,-1.367008368120160454e-04,2.628480151032410537e-05
2.642857142857142794e+00,-1.443334930393249586e-04,2.423157323948580243e-05
2.643650793650793585e+00,-1.391876976291092464e-04,1.936419177728901543e-05
2.644444444444444375e+00,-1.224078157243477379e-04,1.236508741712262071e-05
2.645238095238095166e+00,-9.606024736243554628e-05,4.303699476171085603e-06
2.646031746031745957e+00,-6.281928793253616756e-05,-3.534029618796650619e-06
2.646825396825396748e+00,-2.577664860262860491e-05,-9.883549677651308200e-06
2.647619047619047539e+00,1.166607936147684057e-05,-1.375317784490437833e-05
2.648412698412698330e+00,4.592741749495979613e-05,-1.462945354474673356e-05
2.649206349206349120e+00,7.350440837325392042e-05,-1.258540892664118807e-05
2.649999999999999911e+00,9.140044601974800303e-05,-8.262988485860106868e-06
2.650793650793650702e+00,9.766285233788611663e-05,-2.731863764570128455e-06
2.651587301587301493e+00,9.188175023569189980e-05,2.743049323886649652e-06
2.652380952380952284e+00,7.546942370440569989e-05,6.974106466398828233e-06
2.653174603174603075e+00,5.158326038667245997e-05,9.107556472529327322e-06
2.653968253968253865e+00,2.465730055648481214e-05,8.813613344328735929e-06
2.654761904761904656e+00,-3.793041026265547369e-07,6.369498982571620687e-06
2.655555555555555447e+00,-1.903756551385056868e-05,2.610106847840712561e-06
2.656349206349206238e+00,-2.816555687991035133e-05,-1.255449715654659596e-06
2.657142857142857029e+00,-2.662262196887700259e-05,-3.931045010626110386e-06
2.657936507936507819e+00,-1.558265383989704416e-05,-4.361787149290923813e-06
2.658730158730158610e+00,1.622742557697547986e-06,-2.021148727263497819e-06
2.659523809523809401e+00,2.012974913605371384e-05,2.921667698002634110e-06
2.660317460317460192e+00,3.454933161482553550e-05,9.604997316431665300e-06
2.661111111111110983e+00,4.017438902546134556e-05,1.665499294300666627e-05
2.661904761904761774e+00,3.413753498413656920e-05,2.250149215031502865e-05
2.662698412698412564e+00,1.625132656022000786e-05,2.575129302059207849e-05
2.663492063492063355e+00,-1.069516204759486592e-05,2.552506399073580293e-05
2.664285714285714146e+00,-4.131183363436048749e-05,2.167282430777748436e-05
2.665079365079364937e+00,-6.864544924822797809e-05,1.481322510489621879e-05
2.665873015873015728e+00,-8.571107340116286707e-05,6.187109610907619884e-06
2.666666666666666519e+00,-8.719558157930956698e-05,-2.634686399576496398e-06
2.667460317460317309e+00,-7.090885238173003785e-05,-1.011040240539074048e-05
2.668253968253968100e+00,-3.855881508317901004e-05,-1.505958082012888800e-05
2.669047619047618891e+00,4.434180551734298055e-06,-1.688817579924045521e-05
2.669841269841269682e+00,5.010876906639323314e-05,-1.566074150539588535e-05
2.670634920634920473e+00,8.984496464338437944e-05,-1.201677816658945242e-05
2.671428571428571264e+00,1.164492745497497383e-04,-6.967199867282710394e-06
2.672222222222222054e+00,1.258549739904959270e-04,-1.632263227005729899e-06
2.673015873015872845e+00,1.179623432209452559e-04,3.010279642694081513e-06
2.673809523809523636e+00,9.641607589818874144e-05,6.307760042052475899e-06
2.674603174603174427e+00,6.744861779940578537e-05,8.010039412275070345e-06
2.675396825396825218e+00,3.818002111638376468e-05,8.236522290989803746e-06
2.676190476190476009e+00,1.486904879150558626e-05,7.356454506991356066e-06
2.676984126984126799e+00,1.549519241462853498e-06,5.825557903062101958e-06
2.677777777777777590e+00,-6.818171360486099374e-07,4.028524426007746049e-06
2.678571428571428381e+00,6.345431269493912622e-06,2.170962994167630640e-06
2.679365079365079172e+00,1.852024964920751475e-05,2.475616618505519635e-07
2.680158730158729963e+00,3.054042093410792532e-05,-1.910193613757848806e-06
2.680952380952380754e+00,3.720915169706690446e-05,-4.525466890602115996e-06
2.681746031746031544e+00,3.468235141827848741e-05,-7.739758266179454953e-06
2.682539682539682335e+00,2.142114356570082504e-05,-1.148820282458140558e-05
2.683333333333333126e+00,-1.351823722248280808e-06,-1.542636253262068144e-05
2.684126984126983917e+00,-2.981009428410054393e-05,-1.894164951127223700e-05
2.684920634920634708e+00,-5.829350475419713107e-05,-2.126346503527493938e-05
2.685714285714285499e+00,-8.055158509790496255e-05,-2.165350329174001081e-05
2.686507936507936289e+00,-9.119796062864488247e-05,-1.962159324861990738e-05
2.687301587301587080e+00,-8.704229807554487595e-05,-1.509303612887037202e-05
2.688095238095238315e+00,-6.797555489251977628e-05,-8.466731529526747867e-06
2.688888888888889106e+00,-3.717966038973086678e-05,-5.457452552097606877e-07
2.689682539682539897e+00,-5.912708131588677635e-07,7.630009721555759290e-06
2.690476190476190688e+00,3.427465480196673531e-05,1.499048706804536113e-05
2.691269841269841478e+00,5.988918142063287921e-05,2.062273400479053165e-05
2.692063492063492269e+00,7.032227672832685344e-05,2.390032121710701572e-05
2.692857142857143060e+00,6.254985513502972255e-05,2.454377503220650877e-05
2.693650793650793851e+00,3.716003702454844919e-05,2.262199635258605352e-05
2.694444444444444642e+00,-1.712526606490112394e-06,1.851373607642505922e-05
2.695238095238095433e+00,-4.723167241671997666e-05,1.284614054155482788e-05
2.696031746031746223e+00,-9.131695117030647654e-05,6.420125869286316069e-06
2.696825396825397014e+00,-1.263894657038247050e-04,1.263124119795773329e-07
2.697619047619047805e+00,-1.469827883205690705e-04,-5.146787633757164374e-06
2.698412698412698596e+00,-1.508007021689823884e-04,-8.609957513087940738e-06
2.699206349206349387e+00,-1.389429955254959954e-04,-9.672121074262884411e-06
2.700000000000000178e+00,-1.152665822920139811e-04,-8.035225776316459202e-06
2.700793650793650968e+00,-8.511640182080910521e-05,-3.775725794133184798e-06
2.701587301587301759e+00,-5.384630255757550939e-05,2.602987545458747888e-06
2.702380952380952550e+00,-2.558497486006074297e-05,1.016924547671647741e-05
2.703174603174603341e+00,-2.580311646619381610e-06,1.763668651909277294e-05
2.703968253968254132e+00,1.476489527460867902e-05,2.352890914040740915e-05
2.704761904761904923e+00,2.728260587222449890e-05,2.643187609226275663e-05
2.705555555555555713e+00,3.613340219020382411e-05,2.530118656064940963e-05
2.706349206349206504e+00,4.194345009259656341e-05,1.975801982145497293e-05
2.707142857142857295e+00,4.428582083007872575e-05,1.028294092203623294e-05
2.707936507936508086e+00,4.169590917363060688e-05,-1.781896820140819592e-06
2.708730158730158877e+00,3.225199270859592233e-05,-1.447069197015794336e-05
2.709523809523809668e+00,1.457460457086974066e-05,-2.564295138703615465e-05
2.710317460317460458e+00,-1.106069179139088984e-05,-3.352596407073839675e-05
2.711111111111111249e+00,-4.189673876796476501e-05,-3.717566369292612686e-05
2.711904761904762040e+00,-7.253840087911381522e-05,-3.668971276168590232e-05
2.712698412698412831e+00,-9.569952754680825975e-05,-3.308929917327992109e-05
2.713492063492063622e+00,-1.038125385043748688e-04,-2.791145136101991415e-05
2.714285714285714413e+00,-9.112909275306629636e-05,-2.266613733670554164e-05
2.715079365079365203e+00,-5.567645062523047638e-05,-1.836133396036400756e-05
2.715873015873015994e+00,-3.771930514564582809e-07,-1.526455112256054001e-05
2.716666666666666785e+00,6.714207625209124520e-05,-1.296887252155277391e-05
2.717460317460317576e+00,1.361001768091421712e-04,-1.070981484458928293e-05
2.718253968253968367e+00,1.950478418576894672e-04,-7.786768989816976602e-06
2.719047619047619158e+00,2.345439652380363704e-04,-3.916008352363852408e-06
2.719841269841269948e+00,2.492171929353070902e-04,6.125474795744602094e-07
2.720634920634920739e+00,2.386469172745028734e-04,5.013826229292230102e-06
2.721428571428571530e+00,2.069304614121040534e-04,8.273120803451511557e-06
2.722222222222222321e+00,1.612343524971619204e-04,9.496889313870513717e-06
2.723015873015873112e+00,1.098790830227455619e-04,8.233476105581284048e-06
2.723809523809523903e+00,6.052154795571098954e-05,4.666436689579834195e-06
2.724603174603174693e+00,1.884106320288544170e-05,-3.762293552410569121e-07
2.725396825396825484e+00,-1.208885043196318135e-05,-5.600257076365886174e-06
2.726190476190476275e+00,-3.176399049397741971e-05,-9.561668240980861040e-06
2.726984126984127066e+00,-4.170876722629522556e-05,-1.103570128096119568e-05
2.727777777777777857e+00,-4.465888613904296075e-05,-9.339736613377243337e-06
2.728571428571428648e+00,-4.369962253011758024e-05,-4.525295293604621728e-06
2.729365079365079438e+00,-4.154874222921318608e-05,2.611910596993595731e-06
2.730158730158730229e+00,-4.009969048425954843e-05,1.070912946158284223e-05
2.730952380952381020e+00,-4.025765205670534690e-05,1.815798085049665124e-05
2.731746031746031811e+00,-4.202908933070677246e-05,2.348752742451020814e-05
2.732539682539682602e+00,-4.477968304484145773e-05,2.570755217155179832e-05
2.733333333333333393e+00,-4.756211451009644930e-05,2.452125328196043923e-05
2.734126984126984183e+00,-4.942882512912359156e-05,2.035580667865927271e-05
2.734920634920634974e+00,-4.967320106244822920e-05,1.421480055315293989e-05
2.735714285714285765e+00,-4.797255865586600739e-05,7.409035941994361156e-06
2.736507936507936556e+00,-4.443000962172987208e-05,1.252498815625362216e-06
2.737301587301587347e+00,-3.952769968851002809e-05,-3.192129985840695164e-06
2.738095238095238138e+00,-3.401212294043220004e-05,-5.265536459015846331e-06
2.738888888888888928e+00,-2.873523991531158088e-05,-4.752488269471425857e-06
2.739682539682539719e+00,-2.447542402674626316e-05,-1.838489319138586407e-06
2.740476190476190510e+00,-2.176244107834647410e-05,2.975299450085645232e-06
2.741269841269841301e+00,-2.073229835994234722e-05,8.964012362354832069e-06
2.742063492063492092e+00,-2.104000298189297332e-05,1.526384152124485142e-05
2.742857142857142883e+00,-2.185754509294321951e-05,2.095548628267745732e-05
2.743650793650793673e+00,-2.197644425444088319e-05,2.515939277362643251e-05
2.744444444444444464e+00,-2.001700001879519179e-05,2.714762164836291602e-05
2.745238095238095255e+00,-1.472267417397155769e-05,2.646077280568925476e-05
2.746031746031746046e+00,-5.294069948061302839e-06,2.300485670532753381e-05
2.746825396825396837e+00,8.301292382164675209e-06,1.709930012473647476e-05
2.747619047619047628e+00,2.511667920272920321e-05,9.454194769278148703e-06
2.748412698412698418e+00,4.318341575727390765e-05,1.069742785896013885e-06
2.749206349206349209e+00,5.969366240358288487e-05,-6.930090038526799871e-06
2.750000000000000000e+00,7.142634408660812736e-05,-1.349910380050232641e-05
2.750793650793650791e+00,7.537039828100754462e-05,-1.786263235115116745e-05
2.751587301587301582e+00,6.942325571332123434e-05,-1.965950982946308685e-05
2.752380952380952372e+00,5.298473247020355609e-05,-1.899958229131418441e-05
2.753174603174603163e+00,2.726319781727142339e-05,-1.642453219892071989e-05
2.753968253968253954e+00,-4.821380756856557178e-06,-1.278272192587919674e-05
2.754761904761904745e+00,-3.913227205176284895e-05,-9.047477364363717465e-06
2.755555555555555536e+00,-7.107828254928850390e-05,-6.118235368275365863e-06
2.756349206349206327e+00,-9.643735661862170281e-05,-4.644069327005602641e-06
2.757142857142857117e+00,-1.120374645519840100e-04,-4.901062699688026094e-06
2.757936507936507908e+00,-1.161601910185818378e-04,-6.742377838794221601e-06
2.758730158730158699e+00,-1.086327739326216563e-04,-9.626416864257435378e-06
2.759523809523809490e+00,-9.066637244342060260e-05,-1.271684790842311041e-05
2.760317460317460281e+00,-6.455239576601445775e-05,-1.503908565645933516e-05
2.761111111111111072e+00,-3.332954343828079078e-05,-1.566972531771743894e-05
2.761904761904761862e+00,-4.869709971966016303e-07,-1.392791837532253865e-05
2.762698412698412653e+00,3.029920201772295316e-05,-9.533993733913795804e-06
2.763492063492063444e+00,5.544969752793079814e-05,-2.705009333229825677e-06
2.764285714285714235e+00,7.184269312735845430e-05,5.831754182840258201e-06
2.765079365079365026e+00,7.725654320844699426e-05,1.491428798817072343e-05
2.765873015873015817e+00,7.081965437425103479e-05,2.310760550598718176e-05
2.766666666666666607e+00,5.332844474726444267e-05,2.893780843568805370e-05
2.767460317460317398e+00,2.728737502058013652e-05,3.116748433104550619e-05
2.768253968253968189e+00,-3.411369003193953568e-06,2.906196751169840085e-05
2.769047619047618980e+00,-3.413897168150676508e-05,2.258420437523512534e-05
2.769841269841269771e+00,-6.036837027058413374e-05,1.246122502709889836e-05
2.770634920634920562e+00,-7.848947263963576256e-05,9.027530245538838091e-08
2.771428571428571352e+00,-8.639895159868705109e-05,-1.270770160338187156e-05
2.772222222222222143e+00,-8.373893256964228091e-05,-2.403687392103514588e-05
2.773015873015872934e+00,-7.176732354287984432e-05,-3.229590261786240564e-05
2.773809523809523725e+00,-5.293879404274441891e-05,-3.647840136686549624e-05
2.774603174603174516e+00,-3.032955286002603335e-05,-3.633520962752699693e-05
2.775396825396825307e+00,-7.044294637375877192e-06,-3.236955533866731251e-05
2.776190476190476097e+00,1.428597913627224890e-05,-2.567957497839030116e-05
2.776984126984126888e+00,3.184693131510923269e-05,-1.769426050487793697e-05
2.777777777777777679e+00,4.478906254337584089e-05,-9.864161336952311383e-06
2.778571428571428470e+00,5.317001468890355706e-05,-3.370318248914240635e-06
2.779365079365079261e+00,5.771036134713492752e-05,1.091406193862099080e-06
2.780158730158730052e+00,5.942861094434067791e-05,3.406525914578602805e-06
2.780952380952380842e+00,5.926921669726719727e-05,3.997239623510637075e-06
2.781746031746031633e+00,5.785027040695194000e-05,3.649799632357097782e-06
2.782539682539682424e+00,5.540808972365323255e-05,3.264985161617536079e-06
2.783333333333333215e+00,5.192243992745040719e-05,3.606343534202696089e-06
2.784126984126984006e+00,4.732695544745497279e-05,5.115789862670024311e-06
2.784920634920634797e+00,4.169229503625254284e-05,7.835002145202964340e-06
2.785714285714285587e+00,3.531137862180810824e-05,1.143058140901912695e-05
2.786507936507936378e+00,2.867549866221184691e-05,1.528977943576515934e-05
2.787301587301587169e+00,2.237143542154152454e-05,1.864342142126264011e-05
2.788095238095237960e+00,1.694462511188866681e-05,2.068531861856906507e-05
2.788888888888888751e+00,1.277060477161583595e-05,2.068322906402883131e-05
2.789682539682539542e+00,9.965687589961286593e-06,1.809547692824014142e-05
2.790476190476190332e+00,8.353611936395247641e-06,1.270183138643976703e-05
2.791269841269841123e+00,7.491863147821360695e-06,4.728559988430579929e-06
2.792063492063491914e+00,6.752134643130223375e-06,-5.080921318589990173e-06
2.792857142857142705e+00,5.443194056760513053e-06,-1.550104826645728754e-05
2.793650793650793496e+00,2.958618593659408304e-06,-2.498721494469816545e-05
2.794444444444444287e+00,-1.074018646572873254e-06,-3.194547736215368482e-05
2.795238095238095077e+00,-6.669939381944308646e-06,-3.505068372432270805e-05
2.796031746031745868e+00,-1.341811643691608585e-05,-3.353921638107490129e-05
2.796825396825396659e+00,-2.049161027544714502e-05,-2.740824600220981622e-05
2.797619047619047450e+00,-2.675395710877286488e-05,-1.747222026134203095e-05
2.798412698412698241e+00,-3.096151469964696123e-05,-5.252203462556420541e-06
2.799206349206349032e+00,-3.203687803791456149e-05,7.295484677357093919e-06
2.799999999999999822e+00,-2.936110595918304647e-05,1.816707262651629930e-05
2.800793650793650613e+00,-2.301194955383167236e-05,2.573368786350608642e-05
2.801587301587301404e+00,-1.387083315501336822e-05,2.909406298386898456e-05
2.802380952380952195e+00,-3.538876477700636663e-06,2.826011281205262124e-05
2.803174603174602986e+00,5.956403914655345854e-06,2.411675454386950476e-05
2.803968253968253777e+00,1.262136269581510475e-05,1.815869053868339515e-05
2.804761904761904567e+00,1.501743954913667871e-05,1.207254446385091073e-05
2.805555555555555358e+00,1.269770572426296774e-05,7.282327615148845334e-06
2.806349206349206149e+00,6.420027206574797569e-06,4.591750969747710010e-06
2.807142857142856940e+00,-1.947170184416545833e-06,4.028469425863973605e-06
2.807936507936507731e+00,-9.828354337484104372e-06,4.928819806166588713e-06
2.808730158730158522e+00,-1.457294325131853112e-05,6.221104758616278444e-06
2.809523809523809312e+00,-1.417233013141760753e-05,6.803546270845122551e-06
2.810317460317460103e+00,-7.884714031339879432e-06,5.893303815177521952e-06
2.811111111111110894e+00,3.405688989800259825e-06,3.247544433570878993e-06
2.811904761904761685e+00,1.722029287084979245e-05,-7.910948230168402829e-07
2.812698412698412920e+00,2.994439225656495387e-05,-5.417163882318046098e-06
2.813492063492063711e+00,3.763738749894764184e-05,-9.602022063937506888e-06
2.814285714285714501e+00,3.701919260261508275e-05,-1.237387466932398728e-05
2.815079365079365292e+00,2.639330904470162998e-05,-1.305851774504504764e-05
2.815873015873016083e+00,6.262624792386623229e-06,-1.142104834527456397e-05
2.816666666666666874e+00,-2.054180578167299234e-05,-7.684892289297914385e-06
2.817460317460317665e+00,-4.928041286867600396e-05,-2.442957678239317037e-06
2.818253968253968456e+00,-7.419915025033490489e-05,3.496891712167642575e-06
2.819047619047619246e+00,-8.971065554440206655e-05,9.280928134739979986e-06
2.819841269841270037e+00,-9.160767725139415851e-05,1.415109617983041388e-05
2.820634920634920828e+00,-7.803926237138785642e-05,1.753638464933192007e-05
2.821428571428571619e+00,-5.001950757424084026e-05,1.909170259172384500e-05
2.822222222222222410e+00,-1.133075563067615187e-05,1.869629568568628510e-05
2.823015873015873201e+00,3.218195750309099765e-05,1.643027611700584678e-05
2.823809523809523991e+00,7.377675295342022799e-05,1.254699014213568571e-05
2.824603174603174782e+00,1.071644370221296044e-04,7.451410339569930198e-06
2.825396825396825573e+00,1.277049174612567288e-04,1.682544568835003045e-06
2.826190476190476364e+00,1.331555731819550868e-04,-4.113642513460853095e-06
2.826984126984127155e+00,1.238204495555497047e-04,-9.237684360341804580e-06
2.827777777777777946e+00,1.021423638463466322e-04,-1.302416577560510742e-05
2.828571428571428736e+00,7.193655399387323369e-05,-1.495280507579311686e-05
2.829365079365079527e+00,3.752060824438828012e-05,-1.475586077235073945e-05
2.830158730158730318e+00,2.951331579291795130e-06,-1.249009975576325644e-05
2.830952380952381109e+00,-2.851321747145447593e-05,-8.550781902605019685e-06
2.831746031746031900e+00,-5.469287261321718256e-05,-3.621195565211220853e-06
2.832539682539682691e+00,-7.452365970286696441e-05,1.433814593623698560e-06
2.833333333333333481e+00,-8.789876602882483589e-05,5.711725679923716920e-06
2.834126984126984272e+00,-9.537201459599137481e-05,8.429129230315478109e-06
2.834920634920635063e+00,-9.779817254478149655e-05,9.063941017967859420e-06
2.835714285714285854e+00,-9.599308143496422779e-05,7.455557832058234106e-06
2.836507936507936645e+00,-9.049244623540335158e-05,3.840411489286594621e-06
2.837301587301587436e+00,-8.146677289128339931e-05,-1.188437681938371393e-06
2.838095238095238226e+00,-6.881137409552447138e-05,-6.792902944862483137e-06
2.838888888888889017e+00,-5.238226960458210239e-05,-1.205094626721724226e-05
2.839682539682539808e+00,-3.230724851466813455e-05,-1.613275104413760454e-05
2.840476190476190599e+00,-9.280709325018390548e-06,-1.845331800370117575e-05
2.841269841269841390e+00,1.524798436148289589e-05,-1.876817283515049231e-05
2.842063492063492181e+00,3.906814204790608398e-05,-1.719242862259279239e-05
2.842857142857142971e+00,5.943129280054513581e-05,-1.414213911755176743e-05
2.843650793650793762e+00,7.350249254051636333e-05,-1.021648637506710847e-05
2.844444444444444553e+00,7.896251739924511871e-05,-6.054365154171539862e-06
2.845238095238095344e+00,7.460711120398777615e-05,-2.204067070646791792e-06
2.846031746031746135e+00,6.075223790084482035e-05,9.623162960445540531e-07
2.846825396825396925e+00,3.929125409195223848e-05,3.275075084820396332e-06
2.847619047619047716e+00,1.335851486651448402e-05,4.739053390740625899e-06
2.848412698412698507e+00,-1.331165068860607814e-05,5.472569322726362321e-06
2.849206349206349298e+00,-3.714328922613776342e-05,5.639342192089470504e-06
2.850000000000000089e+00,-5.538391394916340852e-05,5.395239799748062741e-06
2.850793650793650880e+00,-6.651641599112191844e-05,4.861075637900908860e-06
2.851587301587301670e+00,-7.035161622752429439e-05,4.121061227369622608e-06
2.852380952380952461e+00,-6.783157338200347935e-05,3.238065593633428587e-06
2.853174603174603252e+00,-6.064020101702164068e-05,2.273515738587100178e-06
2.853968253968254043e+00,-5.074178812870529069e-05,1.301024705493898830e-06
2.854761904761904834e+00,-3.995658956766229714e-05,4.069251191266684642e-07
2.855555555555555625e+00,-2.965079749707675099e-05,-3.234898636842160355e-07
2.856349206349206415e+00,-2.057923663990230849e-05,-8.290926329973914464e-07
2.857142857142857206e+00,-1.288262757163784998e-05,-1.095675473902995161e-06
2.857936507936507997e+00,-6.213418282335217229e-06,-1.167360148580625097e-06
2.858730158730158788e+00,5.315097299365793207e-08,-1.139032778648133221e-06
2.859523809523809579e+00,6.574373730033033754e-06,-1.128801627106094657e-06
2.860317460317460370e+00,1.381413556536125930e-05,-1.236778616037993554e-06
2.861111111111111160e+00,2.188109416359468629e-05,-1.502209368229995160e-06
2.861904761904761951e+00,3.046150758680562051e-05,-1.873669324360598077e-06
2.862698412698412742e+00,3.885645262047091074e-05,-2.205636311735487398e-06
2.863492063492063533e+00,4.611144125795117098e-05,-2.288737507703288917e-06
2.864285714285714324e+00,5.120928414485380873e-05,-1.911101960632540193e-06
2.865079365079365115e+00,5.328722474654077473e-05,-9.368823699759588526e-07
2.865873015873015905e+00,5.183691103277945857e-05,6.211972557968423002e-07
2.866666666666666696e+00,4.685037171761084816e-05,2.561619674754186880e-06
2.867460317460317487e+00,3.888586971482302536e-05,4.507214154129357295e-06
2.868253968253968278e+00,2.904079138615677113e-05,5.978676825473118864e-06
2.869047619047619069e+00,1.883071920034987305e-05,6.515919969731817478e-06
2.869841269841269860e+00,9.984621036747172581e-06,5.816351888585221713e-06
2.870634920634920650e+00,4.178561458820339397e-06,3.849631271842081186e-06
2.871428571428571441e+00,2.744790128226310836e-06,9.114607372182388432e-07
2.872222222222222232e+00,6.405587599871069770e-06,-2.406493414381295899e-06
2.873015873015873023e+00,1.508708352557501276e-05,-5.331197916539623036e-06
2.873809523809523814e+00,2.786409342119969344e-05,-7.083650497956527985e-06
2.874603174603174605e+00,4.306972182618843146e-05,-7.072359262840169510e-06
2.875396825396825395e+00,5.856981147920352273e-05,-5.054875653386231954e-06
2.876190476190476186e+00,7.215414329161391304e-05,-1.223826182466877720e-06
2.876984126984126977e+00,8.194763992209608673e-05,3.808021482314489785e-06
2.877777777777777768e+00,8.672082647603457904e-05,9.123960182976980501e-06
2.878571428571428559e+00,8.600154281951326155e-05,1.369459125159033184e-05
2.879365079365079350e+00,7.996011182630488937e-05,1.659729819645701590e-05
2.880158730158730140e+00,6.913134357850124728e-05,1.721087794156999151e-05
2.880952380952380931e+00,5.410722826568880342e-05,1.534405205308678679e-05
2.881746031746031722e+00,3.534693770761084967e-05,1.127836873299808005e-05
2.882539682539682513e+00,1.319267258304547475e-05,5.723037116709085638e-06
2.883333333333333304e+00,-1.192472514839094944e-05,-3.137303018807763816e-07
2.884126984126984095e+00,-3.920332882665814007e-05,-5.724952902764843508e-06
2.884920634920634885e+00,-6.726303043703030660e-05,-9.546699709765822087e-06
2.885714285714285676e+00,-9.413354138452638973e-05,-1.118872362350768948e-05
2.886507936507936467e+00,-1.174743249976596102e-04,-1.059111658499112102e-05
2.887301587301587258e+00,-1.349683888064492074e-04,-8.257423583641060390e-06
2.888095238095238049e+00,-1.447663346389796966e-04,-5.147069148122641607e-06
2.888888888888888840e+00,-1.458474628052812416e-04,-2.449258274787206205e-06
2.889682539682539630e+00,-1.382057496689549202e-04,-1.293678536561997319e-06
2.890476190476190421e+00,-1.228305458061539502e-04,-2.470311574021359354e-06
2.891269841269841212e+00,-1.015074389559193719e-04,-6.227311336159433740e-06
2.892063492063492003e+00,-7.650172603204649971e-05,-1.219447246992809216e-05
2.892857142857142794e+00,-5.020211992349338860e-05,-1.944632791566674727e-05
2.893650793650793585e+00,-2.479640450694877804e-05,-2.668228888085472634e-05
2.894444444444444375e+00,-2.030642653469746810e-06,-3.247386988756484539e-05
2.895238095238095166e+00,1.692078907955492573e-05,-3.552179847086069293e-05
2.896031746031745957e+00,3.147121761037546307e-05,-3.487839715437277086e-05
2.896825396825396748e+00,4.154508342675006244e-05,-3.010990756648953003e-05
2.897619047619047539e+00,4.745028322103123048e-05,-2.138527061676048245e-05
2.898412698412698330e+00,4.974604342866100485e-05,-9.480067495634524681e-06
2.899206349206349120e+00,4.913728787649659436e-05,4.313979648691988206e-06
2.899999999999999911e+00,4.639870262458183319e-05,1.837341997306217778e-05
2.900793650793650702e+00,4.231019155537097775e-05,3.100202313811567642e-05
2.901587301587301493e+00,3.758514409840283364e-05,4.072381178320666473e-05
2.902380952380952284e+00,3.279352328985493876e-05,4.655351087755464255e-05
2.903174603174603075e+00,2.830600519640703524e-05,4.818179665724741842e-05
2.903968253968253865e+00,2.429082600275632895e-05,4.602207994560944591e-05
2.904761904761904656e+00,2.077198609651687548e-05,4.109362433605901540e-05
2.905555555555555447e+00,1.772005688109328346e-05,3.475899112507792565e-05
2.906349206349206238e+00,1.512389500144027176e-05,2.837888379729650121e-05
2.907142857142857029e+00,1.300237883241098938e-05,2.297693070539601678e-05
2.907936507936507819e+00,1.135313227740151042e-05,1.900806098380900772e-05
2.908730158730158610e+00,1.007493364197294126e-05,1.629445241427193906e-05
2.909523809523809401e+00,8.919127162121866795e-06,1.414175315413498059e-05
2.910317460317460192e+00,7.515036497772586994e-06,1.159415298179781218e-05
2.911111111111110983e+00,5.481617028296153739e-06,7.749726992716394393e-06
2.911904761904761774e+00,2.596456120589970840e-06,2.046907072286310341e-06
2.912698412698412564e+00,-1.040041562480484511e-06,-5.553772675324744136e-06
2.913492063492063355e+00,-4.919003711782888257e-06,-1.453812116947621019e-05
2.914285714285714146e+00,-8.173044390762102454e-06,-2.396032895349146488e-05
2.915079365079364937e+00,-9.778156897876012126e-06,-3.267647904940791344e-05
2.915873015873015728e+00,-8.872586294314525375e-06,-3.961356968468975694e-05
2.916666666666666519e+00,-5.113113807044217677e-06,-4.399178084875313545e-05
2.917460317460317309e+00,1.034748971549452800e-06,-4.544250927317066183e-05
2.918253968253968100e+00,8.172767833820741482e-06,-4.400725582212086618e-05
2.919047619047618891e+00,1.408258599712466164e-05,-4.004282391704507737e-05
2.919841269841269682e+00,1.609605859936249388e-05,-3.408222826058783663e-05
2.920634920634920473e+00,1.168509716441359902e-05,-2.670248766015470915e-05
2.921428571428571264e+00,-8.275822827209937259e-07,-1.843243778880487122e-05
2.922222222222222054e+00,-2.158752395139900646e-05,-9.707573686250370732e-06
2.923015873015872845e+00,-4.873934553761334897e-05,-8.606715579340656092e-07
2.923809523809523636e+00,-7.834535510996542282e-05,7.865577266237857898e-06
2.924603174603174427e+00,-1.048114627691371754e-04,1.629021752661429683e-05
2.925396825396825218e+00,-1.218312093426652252e-04,2.425041853107977815e-05
2.926190476190476009e+00,-1.237151123109250090e-04,3.154542902014921692e-05
2.926984126984126799e+00,-1.068301220228701123e-04,3.787986672060106563e-05
2.927777777777777590e+00,-7.078257729757663277e-05,4.282721329833849328e-05
2.928571428571428381e+00,-1.898548415185469051e-05,4.583692415961532955e-05
2.929365079365079172e+00,4.162383553201595476e-05,4.630069273348475206e-05
2.930158730158729963e+00,1.017360362814818774e-04,4.367642415322709441e-05
2.930952380952380754e+00,1.514771352111654113e-04,3.764849017525293597e-05
2.931746031746031544e+00,1.824709961173907543e-04,2.828691374663326540e-05
2.932539682539682335e+00,1.896722546429466445e-04,1.616044655618946116e-05
2.933333333333333126e+00,1.725221808136328237e-04,2.360714854260376234e-06
2.934126984126983917e+00,1.351293621039677414e-04,-1.159168193238800590e-05
2.934920634920634708e+00,8.540086490703808163e-05,-2.396232814810484504e-05
2.935714285714285499e+00,3.329543974001675802e-05,-3.310881551979699255e-05
2.936507936507936289e+00,-1.141333155124459797e-05,-3.781532145027390670e-05
2.937301587301587080e+00,-4.133866509245108685e-05,-3.757626058996576472e-05
2.938095238095238315e+00,-5.310880499293834983e-05,-3.275090745940206554e-05
2.938888888888889106e+00,-4.801579119223010634e-05,-2.453250644143027762e-05
2.939682539682539897e+00,-3.152599057937362795e-05,-1.471601744717382184e-05
2.940476190476190688e+00,-1.178181057356863495e-05,-5.303844138467338319e-06
2.941269841269841478e+00,2.528451197136063892e-06,1.955501695217410556e-06
2.942063492063492269e+00,4.406700320394929094e-06,5.968266739812020671e-06
2.942857142857143060e+00,-9.660228979996556757e-06,6.518020501772068665e-06
2.943650793650793851e+00,-3.878417294372494693e-05,4.244197279087867740e-06
2.944444444444444642e+00,-7.785440313722071242e-05,3.861519062448082239e-07
2.945238095238095433e+00,-1.187483241491681552e-04,-3.625576674118563380e-06
2.946031746031746223e+00,-1.522424851983687300e-04,-6.602546134662044079e-06
2.946825396825397014e+00,-1.701140928446350203e-04,-7.921706704112041781e-06
2.947619047619047805e+00,-1.668974729247131963e-04,-7.642107396754047578e-06
2.948412698412698596e+00,-1.409020781372170340e-04,-6.390245928600791135e-06
2.949206349206349387e+00,-9.435222794940118342e-05,-5.070439190372069227e-06
2.950000000000000178e+00,-3.276048499920900485e-05,-4.515172930192769709e-06
2.950793650793650968e+00,3.620416435501997826e-05,-5.201618774567388421e-06
2.951587301587301759e+00,1.040641896701496204e-04,-7.121318011175912771e-06
2.952380952380952550e+00,1.628468345447422235e-04,-9.822012422242293458e-06
2.953174603174603341e+00,2.061639575728772041e-04,-1.257714715288113299e-05
2.953968253968254132e+00,2.299200647856562175e-04,-1.460591880494907863e-05
2.954761904761904923e+00,2.325944817288827526e-04,-1.527120821256476360e-05
2.955555555555555713e+00,2.151374687626415340e-04,-1.421068586513785464e-05
2.956349206349206504e+00,1.805841735279080167e-04,-1.138694449632561961e-05
2.957142857142857295e+00,1.335015779087465545e-04,-7.063294898573368156e-06
2.957936507936508086e+00,7.935650075351449078e-05,-1.723346225665512464e-06
2.958730158730158877e+00,2.386083367789638233e-05,4.040331524741358485e-06
2.959523809523809668e+00,-2.766405413918790213e-05,9.639149721103770866e-06
2.960317460317460458e+00,-7.085862817241671697e-05,1.457546410144190190e-05
2.961111111111111249e+00,-1.027783142732951565e-04,1.848547360633742283e-05
2.961904761904762040e+00,-1.221692984155294448e-04,2.113595048627221512e-05
2.962698412698412831e+00,-1.295126213651827255e-04,2.239006454000521757e-05
2.963492063492063622e+00,-1.268059118668363693e-04,2.216903557852901860e-05
2.964285714285714413e+00,-1.170986212445835771e-04,2.043607833016778690e-05
2.965079365079365203e+00,-1.038534429248980085e-04,1.721615526067359991e-05
2.965873015873015994e+00,-9.025226274277229797e-05,1.264436008816237671e-05
2.966666666666666785e+00,-7.858650624186136111e-05,7.016548472615298434e-06
2.967460317460317576e+00,-6.986613058801574095e-05,8.082753748492594626e-07
2.968253968253968367e+00,-6.374439824500636737e-05,-5.361845642764983652e-06
2.969047619047619158e+00,-5.878313523610720728e-05,-1.082388224523546976e-05
2.969841269841269948e+00,-5.298860838389205354e-05,-1.497691629535271728e-05
2.970634920634920739e+00,-4.446585321283796872e-05,-1.739833830514494372e-05
2.971428571428571530e+00,-3.200583139261139494e-05,-1.790885519390099758e-05
2.972222222222222321e+00,-1.545029694776407639e-05,-1.658041341599279859e-05
2.973015873015873112e+00,4.241447413492173257e-06,-1.369601358710861173e-05
2.973809523809523903e+00,2.520671158139336292e-05,-9.682599180399327162e-06
2.974603174603174693e+00,4.508470655659840268e-05,-5.038103070686842508e-06
2.975396825396825484e+00,6.148900950398877602e-05,-2.661922501159472557e-07
2.976190476190476275e+00,7.243001871921761893e-05,4.175889856263410895e-06
2.976984126984127066e+00,7.661108587304655019e-05,7.916022543773627623e-06
2.977777777777777857e+00,7.357886549271343312e-05,1.069403160944961378e-05
2.978571428571428648e+00,6.375114046107192530e-05,1.237812141290285949e-05
2.979365079365079438e+00,4.835136585189603125e-05,1.297080722072503808e-05
2.980158730158730229e+00,2.925804945348313128e-05,1.260208899959274563e-05
2.980952380952381020e+00,8.763426614203064299e-06,1.150694140791735771e-05
2.981746031746031811e+00,-1.074750253450987243e-05,9.986753515265636176e-06
2.982539682539682602e+00,-2.715002907198758048e-05,8.359377837043327353e-06
2.983333333333333393e+00,-3.889011766149805298e-05,6.906747932645880515e-06
2.984126984126984183e+00,-4.518031846117504446e-05,5.829911852694032623e-06
2.984920634920634974e+00,-4.604179349349340030e-05,5.219071762953774756e-06
2.985714285714285765e+00,-4.219704952904482220e-05,5.042987335645869553e-06
2.986507936507936556e+00,-3.485385856098303654e-05,5.159230770360161059e-06
2.987301587301587347e+00,-2.543903059513786478e-05,5.344018936047948917e-06
2.988095238095238138e+00,-1.534199718131170015e-05,5.337269150776558775e-06
2.988888888888888928e+00,-5.716815612031786961e-06,4.895631971704538514e-06
2.989682539682539719e+00,2.629023242820303102e-06,3.844565299758149560e-06
2.990476190476190510e+00,9.255154941531933989e-06,2.120663782319527502e-06
2.991269841269841301e+00,1.403678952584189148e-05,-2.027742551200270154e-07
2.992063492063492092e+00,1.707322586617884580e-05,-2.911569133025488435e-06
2.992857142857142883e+00,1.859036715597249832e-05,-5.670247365103610042e-06
2.993650793650793673e+00,1.886254575458564788e-05,-8.065027899896731286e-06
2.994444444444444464e+00,1.816505014280897547e-05,-9.665686407109765285e-06
2.995238095238095255e+00,1.675536786292410385e-05,-1.009742592826357391e-05
2.996031746031746046e+00,1.487238842224416131e-05,-9.111874721780691683e-06
2.996825396825396837e+00,1.274033785504939770e-05,-6.647084914189762882e-06
2.997619047619047628e+00,1.056763339450488252e-05,-2.867879137411038112e-06
2.998412698412698418e+00,8.537660726044170710e-06,1.821417925841572712e-06
2.999206349206349209e+00,6.794792950206910441e-06,6.799608825941261356e-06
3.000000000000000000e+00,5.431735452392140975e-06,1.129328042612488556e-05
3.000793650793650791e+00,4.483403324690382587e-06,1.448586356800344029e-05
3.001587301587301582e+00,3.930243220292518330e-06,1.566327073221185877e-05
3.002380952380952372e+00,3.711753122029366391e-06,1.437280327146790901e-05
3.003174603174603163e+00,3.748372547197624667e-06,1.055798556501088311e-05
3.003968253968253954e+00,3.966264138305627034e-06,4.628642153857422603e-06
3.004761904761904745e+00,4.316407927115290013e-06,-2.562915415979169419e-06
3.005555555555555536e+00,4.779894648437446600e-06,-9.846220691643064500e-06
3.006349206349206327e+00,5.356500935312415382e-06,-1.593887544378433466e-05
3.007142857142857117e+00,6.041193930084222678e-06,-1.969537835772325484e-05
3.007936507936507908e+00,6.798998330221496698e-06,-2.034760744221847045e-05
3.008730158730158699e+00,7.549726696035404461e-06,-1.768482011082549794e-05
3.009523809523809490e+00,8.170218396340567766e-06,-1.213012741370149780e-05
3.010317460317460281e+00,8.515201337568193402e-06,-4.689241848660061549e-06
3.011111111111111072e+00,8.451779023978737198e-06,3.225834955678104881e-06
3.011904761904761862e+00,7.898671268728493897e-06,1.006589301622151322e-05
3.012698412698412653e+00,6.859651824634713436e-06,1.445004634267493735e-05
3.013492063492063444e+00,5.440739947976698888e-06,1.544085563624500370e-05
3.014285714285714235e+00,3.843073762308642715e-06,1.272915268836885017e-05
3.015079365079365026e+00,2.328657877684482054e-06,6.691266418726421959e-06
3.015873015873015817e+00,1.163896850210880917e-06,-1.688406940001264388e-06
3.016666666666666607e+00,5.539649064779372561e-07,-1.100868257746616453e-05
3.017460317460317398e+00,5.865069255280791355e-07,-1.971647823964528873e-05
3.018253968253968189e+00,1.203304890106188853e-06,-2.639425819578715358e-05
3.019047619047618980e+00,2.212850686400263797e-06,-3.001505817552343629e-05
3.019841269841269771e+00,3.346622219801052282e-06,-3.011417170159934290e-05
3.020634920634920562e+00,4.349128911758404450e-06,-2.684181306221246252e-05
3.021428571428571352e+00,5.078716058952356186e-06,-2.088764321043990526e-05
3.022222222222222143e+00,5.586610246485774362e-06,-1.329946804796446318e-05
3.023015873015872934e+00,6.140906344453388866e-06,-5.244148470897228298e-06
3.023809523809523725e+00,7.173501391436776433e-06,2.229745544838608411e-06
3.024603174603174516e+00,9.150259881766931508e-06,8.373412657739658622e-06
3.025396825396825307e+00,1.239199510247963021e-05,1.282826059549286047e-05
3.026190476190476097e+00,1.689691969813960124e-05,1.561530330765675679e-05
3.026984126984126888e+00,2.222488022767009960e-05,1.703725073913696570e-05
3.027777777777777679e+00,2.749493207402924725e-05,1.752506641890285420e-05
3.028571428571428470e+00,3.152121244188839312e-05,1.747213362799333595e-05
3.029365079365079261e+00,3.307213054424518422e-05,1.710285781078828298e-05
3.030158730158730052e+00,3.119269259921476467e-05,1.641545942100409950e-05
3.030952380952380842e+00,2.549343950613823799e-05,1.521781607389364557e-05
3.031746031746031633e+00,1.630134541249530684e-05,1.324284122100279182e-05
3.032539682539682424e+00,4.603042716858062337e-06,1.029782702142550232e-05
3.033333333333333215e+00,-8.214888300657233427e-06,6.387362836736498013e-06
3.034126984126984006e+00,-2.073959379389376742e-05,1.761490780151879363e-06
3.034920634920634797e+00,-3.188034981049407473e-05,-3.126332554566453459e-06
3.035714285714285587e+00,-4.106676196471474257e-05,-7.729615030579689195e-06
3.036507936507936378e+00,-4.824484433224563405e-05,-1.153995539014348210e-05
3.037301587301587169e+00,-5.371060418180799678e-05,-1.418710319354945939e-05
3.038095238095237960e+00,-5.788209211212697313e-05,-1.547567002315833429e-05
3.038888888888888751e+00,-6.111430178425371264e-05,-1.536044521751042327e-05
3.039682539682539542e+00,-6.361418418543489340e-05,-1.389233307566320454e-05
3.040476190476190332e+00,-6.544842997855487789e-05,-1.117645227987580566e-05
3.041269841269841123e+00,-6.658960570308898532e-05,-7.370949698201497796e-06
3.042063492063491914e+00,-6.693479670897783626e-05,-2.729793271004913156e-06
3.042857142857142705e+00,-6.625362508944349484e-05,2.333244603571120086e-06
3.043650793650793496e+00,-6.406732120758202535e-05,7.201036200527317171e-06
3.044444444444444287e+00,-5.951180836363534750e-05,1.107631335285352407e-05
3.045238095238095077e+00,-5.127610175846857612e-05,1.310260863875275894e-05
3.046031746031745868e+00,-3.771238114114749306e-05,1.257848457745451131e-05
3.046825396825396659e+00,-1.717595348406846800e-05,9.215059361031131368e-06
3.047619047619047450e+00,1.141988134114374456e-05,3.348835798183709660e-06
3.048412698412698241e+00,4.793592851661314608e-05,-3.989075844847608607e-06
3.049206349206349032e+00,9.040303875213781895e-05,-1.121636605609872634e-05
3.049999999999999822e+00,1.346974527439896252e-04,-1.655485698179943245e-05
3.050793650793650613e+00,1.746938276443468178e-04,-1.850950020834936244e-05
3.051587301587301404e+00,2.030113489284439301e-04,-1.631626359184615936e-05
3.052380952380952195e+00,2.123251725922090495e-04,-1.019564800334574362e-05
3.053174603174602986e+00,1.970364323857791877e-04,-1.309886243469750618e-06
3.053968253968253777e+00,1.549262258522736782e-04,8.570938508660600041e-06
3.054761904761904567e+00,8.832666517802550217e-05,1.758240264472890092e-05
3.055555555555555358e+00,4.383234775356598607e-06,2.428558545900361929e-05
3.056349206349206149e+00,-8.582371114332286682e-05,2.802295204404246529e-05
3.057142857142856940e+00,-1.692233533677447359e-04,2.900222439450554155e-05
3.057936507936507731e+00,-2.333595388041674200e-04,2.809646537947686784e-05
3.058730158730158522e+00,-2.690127682860830329e-04,2.644339268062354635e-05
3.059523809523809312e+00,-2.721437160110086483e-04,2.498713015395547055e-05
3.060317460317460103e+00,-2.446302289573073986e-04,2.411411662986976323e-05
3.061111111111110894e+00,-1.936051473730825828e-04,2.349598912788926946e-05
3.061904761904761685e+00,-1.295977216235803754e-04,2.218467714578027401e-05
3.062698412698412920e+00,-6.401435520090598813e-05,1.893060836740672746e-05
3.063492063492063711e+00,-6.661042481239655785e-06,1.263199155801523686e-05
3.064285714285714501e+00,3.604821763797822078e-05,2.784581458618119605e-06
3.065079365079365292e+00,6.181822771723384643e-05,-1.020452260554035623e-05
3.065873015873016083e+00,7.212303485008021958e-05,-2.494533696015904407e-05
3.066666666666666874e+00,7.108406664816490489e-05,-3.927915137186326701e-05
3.067460317460317665e+00,6.402778972719314738e-05,-5.073833675545931428e-05
3.068253968253968456e+00,5.613757427065791783e-05,-5.713057004787660891e-05
3.069047619047619246e+00,5.146271865647922516e-05,-5.707836474912138030e-05
3.069841269841270037e+00,5.237590082887231803e-05,-5.035523056419427101e-05
3.070634920634920828e+00,5.944326260533852976e-05,-3.792856774331748753e-05
3.071428571428571619e+00,7.160964685005868999e-05,-2.171670238496448097e-05
3.072222222222222410e+00,8.659579902849607127e-05,-4.151148019885149183e-06
3.073015873015873201e+00,1.014288308333262422e-04,1.232410486351167719e-05
3.073809523809523991e+00,1.130482350530783798e-04,2.569107306060002847e-05
3.074603174603174782e+00,1.189218578387028861e-04,3.464787690224518913e-05
3.075396825396825573e+00,1.175733153577714388e-04,3.871538058163135899e-05
3.076190476190476364e+00,1.088983862678673552e-04,3.817271740486567663e-05
3.076984126984127155e+00,9.416836924162220589e-05,3.386878174158340811e-05
3.077777777777777946e+00,7.568994385619110758e-05,2.697430375982833215e-05
3.078571428571428736e+00,5.619035115753045828e-05,1.873807204550544862e-05
3.079365079365079527e+00,3.808811235657042328e-05,1.029383886631957259e-05
3.080158730158730318e+00,2.285751729023201327e-05,2.538492990125099258e-06
3.080952380952381109e+00,1.067501065571369606e-05,-3.922813939267380145e-06
3.081746031746031900e+00,4.501972812058788535e-07,-8.783670110305719244e-06
3.082539682539682691e+00,-9.772562658957361636e-06,-1.201563281734162843e-05
3.083333333333333481e+00,-2.215939542359077159e-05,-1.383034474461574812e-05
3.084126984126984272e+00,-3.835470016570908115e-05,-1.462286436243483400e-05
3.084920634920635063e+00,-5.885208394373047112e-05,-1.488798751746887333e-05
3.085714285714285854e+00,-8.261428563197176147e-05,-1.510721749462018662e-05
3.086507936507936645e+00,-1.070351746229974120e-04,-1.562163264580738610e-05
3.087301587301587436e+00,-1.282772479310061208e-04,-1.652473006565736920e-05
3.088095238095238226e+00,-1.419490970608456540e-04,-1.761573186545777010e-05
3.088888888888889017e+00,-1.440081642473602813e-04,-1.844083814095181048e-05
3.089682539682539808e+00,-1.316994420410729492e-04,-1.842109145209037548e-05
3.090476190476190599e+00,-1.043012001258904312e-04,-1.703263334678475552e-05
3.091269841269841390e+00,-6.347577169930680339e-05,-1.398297588575744341e-05
3.092063492063492181e+00,-1.312444378109294023e-05,-9.326531440945410846e-06
3.092857142857142971e+00,4.121190069058094501e-05,-3.484737800817939240e-06
3.093650793650793762e+00,9.324073271495215628e-05,2.830369254472077825e-06
3.094444444444444553e+00,1.368743622935416205e-04,8.761364900272038003e-06
3.095238095238095344e+00,1.670611045864263844e-04,1.347802663790311449e-05
3.096031746031746135e+00,1.803754556987616914e-04,1.633785453888870605e-05
3.096825396825396925e+00,1.753377263461497221e-04,1.700576127698505486e-05
3.097619047619047716e+00,1.524919906339567972e-04,1.551640083835008303e-05
3.098412698412698507e+00,1.142875747548316174e-04,1.227280523561642154e-05
3.099206349206349298e+00,6.479411597854494072e-05,7.983204721166849122e-06
3.100000000000000089e+00,9.260442912547600143e-06,3.545439281163160199e-06
3.100793650793650880e+00,-4.647246394220008530e-05,-1.044233212021040542e-07
3.101587301587301670e+00,-9.666808537600700814e-05,-2.156854657534162058e-06
3.102380952380952461e+00,-1.364233380065776879e-04,-2.081439983661591151e-06
3.103174603174603252e+00,-1.623154658796631422e-04,2.586366034607487111e-07
3.103968253968254043e+00,-1.728376789724015079e-04,4.553661690042437902e-06
3.104761904761904834e+00,-1.685188131492860390e-04,1.007339360777723423e-05
3.105555555555555625e+00,-1.516902324157831314e-04,1.577789221328487981e-05
3.106349206349206415e+00,-1.259539820609239201e-04,2.050162125232527838e-05
3.107142857142857206e+00,-9.548153963623916642e-05,2.317857531921717695e-05
3.107936507936507997e+00,-6.430323862338400281e-05,2.305927970424186485e-05
3.108730158730158788e+00,-3.573088526623478746e-05,1.986668273311445769e-05
3.109523809523809579e+00,-1.200503272075791782e-05,1.385256712312916618e-05
3.110317460317460370e+00,5.806365188106458847e-06,5.744741188339725583e-06
3.111111111111111160e+00,1.769089852520591111e-05,-3.394580825941427862e-06
3.111904761904761951e+00,2.442873409301968282e-05,-1.235936721701764430e-05
3.112698412698412742e+00,2.726823761044631683e-05,-1.999592487241464705e-05
3.113492063492063533e+00,2.761293954653978405e-05,-2.537079408264021182e-05
3.114285714285714324e+00,2.676872452687996756e-05,-2.789135236830369213e-05
3.115079365079365115e+00,2.577538294257219014e-05,-2.737157746237741458e-05
3.115873015873015905e+00,2.532628427629386475e-05,-2.404016240873457983e-05
3.116666666666666696e+00,2.576429787574997481e-05,-1.849021872427570516e-05
3.117460317460317487e+00,2.713113070868140175e-05,-1.157541956626886201e-05
3.118253968253968278e+00,2.924259599107827234e-05,-4.267724502593238127e-06
3.119047619047619069e+00,3.176572814965383844e-05,2.498190944773424767e-06
3.119841269841269860e+00,3.428407710292223111e-05,7.964710006322566488e-06
3.120634920634920650e+00,3.635012067494052223e-05,1.165010639834007799e-05
3.121428571428571441e+00,3.753226009234226850e-05,1.339124468489455964e-05
3.122222222222222232e+00,3.746431624644428702e-05,1.332759475525629334e-05
3.123015873015873023e+00,3.589833788761508457e-05,1.183611974664326849e-05
3.123809523809523814e+00,3.275174129444512455e-05,9.435584926400797864e-06
3.124603174603174605e+00,2.813409304683667976e-05,6.682882851667526916e-06
3.125396825396825395e+00,2.234166901185073134e-05,4.082272321111220231e-06
3.126190476190476186e+00,1.581807952329780805e-05,2.021507063556075371e-06
3.126984126984126977e+00,9.090546241448896082e-06,7.389740668470554844e-07
3.127777777777777768e+00,2.697218834572557546e-06,3.170557471649900926e-07
3.128571428571428559e+00,-2.880804890884443605e-06,6.927330143761592431e-07
3.129365079365079350e+00,-7.274635073939050634e-06,1.678030062581290189e-06
3.130158730158730140e+00,-1.026555516152873141e-05,2.987775890819460758e-06
3.130952380952380931e+00,-1.180104912515472367e-05,4.276220215320868771e-06
3.131746031746031722e+00,-1.198258979701482265e-05,5.184495281895730788e-06
3.132539682539682513e+00,-1.102176864387601751e-05,5.397759403843936645e-06
3.133333333333333304e+00,-9.171302684451173546e-06,4.706062326327485445e-06
3.134126984126984095e+00,-6.650533612858533599e-06,3.058448585100133875e-06
3.134920634920634885e+00,-3.593170276665288399e-06,5.967482268854594078e-07
3.135714285714285676e+00,-4.197310539028549681e-08,-2.344592343488133476e-06
3.136507936507936467e+00,4.000032900900547797e-06,-5.281715791569591515e-06
3.137301587301587258e+00,8.474859367442459142e-06,-7.667570955225264031e-06
3.138095238095238049e+00,1.316610722317743866e-05,-9.009944244079196629e-06
3.138888888888888840e+00,1.763279507086325202e-05,-8.999364072160732846e-06
3.139682539682539630e+00,2.122093549951999914e-05,-7.615930065265607836e-06
3.140476190476190421e+00,2.317051484384823835e-05,-5.179552168430779415e-06
3.141269841269841212e+00,2.280139313050444898e-05,-2.314120012327197567e-06
3.142063492063492003e+00,1.972712608163351250e-05,1.824770634536327469e-07
3.142857142857142794e+00,1.402440303737478565e-05,1.538575410848690726e-06
3.143650793650793585e+00,6.289519352618752049e-06,1.227034308445810811e-06
3.144444444444444375e+00,-2.454352383001736755e-06,-8.613416934578978148e-07
3.145238095238095166e+00,-1.098384259060001897e-05,-4.341131968402790167e-06
3.146031746031745957e+00,-1.817057795888074996e-05,-8.376816375057245659e-06
3.146825396825396748e+00,-2.325191779026146175e-05,-1.183988475386021870e-05
3.147619047619047539e+00,-2.599021826399930879e-05,-1.354275346982722746e-05
3.148412698412698330e+00,-2.666922887641841618e-05,-1.249981145628222905e-05
3.149206349206349120e+00,-2.592778746480808004e-05,-8.165411816375274005e-06
3.149999999999999911e+00,-2.448186201514330879e-05,-6.057920486843056804e-07
3.150793650793650702e+00,-2.282100311271199978e-05,9.428462106075683233e-06
3.151587301587301493e+00,-2.097398866464599796e-05,2.055090038292856235e-05
3.152380952380952284e+00,-1.841899508995875875e-05,3.091336707326434947e-05
3.153174603174603075e+00,-1.417402673025993273e-05,3.848883181207135199e-05
3.153968253968253865e+00,-7.057299848545680273e-06,4.142305591679368981e-05
3.154761904761904656e+00,3.933329903504075073e-06,3.839648073203366522e-05
3.155555555555555447e+00,1.920265283067577915e-05,2.892762046726935610e-05
3.156349206349206238e+00,3.820097852078057119e-05,1.355160257573095694e-05
3.157142857142857029e+00,5.923083962405683190e-05,-6.175721626189071627e-06
3.157936507936507819e+00,7.950587996882548685e-05,-2.786705741730468832e-05
3.158730158730158610e+00,9.550953484877869294e-05,-4.866437903981355416e-05
3.159523809523809401e+00,1.036324718985837264e-04,-6.570677906218130024e-05
3.160317460317460192e+00,1.009811553554736444e-04,-7.661192742403205038e-05
3.161111111111110983e+00,8.617174740833559226e-05,-7.987368432562902659e-05
3.161904761904761774e+00,5.988998334099620408e-05,-7.510009665291440047e-05
3.162698412698412564e+00,2.503406590389729359e-05,-6.305280914092709044e-05
3.163492063492063355e+00,-1.364123556278576957e-05,-4.548916670336979490e-05
3.164285714285714146e+00,-5.033055677995500735e-05,-2.484458528858264951e-05
3.165079365079364937e+00,-7.926901357374831582e-05,-3.819920421960227798e-06
3.165873015873015728e+00,-9.587236941542458051e-05,1.504847150198384471e-05
3.166666666666666519e+00,-9.767676853014733594e-05,2.976193334980308653e-05
3.167460317460317309e+00,-8.487050153800062961e-05,3.911927681524362220e-05
3.168253968253968100e+00,-6.029661089454609019e-05,4.283098390980915823e-05
3.169047619047618891e+00,-2.891790254964156178e-05,4.148174887812829678e-05
3.169841269841269682e+00,3.149111593845362672e-06,3.635945728819599986e-05
3.170634920634920473e+00,2.983299764683617039e-05,2.918809162342789554e-05
3.171428571428571264e+00,4.628834426508640355e-05,2.181346042640269200e-05
3.172222222222222054e+00,4.980168788523612439e-05,1.589287705966109971e-05
3.173015873015872845e+00,4.021011115255798593e-05,1.263470419160652385e-05
3.173809523809523636e+00,1.972434347908866322e-05,1.262353606270870747e-05
3.174603174603174427e+00,-7.797486113455636187e-06,1.575329627492308914e-05
3.175396825396825218e+00,-3.791745445083577807e-05,2.127505881070193292e-05
3.176190476190476009e+00,-6.671168153920367281e-05,2.795080444305143294e-05
3.176984126984126799e+00,-9.156857884344981756e-05,3.428990827699744659e-05
3.177777777777777590e+00,-1.114680789465433375e-04,3.883191430104644801e-05
3.178571428571428381e+00,-1.266873087810797274e-04,4.042757194387584330e-05
3.179365079365079172e+00,-1.380621015034574613e-04,3.846367504903332852e-05
3.180158730158729963e+00,-1.460775827778648835e-04,3.298157106017522309e-05
3.180952380952380754e+00,-1.501250662167511341e-04,2.465772956341845802e-05
3.181746031746031544e+00,-1.482268596806871519e-04,1.464545778384520724e-05
3.182539682539682335e+00,-1.373950420290105971e-04,4.312633394326858813e-06
3.183333333333333126e+00,-1.145789223147643298e-04,-5.058948425002927953e-06
3.184126984126983917e+00,-7.792658398772715311e-05,-1.253254842545496308e-05
3.184920634920634708e+00,-2.792646347891972623e-05,-1.766401843135119451e-05
3.185714285714285499e+00,3.201223091997361771e-05,-2.050324886749061416e-05
3.186507936507936289e+00,9.581330983814904641e-05,-2.146340735530885519e-05
3.187301587301587080e+00,1.558115314303208405e-04,-2.111517391394029339e-05
3.188095238095238315e+00,2.043571059461304310e-04,-1.998433337854458203e-05
3.188888888888889106e+00,2.354651047746858311e-04,-1.842227315636939131e-05
3.189682539682539897e+00,2.460181774319090920e-04,-1.658426465923280150e-05
3.190476190476190688e+00,2.362033667181974905e-04,-1.450427877454224557e-05
3.191269841269841478e+00,2.091427963565524494e-04,-1.221670417512549203e-05
3.192063492063492269e+00,1.699308518643706501e-04,-9.860043364179164204e-06
3.192857142857143060e+00,1.244130414483306918e-04,-7.709982502728338359e-06
3.193650793650793851e+00,7.802500708880081833e-05,-6.122554038132954499e-06
3.194444444444444642e+00,3.491742346237421347e-05,-5.408870428023771011e-06
3.195238095238095433e+00,-2.513251838576555137e-06,-5.694824262396657282e-06
3.196031746031746223e+00,-3.366071329720842826e-05,-6.828016425382663513e-06
3.196825396825397014e+00,-5.935964521281282308e-05,-8.374859592607053287e-06
3.197619047619047805e+00,-8.125821499964955372e-05,-9.712449330050947733e-06
3.198412698412698596e+00,-1.010591149656953389e-04,-1.018223523337699394e-05
3.199206349206349387e+00,-1.197959859319326945e-04,-9.253921549229617672e-06
3.200000000000000178e+00,-1.373081996829258686e-04,-6.653450807947097053e-06
3.200793650793650968e+00,-1.520447983888325270e-04,-2.429419522115710489e-06
3.201587301587301759e+00,-1.612672361861518396e-04,3.046297454026893968e-06
3.202380952380952550e+00,-1.616387178355198665e-04,9.134705586110119060e-06
3.203174603174603341e+00,-1.501002983074427289e-04,1.502867549947967979e-05
3.203968253968254132e+00,-1.248538931886124736e-04,1.987902190686916868e-05
3.204761904761904923e+00,-8.621267899611915727e-05,2.292986080463722644e-05
3.205555555555555713e+00,-3.706241444865168613e-05,2.364384631795331005e-05
3.206349206349206504e+00,1.726917054834375823e-05,2.179876218135225253e-05
3.207142857142857295e+00,6.980502839965175730e-05,1.753973789063143255e-05
3.207936507936508086e+00,1.132583675799048742e-04,1.137419181951826341e-05
3.208730158730158877e+00,1.416196345833363728e-04,4.100718402632139017e-06
3.209523809523809668e+00,1.515724778839781491e-04,-3.326442101853548932e-06
3.210317460317460458e+00,1.433247551014670159e-04,-9.976764188145872660e-06
3.211111111111111249e+00,1.205873310733694193e-04,-1.512552129242336826e-05
3.211904761904762040e+00,8.967801202560696857e-05,-1.838831248104723696e-05
3.212698412698412831e+00,5.798352531417357302e-05,-1.976842174425627618e-05
3.213492063492063622e+00,3.219606459941996482e-05,-1.960521241754235305e-05
3.214285714285714413e+00,1.680097074369501766e-05,-1.844480243521454967e-05
3.215079365079365203e+00,1.321285015912194934e-05,-1.687857715453720565e-05
3.215873015873015994e+00,1.976208157900771081e-05,-1.540112289924291377e-05
3.216666666666666785e+00,3.248235762894883963e-05,-1.432504149087807799e-05
3.217460317460317576e+00,4.642050236418318376e-05,-1.376275767792990439e-05
3.218253968253968367e+00,5.705286785984467322e-05,-1.365882032044176454e-05
3.219047619047619158e+00,6.139217932925836337e-05,-1.384379884745285268e-05
3.219841269841269948e+00,5.850350517859988545e-05,-1.408611348707530294e-05
3.220634920634920739e+00,4.936159207009040763e-05,-1.413288038570142304e-05
3.221428571428571530e+00,3.618636998315641877e-05,-1.374345817985482207e-05
3.222222222222222321e+00,2.152009785560354778e-05,-1.272261832169845811e-05
3.223015873015873112e+00,7.339153430357473968e-06,-1.095367220960633258e-05
3.223809523809523903e+00,-5.554854369477821371e-06,-8.421671322443430354e-06
3.224603174603174693e+00,-1.771588914100623625e-05,-5.213294978675322339e-06
3.225396825396825484e+00,-3.077346764519173401e-05,-1.489732630779542313e-06
3.226190476190476275e+00,-4.677122579958119128e-05,2.553671547161455514e-06
3.226984126984127066e+00,-6.729280528527613033e-05,6.716481234598867848e-06
3.227777777777777857e+00,-9.259940616880892592e-05,1.079281400856208283e-05
3.228571428571428648e+00,-1.210196073767727927e-04,1.454393704700889133e-05
3.229365079365079438e+00,-1.488017424776853727e-04,1.766706446455965548e-05
3.230158730158730229e+00,-1.705528670785444922e-04,1.979151771620899823e-05
3.230952380952381020e+00,-1.802456008064847967e-04,2.052387876079732413e-05
3.231746031746031811e+00,-1.725993893471236931e-04,1.954184647876462349e-05
3.232539682539682602e+00,-1.444931865348311338e-04,1.671209053253175670e-05
3.233333333333333393e+00,-9.601405241874355970e-05,1.219092725866224172e-05
3.234126984126984183e+00,-3.083195764855174991e-05,6.465916277870412612e-06
3.234920634920634974e+00,4.421185974020890990e-05,3.129507917524033963e-07
3.235714285714285765e+00,1.201905544569453895e-04,-5.329233102312664166e-06
