Timestamp,Flexor carpi radialis,Extensor digitorum
2.000000000000000000e+00,-1.971994611248257493e-04,7.812220386632594249e-05
2.000793650793650791e+00,-1.847856372075479573e-04,4.496163428705219451e-05
2.001587301587301582e+00,-1.452997864403942989e-04,1.067864218895789332e-05
2.002380952380952372e+00,-7.953998083383733884e-05,-1.754367540609716420e-05
2.003174603174603163e+00,7.332920565270096445e-06,-3.351577538573408805e-05
2.003968253968253954e+00,1.061214016023391077e-04,-3.376984837499096687e-05
2.004761904761904745e+00,2.046276040880006550e-04,-1.869133013996772947e-05
2.005555555555555536e+00,2.892632107193160180e-04,7.262310274467891378e-06
2.006349206349206327e+00,3.470312433145647632e-04,3.632764273090078894e-05
2.007142857142857117e+00,3.676316220280297152e-04,5.901665108244923797e-05
2.007936507936507908e+00,3.453930263775970380e-04,6.616417859676771752e-05
2.008730158730158699e+00,2.806932475243010682e-04,5.100849287829209108e-05
2.009523809523809490e+00,1.805355322315343493e-04,1.088317491576515112e-05
2.010317460317460281e+00,5.803081174074260811e-05,-5.182391239510931601e-05
2.011111111111111072e+00,-6.929867466081694489e-05,-1.296672280864956308e-04
2.011904761904761862e+00,-1.822445861690275134e-04,-2.111544685522114798e-04
2.012698412698412653e+00,-2.632441385033517886e-04,-2.826321046701736248e-04
2.013492063492063444e+00,-2.996512175367361370e-04,-3.307115272193386331e-04
2.014285714285714235e+00,-2.861764895518736137e-04,-3.447692522572588965e-04
2.015079365079365026e+00,-2.258642579742427888e-04,-3.190275433746818856e-04
2.015873015873015817e+00,-1.293452047389982186e-04,-2.538039999631550134e-04
2.016666666666666607e+00,-1.257279901471364321e-05,-1.556756533144994801e-04
2.017460317460317398e+00,1.063591586278458468e-04,-3.649429127824697157e-05
2.018253968253968189e+00,2.105296744812733939e-04,8.859874173338970948e-05
2.019047619047618980e+00,2.868863675451043546e-04,2.037801752633301656e-04
2.019841269841269771e+00,3.278084283771032291e-04,2.952037920085468121e-04
2.020634920634920562e+00,3.313663999241126912e-04,3.531108632092121299e-04
2.021428571428571352e+00,3.004683759456329385e-04,3.730044711746115563e-04
2.022222222222222143e+00,2.413552213614181914e-04,3.558325791025127331e-04
2.023015873015872934e+00,1.620087765625029394e-04,3.073392096862633677e-04
2.023809523809523725e+00,7.093435936422996530e-05,2.367590163180958150e-04
2.024603174603174516e+00,-2.348074816470573445e-05,1.550121110360284883e-04
2.025396825396825307e+00,-1.131338960624436485e-04,7.266545997664421305e-05
2.026190476190476097e+00,-1.902156442473851294e-04,-1.902661082336127740e-06
2.026984126984126888e+00,-2.474188599321088195e-04,-6.366542728669516969e-05
2.027777777777777679e+00,-2.785677522614331768e-04,-1.111551923734283736e-04
2.028571428571428470e+00,-2.796402763944313215e-04,-1.457432676859091820e-04
2.029365079365079261e+00,-2.499189611148918983e-04,-1.702917649082481095e-04
2.030158730158730052e+00,-1.928709727161432165e-04,-1.876214622496272049e-04
2.030952380952380842e+00,-1.163675889313335024e-04,-1.992504502352350449e-04
2.031746031746031633e+00,-3.199138445648917208e-05,-2.047705645434909274e-04
2.032539682539682424e+00,4.659597417448444487e-05,-2.020636547345884516e-04
2.033333333333333215e+00,1.059942856671134879e-04,-1.883199583969283309e-04
2.034126984126984006e+00,1.356551372034340945e-04,-1.615325313736845939e-04
2.034920634920634797e+00,1.301374379186549563e-04,-1.218997182065552289e-04
2.035714285714285587e+00,9.047205807628597846e-05,-7.251787022084339393e-05
2.036507936507936378e+00,2.426608833627667621e-05,-1.898344836782713701e-05
2.037301587301587169e+00,-5.553291457729215744e-05,3.202090027215358025e-05
2.038095238095237960e+00,-1.329889084505331775e-04,7.462954867962309118e-05
2.038888888888888751e+00,-1.921851877581520881e-04,1.054380656163549356e-04
2.039682539682539542e+00,-2.202976568713778426e-04,1.242411912301148919e-04
2.040476190476190332e+00,-2.101239993016215072e-04,1.335799988627553014e-04
2.041269841269841123e+00,-1.615470723985524073e-04,1.372809117723369256e-04
2.042063492063491914e+00,-8.160542769167346093e-05,1.385584459304086173e-04
2.042857142857142705e+00,1.687175514168070764e-05,1.384305742033382122e-04
2.043650793650793496e+00,1.177894243485549047e-04,1.351130825584263959e-04
2.044444444444444287e+00,2.049261707641901107e-04,1.247296996982421267e-04
2.045238095238095077e+00,2.650006760687503978e-04,1.031651588217392539e-04
2.046031746031745868e+00,2.900026052965818247e-04,6.837042395618132969e-05
2.046825396825396659e+00,2.783165308103751701e-04,2.215273549944944142e-05
2.047619047619047450e+00,2.344746662750385913e-04,-2.938097319860219381e-05
2.048412698412698241e+00,1.677096552832939790e-04,-7.704627837487860282e-05
2.049206349206349032e+00,8.974494750726276732e-05,-1.111216781555335282e-04
2.049999999999999822e+00,1.238728026963523180e-05,-1.243283772533054646e-04
2.050793650793650613e+00,-5.454565730430334657e-05,-1.141919646534931984e-04
2.051587301587301404e+00,-1.045870952954851464e-04,-8.395614237652099417e-05
2.052380952380952195e+00,-1.351173429091771826e-04,-4.174207975148317600e-05
2.053174603174602986e+00,-1.470526580584220180e-04,1.736064771463693779e-06
2.053968253968253777e+00,-1.439424279799649019e-04,3.609912625388550766e-05
2.054761904761904567e+00,-1.307684297426223933e-04,5.389459789440959633e-05
2.055555555555555358e+00,-1.127402989138878990e-04,5.207789996191123727e-05
2.056349206349206149e+00,-9.432069587589429326e-05,3.210173184375801576e-05
2.057142857142856940e+00,-7.861759105382417972e-05,-1.132763426422252568e-06
2.057936507936507731e+00,-6.717750929193128399e-05,-4.087825063874020123e-05
2.058730158730158522e+00,-6.012613570979011914e-05,-8.009087560135143475e-05
2.059523809523809312e+00,-5.654611570365209388e-05,-1.125435883242184809e-04
2.060317460317460103e+00,-5.496069187231103877e-05,-1.334221172078945512e-04
2.061111111111110894e+00,-5.380177738068039883e-05,-1.395502734063897357e-04
2.061904761904761685e+00,-5.177231913197392427e-05,-1.294649642227983994e-04
2.062698412698412920e+00,-4.805404589412165089e-05,-1.034913119659684820e-04
2.063492063492063711e+00,-4.235384583456683544e-05,-6.382282655136229310e-05
2.064285714285714501e+00,-3.481882620746770039e-05,-1.447625482163745424e-05
2.065079365079365292e+00,-2.587570616619561971e-05,3.905842896003520131e-05
2.065873015873016083e+00,-1.605828087151203037e-05,9.057273290739024018e-05
2.066666666666666874e+00,-5.874760389047417169e-06,1.342127556170091569e-04
2.067460317460317665e+00,4.259226393188650485e-06,1.655882555059228574e-04
2.068253968253968456e+00,1.402419191543080426e-05,1.825501516356300427e-04
2.069047619047619246e+00,2.315887621587063309e-05,1.853586877251400973e-04
2.069841269841270037e+00,3.141038769223178530e-05,1.761919522977526385e-04
2.070634920634920828e+00,3.849844358927697404e-05,1.581996008821341779e-04
2.071428571428571619e+00,4.410925268504525175e-05,1.344740854487453156e-04
2.072222222222222410e+00,4.792289580719962493e-05,1.073236139322867108e-04
2.073015873015873201e+00,4.966943214876980741e-05,7.808344159254680835e-05
2.073809523809523991e+00,4.920292869293134132e-05,4.745425435013543933e-05
2.074603174603174782e+00,4.657683327841580760e-05,1.612206254122701472e-05
2.075396825396825573e+00,4.209943923054785907e-05,-1.468995571810916100e-05
2.076190476190476364e+00,3.634805723415003478e-05,-4.302353174054205807e-05
2.076984126984127155e+00,3.012652356557798662e-05,-6.645719207591325713e-05
2.077777777777777946e+00,2.436175519197930056e-05,-8.277574405952490969e-05
2.078571428571428736e+00,1.994984072650100867e-05,-9.081496457599786613e-05
2.079365079365079527e+00,1.757892911616484754e-05,-9.117803789684762034e-05
2.080158730158730318e+00,1.757029319507608995e-05,-8.652451242825045358e-05
2.080952380952381109e+00,1.978296209020763622e-05,-8.121794332817531723e-05
2.081746031746031900e+00,2.361618528543278135e-05,-8.027886136406444544e-05
2.082539682539682691e+00,2.812001853041233077e-05,-8.781876249333324857e-05
2.083333333333333481e+00,3.219516878940147483e-05,-1.053729293795455378e-04
2.084126984126984272e+00,3.483592876207310276e-05,-1.306930722182351665e-04
2.084920634920635063e+00,3.535087209285492707e-05,-1.575178754900342590e-04
2.085714285714285854e+00,3.349443199176085282e-05,-1.766064154935331027e-04
2.086507936507936645e+00,2.946646082915241761e-05,-1.779492827399926870e-04
2.087301587301587436e+00,2.378138877726660713e-05,-1.536576093772376583e-04
2.088095238095238226e+00,1.705484112843117097e-05,-1.007163417033514892e-04
2.088888888888889017e+00,9.784030464665110829e-06,-2.272265920154928039e-05
2.089682539682539808e+00,2.200619515173501897e-06,7.003971137105800512e-05
2.090476190476190599e+00,-5.746471749812547553e-06,1.623928379997306964e-04
2.091269841269841390e+00,-1.425951132078724682e-05,2.375910551450620151e-04
2.092063492063492181e+00,-2.344220329461115299e-05,2.813508269709066108e-04
2.092857142857142971e+00,-3.301177833637267481e-05,2.854401266727338575e-04
2.093650793650793762e+00,-4.208508818289227060e-05,2.497281043484101261e-04
2.094444444444444553e+00,-4.914607838441485113e-05,1.820725128583582401e-04
2.095238095238095344e+00,-5.225273218288010150e-05,9.616540203027992828e-05
2.096031746031746135e+00,-4.946286692251324990e-05,8.114227202919481748e-06
2.096825396825396925e+00,-3.938098122297725180e-05,-6.718589040349923778e-05
2.097619047619047716e+00,-2.168029842835238560e-05,-1.189701459924417899e-04
2.098412698412698507e+00,2.552731633305067396e-06,-1.422671631107518323e-04
2.099206349206349298e+00,3.077063269426792670e-05,-1.381562712648158771e-04
2.100000000000000089e+00,5.926571615351608995e-05,-1.127695153970818554e-04
2.100793650793650880e+00,8.378346755089048094e-05,-7.539335286205892301e-05
2.101587301587301670e+00,1.003255944160185489e-04,-3.615423685182925305e-05
2.102380952380952461e+00,1.059607478403778216e-04,-3.813881056753914719e-06
2.103174603174603252e+00,9.945041857856309160e-05,1.587241576543023194e-05
2.103968253968254043e+00,8.154001120043262571e-05,2.095487231752348855e-05
2.104761904761904834e+00,5.484653610851390174e-05,1.318379407868247371e-05
2.105555555555555625e+00,2.336986559468143122e-05,-2.865216982255700706e-06
2.106349206349206415e+00,-8.260939390044351411e-06,-2.116441401984636665e-05
2.107142857142857206e+00,-3.564029875056661407e-05,-3.577411181754894704e-05
2.107936507936507997e+00,-5.535824059641396104e-05,-4.222609840113840526e-05
2.108730158730158788e+00,-6.553953687578819459e-05,-3.848111862892256895e-05
2.109523809523809579e+00,-6.605510273733424149e-05,-2.527707574107965983e-05
2.110317460317460370e+00,-5.838413174985632029e-05,-5.801049308677776871e-06
2.111111111111111160e+00,-4.517862656001377905e-05,1.523194872580625620e-05
2.111904761904761951e+00,-2.964103876674427669e-05,3.285273156953036735e-05
2.112698412698412742e+00,-1.485894997380322362e-05,4.311937482373869561e-05
2.113492063492063533e+00,-3.240931295338781293e-06,4.406522761386835155e-05
2.114285714285714324e+00,3.834973759630006078e-06,3.607964702346864820e-05
2.115079365079365115e+00,6.106325750579043483e-06,2.164956541818151907e-05
2.115873015873015905e+00,4.259898788511907663e-06,4.565228436843753403e-06
2.116666666666666696e+00,-4.092240136677631419e-07,-1.114995166719304059e-05
2.117460317460317487e+00,-6.400326133925664902e-06,-2.224308863569300008e-05
2.118253968253968278e+00,-1.236120322009692656e-05,-2.687451298024147979e-05
2.119047619047619069e+00,-1.731962206521207000e-05,-2.477151119463224876e-05
2.119841269841269860e+00,-2.076860209107431586e-05,-1.696311379501411540e-05
2.120634920634920650e+00,-2.262598950304472886e-05,-5.298584229469528830e-06
2.121428571428571441e+00,-2.311388400210099946e-05,8.027234796590166396e-06
2.122222222222222232e+00,-2.260868323808047281e-05,2.079902011701387807e-05
2.123015873015873023e+00,-2.150379263440229408e-05,3.094088867345928877e-05
2.123809523809523814e+00,-2.011212241208994186e-05,3.659673203166262248e-05
2.124603174603174605e+00,-1.861992420636838326e-05,3.624319217843611346e-05
2.125396825396825395e+00,-1.708961805167849221e-05,2.890268359658171052e-05
2.126190476190476186e+00,-1.549820909870313124e-05,1.444538877714267937e-05
2.126984126984126977e+00,-1.379165235326298073e-05,-6.105497493178421922e-06
2.127777777777777768e+00,-1.193558001395183712e-05,-3.039858588463970198e-05
2.128571428571428559e+00,-9.948190720758229275e-06,-5.484926002924634758e-05
2.129365079365079350e+00,-7.908756468979575438e-06,-7.509959839753416785e-05
2.130158730158730140e+00,-5.942100528760525943e-06,-8.683431280949544472e-05
2.130952380952380931e+00,-4.184393573700788891e-06,-8.679966383082382715e-05
2.131746031746031722e+00,-2.739519408110419936e-06,-7.374554008959357848e-05
2.132539682539682513e+00,-1.638811411499452850e-06,-4.897393650553824563e-05
2.133333333333333304e+00,-8.187465250462199311e-07,-1.626671236648045044e-05
2.134126984126984095e+00,-1.282353450430745277e-07,1.884524581406788542e-05
2.134920634920634885e+00,6.319579176722400389e-07,5.029881745331682755e-05
2.135714285714285676e+00,1.647671801279750000e-06,7.288215078781726166e-05
2.136507936507936467e+00,3.027637049745994689e-06,8.342368889919387926e-05
2.137301587301587258e+00,4.759665986332568429e-06,8.147684194405169895e-05
2.138095238095238049e+00,6.702251354782623410e-06,6.931300110323366647e-05
2.138888888888888840e+00,8.615270564980142341e-06,5.121657017808323392e-05
2.139682539682539630e+00,1.022101574726835158e-05,3.228105256616204001e-05
2.140476190476190421e+00,1.127727988568669320e-05,1.706487972871756822e-05
2.141269841269841212e+00,1.164041116908908726e-05,8.509103794145790020e-06
2.142063492063492003e+00,1.129969583961048655e-05,7.417809927954590522e-06
2.142857142857142794e+00,1.037425756225467225e-05,1.258638438193312737e-05
2.143650793650793585e+00,9.075913813903911025e-06,2.141916414040328148e-05
2.144444444444444375e+00,7.651146191880419444e-06,3.072197535496445046e-05
2.145238095238095166e+00,6.319583803874176361e-06,3.736734683503374605e-05
2.146031746031745957e+00,5.225202877608206632e-06,3.869288604591425966e-05
2.146825396825396748e+00,4.411497570506142317e-06,3.269427351137666268e-05
2.147619047619047539e+00,3.825078731541211754e-06,1.818833137422324028e-05
2.148412698412698330e+00,3.345204673250959426e-06,-4.907499243558982378e-06
2.149206349206349120e+00,2.831059442063825979e-06,-3.517290415249282642e-05
2.149999999999999911e+00,2.174945101284170389e-06,-6.931764419918257807e-05
2.150793650793650702e+00,1.347941566467818680e-06,-1.021068728489823427e-04
2.151587301587301493e+00,4.249220478610163858e-07,-1.268180657719426114e-04
2.152380952380952284e+00,-4.213642532881873216e-07,-1.363331958853553647e-04
2.153174603174603075e+00,-9.614169410921781057e-07,-1.247570008598871652e-04
2.153968253968253865e+00,-9.807455644247115241e-07,-8.922475316292067323e-05
2.154761904761904656e+00,-3.677489299644210996e-07,-3.139029294169876712e-05
2.155555555555555447e+00,8.055515603829833047e-07,4.196207293565511719e-05
2.156349206349206238e+00,2.238114146456581754e-06,1.195979327089058782e-04
2.157142857142857029e+00,3.415751108984491644e-06,1.878785772668890679e-04
2.157936507936507819e+00,3.701964665579276858e-06,2.337783434116957784e-04
2.158730158730158610e+00,2.496117157220340372e-06,2.480601486091144688e-04
2.159523809523809401e+00,-5.730559143178864082e-07,2.276250351520860658e-04
2.160317460317460192e+00,-5.469592848217614204e-06,1.762613826152975571e-04
2.161111111111110983e+00,-1.164591441176852446e-05,1.035714247860221413e-04
2.161904761904761774e+00,-1.806053781670251566e-05,2.250299402435663039e-05
2.162698412698412564e+00,-2.334049270971758948e-05,-5.366036687604681986e-05
2.163492063492063355e+00,-2.607067408686132443e-05,-1.139740067299656280e-04
2.164285714285714146e+00,-2.514654795583139770e-05,-1.515921084504056194e-04
2.165079365079364937e+00,-2.009201205776712818e-05,-1.644247896193255559e-04
2.165873015873015728e+00,-1.123988176266516086e-05,-1.548013644644118949e-04
2.166666666666666519e+00,2.920855292392062314e-07,-1.283969526531199864e-04
2.167460317460317309e+00,1.283078422136344519e-05,-9.272586669681421516e-05
2.168253968253968100e+00,2.451371897240073322e-05,-5.551498877833299167e-05
2.169047619047618891e+00,3.367752085288532699e-05,-2.326467891747530139e-05
2.169841269841269682e+00,3.915563412748569017e-05,-2.590307647917274425e-07
2.170634920634920473e+00,4.041488447582174186e-05,1.182177339326592725e-05
2.171428571428571264e+00,3.752462746614847232e-05,1.368871578534116358e-05
2.172222222222222054e+00,3.100870324137059163e-05,7.778196220846609186e-06
2.173015873015872845e+00,2.165884620882612305e-05,-2.634455453978160017e-06
2.173809523809523636e+00,1.038256961357467809e-05,-1.430168736523884002e-05
2.174603174603174427e+00,-1.873516301155759498e-06,-2.465834844734783574e-05
2.175396825396825218e+00,-1.412700844031619881e-05,-3.215131395074082937e-05
2.176190476190476009e+00,-2.532902801919560042e-05,-3.623007924648609959e-05
2.176984126984126799e+00,-3.435766756512620760e-05,-3.708656820215069184e-05
2.177777777777777590e+00,-4.008682363195341977e-05,-3.530060004027105538e-05
2.178571428571428381e+00,-4.154965917851186243e-05,-3.154544801181104354e-05
2.179365079365079172e+00,-3.816853619647075311e-05,-2.643736208391250279e-05
2.180158730158729963e+00,-2.997953844272076084e-05,-2.051766005268802328e-05
2.180952380952380754e+00,-1.776170528527004440e-05,-1.429087106126031927e-05
2.181746031746031544e+00,-3.001259938269298571e-06,-8.236526296090152609e-06
2.182539682539682335e+00,1.232705756204177323e-05,-2.757257588089648849e-06
2.183333333333333126e+00,2.611768976248695560e-05,1.909314570256707095e-06
2.184126984126983917e+00,3.653953612239646743e-05,5.742558209265069008e-06
2.184920634920634708e+00,4.238038927820494413e-05,8.892189138511903888e-06
2.185714285714285499e+00,4.324116964426011437e-05,1.153601024304489969e-05
2.186507936507936289e+00,3.953842918849219341e-05,1.371856280611524752e-05
2.187301587301587080e+00,3.233174300494137177e-05,1.526966509475236294e-05
2.188095238095238315e+00,2.303931371326185080e-05,1.585556803766383186e-05
2.188888888888889106e+00,1.312601375739310886e-05,1.513542745753935917e-05
2.189682539682539897e+00,3.841288802282381941e-06,1.293746121901691720e-05
2.190476190476190688e+00,-3.942291142593130360e-06,9.368332597539261121e-06
2.191269841269841478e+00,-9.774103837955227419e-06,4.819007578072612011e-06
2.192063492063492269e+00,-1.357157399202218580e-05,-1.104263525210800764e-07
2.192857142857143060e+00,-1.550774008052518277e-05,-4.715081391265017884e-06
2.193650793650793851e+00,-1.588799148992363957e-05,-8.275564275072446005e-06
2.194444444444444642e+00,-1.505439104147626230e-05,-1.011935944520853803e-05
2.195238095238095433e+00,-1.333607382852950108e-05,-9.664625180878872113e-06
2.196031746031746223e+00,-1.104314811934230798e-05,-6.470212897020935260e-06
2.196825396825397014e+00,-8.486668979965658019e-06,-3.112407319279595118e-07
2.197619047619047805e+00,-6.001292254772641111e-06,8.718510720871398240e-06
2.198412698412698596e+00,-3.949501022303330701e-06,2.009889038269830244e-05
2.199206349206349387e+00,-2.694555842155521721e-06,3.281036829077408403e-05
2.200000000000000178e+00,-2.540535569155950443e-06,4.534437776803462559e-05
2.200793650793650968e+00,-3.649324175869288388e-06,5.583963013008285640e-05
2.201587301587301759e+00,-5.954559416046388478e-06,6.236129495967996630e-05
2.202380952380952550e+00,-9.100085295216891296e-06,6.329495877036802373e-05
2.203174603174603341e+00,-1.243299314115466124e-05,5.777450397766520297e-05
2.203968253968254132e+00,-1.507547812899668692e-05,4.602310268163151786e-05
2.204761904761904923e+00,-1.608264260058507141e-05,2.948096439867050293e-05
2.205555555555555713e+00,-1.466580042846720443e-05,1.063484450459155922e-05
2.206349206349206504e+00,-1.043017207280825410e-05,-7.451663140970084671e-06
2.207142857142857295e+00,-3.555407715303932377e-06,-2.180556188157670595e-05
2.207936507936508086e+00,5.150140110316524414e-06,-3.022744976017192623e-05
2.208730158730158877e+00,1.436077232519615175e-05,-3.178915560482553014e-05
2.209523809523809668e+00,2.250031987364072955e-05,-2.700332379724271317e-05
2.210317460317460458e+00,2.810167017549026832e-05,-1.763403889319838233e-05
2.211111111111111249e+00,3.015943174399700953e-05,-6.232405819654988418e-06
2.211904761904762040e+00,2.837095594437126321e-05,4.451352635557486257e-06
2.212698412698412831e+00,2.319212515734207165e-05,1.202735802203599192e-05
2.213492063492063622e+00,1.569316068596763133e-05,1.488921283555410161e-05
2.214285714285714413e+00,7.264373542149547283e-06,1.244185314378938410e-05
2.215079365079365203e+00,-7.339203761608974925e-07,5.113767627059302099e-06
2.215873015873015994e+00,-7.275633930136953690e-06,-5.828854973181623597e-06
2.216666666666666785e+00,-1.185276870685914216e-05,-1.860868495419596073e-05
2.217460317460317576e+00,-1.450937717254519121e-05,-3.131924044827709593e-05
2.218253968253968367e+00,-1.573938853278567296e-05,-4.227316350456015830e-05
2.219047619047619158e+00,-1.629070236581347408e-05,-5.024785321177265864e-05
2.219841269841269948e+00,-1.692895419500170000e-05,-5.459575195267016247e-05
2.220634920634920739e+00,-1.821270133838157025e-05,-5.522671112916778893e-05
2.221428571428571530e+00,-2.032439355202611918e-05,-5.250006131461082756e-05
2.222222222222222321e+00,-2.299133498725681654e-05,-4.707460657721079296e-05
2.223015873015873112e+00,-2.551620298272207587e-05,-3.975608846269454357e-05
2.223809523809523903e+00,-2.691564345328210372e-05,-3.136330251079476599e-05
2.224603174603174693e+00,-2.614075165900371991e-05,-2.261816592501671671e-05
2.225396825396825484e+00,-2.233255024825588040e-05,-1.405943969058039989e-05
2.226190476190476275e+00,-1.505621561493698281e-05,-5.984642499677809693e-06
2.226984126984127066e+00,-4.461571038653360512e-06,1.567258993497459081e-06
2.227777777777777857e+00,8.668600778227333019e-06,8.779507142893548861e-06
2.228571428571428648e+00,2.299978080178839257e-05,1.596868716421398564e-05
2.229365079365079438e+00,3.684792854347520403e-05,2.346643012213632499e-05
2.230158730158730229e+00,4.846679556333467878e-05,3.150740545610270822e-05
2.230952380952381020e+00,5.636155964796920042e-05,4.014892738347409384e-05
2.231746031746031811e+00,5.955916521464670879e-05,4.921886119813218447e-05
2.232539682539682602e+00,5.777313747269046187e-05,5.826623106929509395e-05
2.233333333333333393e+00,5.142650772209505101e-05,6.650072958049827333e-05
2.234126984126984183e+00,4.153302463610157309e-05,7.275694619069929736e-05
2.234920634920634974e+00,2.947178643664232284e-05,7.557040449934405058e-05
2.235714285714285765e+00,1.671357986234342142e-05,7.344823994429200713e-05
2.236507936507936556e+00,4.563565310233059813e-06,6.532852244861892172e-05
2.237301587301587347e+00,-6.025588539100514429e-06,5.108671244273024320e-05
2.238095238095238138e+00,-1.453938978105709189e-05,3.185686218601178194e-05
2.238888888888888928e+00,-2.088414877517713670e-05,9.968028401976402095e-06
2.239682539682539719e+00,-2.529037249689726317e-05,-1.154669954233949859e-05
2.240476190476190510e+00,-2.817598554596491332e-05,-2.971484894881999881e-05
2.241269841269841301e+00,-3.000953734673706959e-05,-4.238316036238946172e-05
2.242063492063492092e+00,-3.120261717339162016e-05,-4.869780267870624891e-05
2.242857142857142883e+00,-3.204491926607865699e-05,-4.916194186540234057e-05
2.243650793650793673e+00,-3.268206297980394491e-05,-4.530472812332045856e-05
2.244444444444444464e+00,-3.312782839241675920e-05,-3.913674109816198387e-05
2.245238095238095255e+00,-3.329758240332775021e-05,-3.260801347498513546e-05
2.246031746031746046e+00,-3.304780144556743312e-05,-2.722224870349462507e-05
2.246825396825396837e+00,-3.220917165779969892e-05,-2.385202726905905196e-05
2.247619047619047628e+00,-3.060830707247389620e-05,-2.271730348597589545e-05
2.248412698412698418e+00,-2.808294744482763995e-05,-2.346535798862364527e-05
2.249206349206349209e+00,-2.450204775275906667e-05,-2.530568430990808493e-05
2.250000000000000000e+00,-1.980034521078824237e-05,-2.717351678986990260e-05
2.250793650793650791e+00,-1.402647137078781306e-05,-2.790497915570310802e-05
2.251587301587301582e+00,-7.390144250981254619e-06,-2.641056287030191157e-05
2.252380952380952372e+00,-2.853501355070254097e-07,-2.183972766731761192e-05
2.253174603174603163e+00,6.731628322754048306e-06,-1.373642173421742887e-05
2.253968253968253954e+00,1.301694478707835879e-05,-2.185276183140857941e-06
2.254761904761904745e+00,1.795427161425448929e-05,1.206875880579052731e-05
2.255555555555555536e+00,2.108112404441368076e-05,2.758002929888066733e-05
2.256349206349206327e+00,2.219168651108570909e-05,4.232228718231261102e-05
2.257142857142857117e+00,2.138725149021679828e-05,5.402826553514180594e-05
2.257936507936507908e+00,1.905904347650212084e-05,6.071880775646743027e-05
2.258730158730158699e+00,1.580641483653964893e-05,6.127612666292080754e-05
2.259523809523809490e+00,1.231108385921990983e-05,5.584301491148671196e-05
2.260317460317460281e+00,9.197523656395918315e-06,4.585370387429315697e-05
2.261111111111111072e+00,6.907650721122527782e-06,3.363048280032021191e-05
2.261904761904761862e+00,5.610200007453186141e-06,2.166394328164182142e-05
2.262698412698412653e+00,5.159204410581932166e-06,1.184461909882293453e-05
2.263492063492063444e+00,5.113450189644901964e-06,4.947895103181524467e-06
2.264285714285714235e+00,4.825181335894422466e-06,5.681236359370787816e-07
2.265079365079365026e+00,3.595606003061772208e-06,-2.498943411865037844e-06
2.265873015873015817e+00,8.743704520142883992e-07,-5.620690789595186941e-06
2.266666666666666607e+00,-3.544172732412371283e-06,-9.735464026880297577e-06
2.267460317460317398e+00,-9.389592192330674367e-06,-1.505944677867462303e-05
2.268253968253968189e+00,-1.590195954786587294e-05,-2.118773804165093196e-05
2.269047619047618980e+00,-2.195553938934074754e-05,-2.748877645818047823e-05
2.269841269841269771e+00,-2.629230931692358794e-05,-3.355644220924080509e-05
2.270634920634920562e+00,-2.780026022771955901e-05,-3.946430800582369995e-05
2.271428571428571352e+00,-2.575948043520833526e-05,-4.566030128415190999e-05
2.272222222222222143e+00,-1.999578121471451791e-05,-5.250843333307727223e-05
2.273015873015872934e+00,-1.091551486248220554e-05,-5.966398099100019161e-05
2.273809523809523725e+00,5.702202480616528081e-07,-6.558523464292069711e-05
2.274603174603174516e+00,1.320041728002315605e-05,-6.748093564763644689e-05
2.275396825396825307e+00,2.555851077853372487e-05,-6.185521132488732744e-05
2.276190476190476097e+00,3.627204737581128283e-05,-4.558234523443400885e-05
2.276984126984126888e+00,4.419508829546692539e-05,-1.720566798846483029e-05
2.277777777777777679e+00,4.855948030014829340e-05,2.199279622832160658e-05
2.278571428571428470e+00,4.908131618793382675e-05,6.759032174691779972e-05
2.279365079365079261e+00,4.600341049275576030e-05,1.125430598225211871e-04
2.280158730158730052e+00,4.005335899600479590e-05,1.485884004093748810e-04
2.280952380952380842e+00,3.230788639332148157e-05,1.681865462054597327e-04
2.281746031746031633e+00,2.397694281804395850e-05,1.664423560030495663e-04
2.282539682539682424e+00,1.614764945054510362e-05,1.424121993160309290e-04
2.283333333333333215e+00,9.549244243051603433e-06,9.938332291022649201e-05
2.284126984126984006e+00,4.406135356571266947e-06,4.405688555746450945e-05
2.284920634920634797e+00,4.298698756069922741e-07,-1.507481035489288045e-05
2.285714285714285587e+00,-3.037145471537781209e-06,-6.963965157044798844e-05
2.286507936507936378e+00,-6.762296235217770090e-06,-1.130451049350941149e-04
2.287301587301587169e+00,-1.132624151439618749e-05,-1.414992981570140605e-04
2.288095238095237960e+00,-1.688507357247400872e-05,-1.542502941896059803e-04
2.288888888888888751e+00,-2.306911627993170680e-05,-1.531324735021829077e-04
2.289682539682539542e+00,-2.904844799828107458e-05,-1.416616425541243943e-04
2.290476190476190332e+00,-3.373780974379068855e-05,-1.239711269740705090e-04
2.291269841269841123e+00,-3.607143659586677369e-05,-1.038484846622269090e-04
2.292063492063491914e+00,-3.526642727544791690e-05,-8.405327123998586499e-05
2.292857142857142705e+00,-3.100952291454334543e-05,-6.600159068765402959e-05
2.293650793650793496e+00,-2.353355116325556875e-05,-4.981355808493556338e-05
2.294444444444444287e+00,-1.358282349961837006e-05,-3.465129863285707439e-05
2.295238095238095077e+00,-2.292106576877134985e-06,-1.923697182328978328e-05
2.296031746031745868e+00,8.983899777317378173e-06,-2.428837227554178488e-06
2.296825396825396659e+00,1.885478755155550425e-05,1.626346860659725485e-05
2.297619047619047450e+00,2.606643424664147407e-05,3.633289404487634355e-05
2.298412698412698241e+00,2.964652932240130652e-05,5.618474802588112110e-05
2.299206349206349032e+00,2.901764038420728481e-05,7.334436778068178522e-05
2.299999999999999822e+00,2.407437854625925323e-05,8.493368296227459229e-05
2.300793650793650613e+00,1.521908223026090460e-05,8.830886051283367340e-05
2.301587301587301404e+00,3.347590202112304465e-06,8.170321085575027291e-05
2.302380952380952195e+00,-1.022190526141921931e-05,6.472895660229833147e-05
2.303174603174602986e+00,-2.387614219297580455e-05,3.864564406544053406e-05
2.303968253968253777e+00,-3.587869197277307866e-05,6.362647593415837304e-06
2.304761904761904567e+00,-4.456800926901410191e-05,-2.782100859039256772e-05
2.305555555555555358e+00,-4.856304759785001415e-05,-5.872231463543924166e-05
2.306349206349206149e+00,-4.695952279383030310e-05,-8.099088963429453133e-05
2.307142857142856940e+00,-3.949563446301750422e-05,-8.996132187198547354e-05
2.307936507936507731e+00,-2.665602360232327192e-05,-8.250958559746031287e-05
2.308730158730158522e+00,-9.677285138083431640e-06,-5.774071071567828464e-05
2.309523809523809312e+00,9.571258926602740631e-06,-1.733886950197123289e-05
2.310317460317460103e+00,2.883017673432992632e-05,3.453222918740194721e-05
2.311111111111110894e+00,4.578033553064762379e-05,9.179666659451790600e-05
2.311904761904761685e+00,5.839967473132638129e-05,1.474105376428219184e-04
2.312698412698412920e+00,6.527686594001834311e-05,1.944915145750388344e-04
2.313492063492063711e+00,6.582176596103680381e-05,2.273820783701697957e-04
2.314285714285714501e+00,6.033289463177227314e-05,2.424115868338272124e-04
2.315079365079365292e+00,4.990757631274318263e-05,2.382222856396218563e-04
2.315873015873016083e+00,3.620917384251535294e-05,2.156632234442090973e-04
2.316666666666666874e+00,2.113678097692905055e-05,1.773676554084025966e-04
2.317460317460317665e+00,6.468860104005576154e-06,1.271739000261040567e-04
2.318253968253968456e+00,-6.437860286666644526e-06,6.953224450064127496e-05
2.319047619047619246e+00,-1.682646270036415934e-05,8.993935129418737765e-06
2.319841269841270037e+00,-2.456099201438366868e-05,-5.016902790237391343e-05
2.320634920634920828e+00,-3.000018410472949894e-05,-1.042037068132802322e-04
2.321428571428571619e+00,-3.377250268329916219e-05,-1.499973949863932232e-04
2.322222222222222410e+00,-3.652372351281842565e-05,-1.851214946985436363e-04
2.323015873015873201e+00,-3.870789217159484210e-05,-2.078445542990200383e-04
2.323809523809523991e+00,-4.047202177183575308e-05,-2.171562205459411619e-04
2.324603174603174782e+00,-4.165294684359785064e-05,-2.128295100188189442e-04
2.325396825396825573e+00,-4.187130525577110595e-05,-1.955157881483747713e-04
2.326190476190476364e+00,-4.068288582757591812e-05,-1.668199089732240719e-04
2.326984126984127155e+00,-3.773892716448803785e-05,-1.292739486418118672e-04
2.327777777777777946e+00,-3.291392178429588080e-05,-8.614853269976014642e-05
2.328571428571428736e+00,-2.637455113876360980e-05,-4.110697185915304544e-05
2.329365079365079527e+00,-1.857897068467787398e-05,2.220637684192628713e-06
2.330158730158730318e+00,-1.020919750215662747e-05,4.063354789290338470e-05
2.330952380952381109e+00,-2.052234828229617229e-06,7.164123012840727068e-05
2.331746031746031900e+00,5.141718526551341276e-06,9.360269964912708871e-05
2.332539682539682691e+00,1.078790671475728566e-05,1.057488666586556253e-04
2.333333333333333481e+00,1.455191533106365896e-05,1.081291847389901723e-04
2.334126984126984272e+00,1.638041920683264727e-05,1.015169880337882707e-04
2.334920634920635063e+00,1.648942320070433958e-05,8.729865131817878291e-05
2.335714285714285854e+00,1.532794446370627922e-05,6.735930036185884204e-05
2.336507936507936645e+00,1.352294866748631993e-05,4.395159004983752171e-05
2.337301587301587436e+00,1.179671822990778894e-05,1.950821148698367397e-05
2.338095238095238226e+00,1.084749250020252242e-05,-3.633378311199497867e-06
2.338888888888889017e+00,1.120072485252143276e-05,-2.357405420538596322e-05
2.339682539682539808e+00,1.306161095306335874e-05,-3.917987904917439945e-05
2.340476190476190599e+00,1.621570354393682295e-05,-5.027614214178446509e-05
2.341269841269841390e+00,2.002260100303923190e-05,-5.761447791373057036e-05
2.342063492063492181e+00,2.352526291880496193e-05,-6.258854309162881549e-05
2.342857142857142971e+00,2.566148621866088099e-05,-6.676135849526534060e-05
2.343650793650793762e+00,2.552787031031621695e-05,-7.133819726103247363e-05
2.344444444444444553e+00,2.262469545410122405e-05,-7.674416765016203203e-05
2.345238095238095344e+00,1.701221449353739189e-05,-8.243328146960667068e-05
2.346031746031746135e+00,9.334623118409483426e-06,-8.697912474409402359e-05
2.346825396825396925e+00,7.066649083329111781e-07,-8.841146744361635728e-05
2.347619047619047716e+00,-7.505923372873561249e-06,-8.470360263648687429e-05
2.348412698412698507e+00,-1.395878024139865339e-05,-7.429483212518129143e-05
2.349206349206349298e+00,-1.759560184536990729e-05,-5.654036743533133100e-05
2.350000000000000089e+00,-1.785775822307502267e-05,-3.199936380574029714e-05
2.350793650793650880e+00,-1.479858963554426595e-05,-2.493780953122210757e-06
2.351587301587301670e+00,-9.080419452646113518e-06,2.909591792870342718e-05
2.352380952380952461e+00,-1.851914018266548597e-06,5.927712394368021793e-05
2.353174603174603252e+00,5.473908711688844629e-06,8.454295087663492260e-05
2.353968253968254043e+00,1.149790033259414490e-05,1.019784946390686690e-04
2.354761904761904834e+00,1.510959919894412832e-05,1.097298630176738642e-04
2.355555555555555625e+00,1.569674605495648440e-05,1.072428540561559841e-04
2.356349206349206415e+00,1.324340149525460300e-05,9.525585676337477276e-05
2.357142857142857206e+00,8.300049665479435261e-06,7.559481225057883031e-05
2.357936507936507997e+00,1.841550376275154269e-06,5.084706976957635647e-05
2.358730158730158788e+00,-4.946998078574614701e-06,2.399013801494140693e-05
2.359523809523809579e+00,-1.090672284863176121e-05,-1.967285020748018260e-06
2.360317460317460370e+00,-1.511748941016770576e-05,-2.430156597720751387e-05
2.361111111111111160e+00,-1.705099135735354963e-05,-4.084157299647037126e-05
2.361904761904761951e+00,-1.664238922116545420e-05,-5.018981631910375449e-05
2.362698412698412742e+00,-1.427344711221607494e-05,-5.188810803979868058e-05
2.363492063492063533e+00,-1.067636472009554436e-05,-4.649769283115608561e-05
2.364285714285714324e+00,-6.781715875507985881e-06,-3.555240878841243009e-05
2.365079365079365115e+00,-3.540578555552457609e-06,-2.135296639248274568e-05
2.365873015873015905e+00,-1.748795342572083015e-06,-6.599946521600796864e-06
2.366666666666666696e+00,-1.896242441993955741e-06,6.095927580628007209e-06
2.367460317460317487e+00,-4.062074647511306859e-06,1.474574185305892491e-05
2.368253968253968278e+00,-7.876591051439217015e-06,1.844295548670989149e-05
2.369047619047619069e+00,-1.256481064776844750e-05,1.762545135884264363e-05
2.369841269841269860e+00,-1.707248827684855491e-05,1.403259520172105371e-05
2.370634920634920650e+00,-2.025615709923477852e-05,1.031694070509461868e-05
2.371428571428571441e+00,-2.110288082603611125e-05,9.371420634313542652e-06
2.372222222222222232e+00,-1.893766791376880600e-05,1.353150246153954166e-05
2.373015873015873023e+00,-1.357635147681966944e-05,2.386547050632312442e-05
2.373809523809523814e+00,-5.387947176756253609e-06,3.975361565194002883e-05
2.374603174603174605e+00,4.754291640938862023e-06,5.888241771461425074e-05
2.375396825396825395e+00,1.562721345527709271e-05,7.766484457073629798e-05
2.376190476190476186e+00,2.587975445691256018e-05,9.198142741975850740e-05
2.376984126984126977e+00,3.426326340525441604e-05,9.806202554959753690e-05
2.377777777777777768e+00,3.981238145501959393e-05,9.331415066847291830e-05
2.378571428571428559e+00,4.194282761646865609e-05,7.693344423894507187e-05
2.379365079365079350e+00,4.046667241925568114e-05,5.017781079952018578e-05
2.380158730158730140e+00,3.555357586774853001e-05,1.623953349561560932e-05
2.380952380952380931e+00,2.767543831619926264e-05,-2.028324811726597596e-05
2.381746031746031722e+00,1.755975239630956143e-05,-5.422980324157268724e-05
2.382539682539682513e+00,6.153530464869352273e-06,-8.086213786458696046e-05
2.383333333333333304e+00,-5.420165905981269554e-06,-9.676346992766078495e-05
2.384126984126984095e+00,-1.593746574343302041e-05,-1.004277000385054544e-04
2.384920634920634885e+00,-2.419628875819647521e-05,-9.239497820899123632e-05
2.385714285714285676e+00,-2.918187221995363902e-05,-7.491261685110841792e-05
2.386507936507936467e+00,-3.024728982549202948e-05,-5.123368854435902291e-05
2.387301587301587258e+00,-2.726416166523732080e-05,-2.477051420170070419e-05
2.388095238095238049e+00,-2.069646074344714824e-05,1.636624457616187903e-06
2.388888888888888840e+00,-1.156433374693457697e-05,2.611582795731809940e-05
2.389682539682539630e+00,-1.291448496539064881e-06,4.772251535142264355e-05
2.390476190476190421e+00,8.538685914858565749e-06,6.601437046816824978e-05
2.391269841269841212e+00,1.646477039611061750e-05,8.044340201015480875e-05
2.392063492063492003e+00,2.140282123834992334e-05,8.986312895628745148e-05
2.392857142857142794e+00,2.281591617517865817e-05,9.244698837353506336e-05
2.393650793650793585e+00,2.076506117554224415e-05,8.617055986623920838e-05
2.394444444444444375e+00,1.584226377050096366e-05,6.974396326933373659e-05
2.395238095238095166e+00,9.017458379471076908e-06,4.361215534260110943e-05
2.396031746031745957e+00,1.444931738995459232e-06,1.053456011995529283e-05
2.396825396825396748e+00,-5.729782468760624686e-06,-2.460566861928182008e-05
2.397619047619047539e+00,-1.153579843132901774e-05,-5.579681286695126614e-05
2.398412698412698330e+00,-1.530139241332349634e-05,-7.740353608193373106e-05
2.399206349206349120e+00,-1.672924814754000734e-05,-8.569135883232125480e-05
2.399999999999999911e+00,-1.591640880139810616e-05,-7.987717259970581656e-05
2.400793650793650702e+00,-1.331392401406415236e-05,-6.237479865355923024e-05
2.401587301587301493e+00,-9.624963738764529109e-06,-3.815941035453891472e-05
2.402380952380952284e+00,-5.650696602031262415e-06,-1.343944368965602279e-05
2.403174603174603075e+00,-2.111096977370873737e-06,5.973920583977949841e-06
2.403968253968253865e+00,5.144352333603480505e-07,1.612868162808523873e-05
2.404761904761904656e+00,2.077198483564406741e-06,1.581973083155135582e-05
2.405555555555555447e+00,2.747872274673668588e-06,6.684433348466507800e-06
2.406349206349206238e+00,2.906450198589038583e-06,-7.471448583427405095e-06
2.407142857142857029e+00,2.972920681015395145e-06,-2.188227363247013523e-05
2.407936507936507819e+00,3.240267591784638793e-06,-3.220045543589357791e-05
2.408730158730158610e+00,3.770021103428186917e-06,-3.565518606944570934e-05
2.409523809523809401e+00,4.385857074267128509e-06,-3.168731435712185938e-05
2.410317460317460192e+00,4.760432910991033987e-06,-2.192469552165130531e-05
2.411111111111110983e+00,4.552312959631870186e-06,-9.561443276525430967e-06
2.411904761904761774e+00,3.535336636576331988e-06,1.636614504682877560e-06
2.412698412698412564e+00,1.679896263049137120e-06,8.405940635526077317e-06
2.413492063492063355e+00,-8.232308406446174543e-07,8.859182174783722900e-06
2.414285714285714146e+00,-3.586647498012638819e-06,2.952344918357319768e-06
2.415079365079364937e+00,-6.087627052293536982e-06,-7.553956450777029280e-06
2.415873015873015728e+00,-7.761202144117024864e-06,-1.960962236189893272e-05
2.416666666666666519e+00,-8.114808246361564754e-06,-2.971043554089655974e-05
2.417460317460317309e+00,-6.843195769468627097e-06,-3.481366507825469671e-05
2.418253968253968100e+00,-3.916001586227450266e-06,-3.308608324512815184e-05
2.419047619047618891e+00,3.845115232966533439e-07,-2.430571521911860527e-05
2.419841269841269682e+00,5.484195465440172431e-06,-9.852899976172810871e-06
2.420634920634920473e+00,1.059034848621241127e-05,7.659686500249158404e-06
2.421428571428571264e+00,1.480323579115199489e-05,2.499056141617690016e-05
2.422222222222222054e+00,1.725004070061207602e-05,3.895039410069995499e-05
2.423015873015872845e+00,1.722693881207546041e-05,4.701723253712061578e-05
2.423809523809523636e+00,1.433394351755370320e-05,4.778190505540860371e-05
2.424603174603174427e+00,8.582736093780543785e-06,4.116766025276093964e-05
2.425396825396825218e+00,4.540978616352083172e-07,2.840801130774145896e-05
2.426190476190476009e+00,-9.116126617768672389e-06,1.179171107199297856e-05
2.426984126984126799e+00,-1.883360751082996599e-05,-5.792313804419195017e-06
2.427777777777777590e+00,-2.722012962445866872e-05,-2.143710147132538269e-05
2.428571428571428381e+00,-3.284452570511736989e-05,-3.280588761864673019e-05
2.429365079365079172e+00,-3.457320326235952885e-05,-3.858218441818388037e-05
2.430158730158729963e+00,-3.179341768074945575e-05,-3.866419052216281925e-05
2.430952380952380754e+00,-2.456043286469681349e-05,-3.405923447469770809e-05
2.431746031746031544e+00,-1.362923958503076912e-05,-2.652746613284608267e-05
2.432539682539682335e+00,-3.534267079771448062e-07,-1.810396601947088710e-05
2.433333333333333126e+00,1.353618312189748833e-05,-1.066225997925607177e-05
2.434126984126983917e+00,2.623084500274751340e-05,-5.649056479572164021e-06
2.434920634920634708e+00,3.615848416699284952e-05,-4.028293612780701110e-06
2.435714285714285499e+00,4.224600433863652781e-05,-6.366280856857816891e-06
2.436507936507936289e+00,4.407396968215764564e-05,-1.292596838544416415e-05
2.437301587301587080e+00,4.189447767291054647e-05,-2.365188400566206888e-05
2.438095238095238315e+00,3.651612265239456879e-05,-3.801055064529367515e-05
2.438888888888889106e+00,2.909117971287246884e-05,-5.475920785762296137e-05
2.439682539682539897e+00,2.086151631425636275e-05,-7.178956326271148346e-05
2.440476190476190688e+00,1.292600338735105630e-05,-8.619365756739599403e-05
2.441269841269841478e+00,6.081657134374910630e-06,-9.462742210694833982e-05
2.442063492063492269e+00,7.657672546252371042e-07,-9.393899407274621839e-05
2.442857142857143060e+00,-2.906153630293401148e-06,-8.192472592826145555e-05
2.443650793650793851e+00,-5.041145956990938923e-06,-5.800749530387338442e-05
2.444444444444444642e+00,-5.858835456352144206e-06,-2.362331034585901104e-05
2.445238095238095433e+00,-5.617623067050353714e-06,1.783081477317541855e-05
2.446031746031746223e+00,-4.601589546066637036e-06,6.150496650600818750e-05
2.446825396825397014e+00,-3.160740208219261922e-06,1.019402144558000589e-04
2.447619047619047805e+00,-1.769635566075853301e-06,1.340474792074506163e-04
2.448412698412698596e+00,-1.057594362369236832e-06,1.540162627582643219e-04
2.449206349206349387e+00,-1.771289448393608095e-06,1.599881402577109227e-04
2.450000000000000178e+00,-4.654552697868089460e-06,1.523783382174244958e-04
2.450793650793650968e+00,-1.026306820330521308e-05,1.337785939492104582e-04
2.451587301587301759e+00,-1.876263541094887432e-05,1.084370898296371696e-04
2.452380952380952550e+00,-2.977674311403809550e-05,8.139311214631778373e-05
2.453174603174603341e+00,-4.234378479700374136e-05,5.743343886206417234e-05
2.453968253968254132e+00,-5.501692722006671412e-05,4.010085059720296211e-05
2.454761904761904923e+00,-6.610080702302214705e-05,3.098323555468149824e-05
2.455555555555555713e+00,-7.398201737586068965e-05,2.943337324758499754e-05
2.456349206349206504e+00,-7.748184474976312704e-05,3.275058190749803420e-05
2.457142857142857295e+00,-7.614235065851354168e-05,3.675405196278757567e-05
2.457936507936508086e+00,-7.035820425811058101e-05,3.662835361465660843e-05
2.458730158730158877e+00,-6.129817462343510506e-05,2.791664092092218836e-05
2.459523809523809668e+00,-5.062077894146595501e-05,7.542584615958047830e-06
2.460317460317460458e+00,-4.005607698818954314e-05,-2.527559286893162936e-05
2.461111111111111249e+00,-3.097061261915916736e-05,-6.840172171399157286e-05
2.461904761904762040e+00,-2.403773273230961849e-05,-1.166663905557142856e-04
2.462698412698412831e+00,-1.910254365312231782e-05,-1.624388090231891450e-04
2.463492063492063622e+00,-1.527537396943157537e-05,-1.969206856177560419e-04
2.464285714285714413e+00,-1.122925764170712108e-05,-2.119720198075450044e-04
2.465079365079365203e+00,-5.627038386291859379e-06,-2.020504153075564709e-04
2.465873015873015994e+00,2.435683586257975526e-06,-1.657218014041019556e-04
2.466666666666666785e+00,1.310697577277781578e-05,-1.062708068667202448e-04
2.467460317460317576e+00,2.569084698694475570e-05,-3.120512195410155189e-05
2.468253968253968367e+00,3.883635542569206415e-05,4.919917912464681121e-05
2.469047619047619158e+00,5.093401841726778940e-05,1.238814207574444586e-04
2.469841269841269948e+00,6.056282379934048459e-05,1.829764957335327331e-04
2.470634920634920739e+00,6.681831357310640115e-05,2.193530679448926714e-04
2.471428571428571530e+00,6.941711225686239160e-05,2.294892560289988758e-04
2.472222222222222321e+00,6.857516761622175128e-05,2.136822623887942637e-04
2.473015873015873112e+00,6.474630342857732809e-05,1.757077474324743825e-04
2.473809523809523903e+00,5.835332042207094468e-05,1.220610552589550545e-04
2.474603174603174693e+00,4.963552120748707672e-05,6.089083912116336362e-05
2.475396825396825484e+00,3.867981948836356155e-05,7.365426140899975245e-07
2.476190476190476275e+00,2.562040835897499378e-05,-5.078127380364731724e-05
2.476984126984127066e+00,1.091931478615914294e-05,-8.812122540522513011e-05
2.477777777777777857e+00,-4.395421865585823547e-06,-1.086248280939755751e-04
2.478571428571428648e+00,-1.864996152107061271e-05,-1.128143620715262789e-04
2.479365079365079438e+00,-2.967676654490773722e-05,-1.041404752033689803e-04
2.480158730158730229e+00,-3.520054747673568728e-05,-8.822456578604778786e-05
2.480952380952381020e+00,-3.336893204089786015e-05,-7.168307763568752236e-05
2.481746031746031811e+00,-2.325886849438873777e-05,-6.066014092754069289e-05
2.482539682539682602e+00,-5.171619305737746007e-06,-5.929314648902826745e-05
2.483333333333333393e+00,1.939456698536381143e-05,-6.846579257788949790e-05
2.484126984126984183e+00,4.806353504191703197e-05,-8.524684606141437210e-05
2.484920634920634974e+00,7.803991491510849359e-05,-1.032878575204375544e-04
2.485714285714285765e+00,1.065290038884716262e-04,-1.142025606858418054e-04
2.486507936507936556e+00,1.310129627735453345e-04,-1.096800331315391587e-04
2.487301587301587347e+00,1.493900692012606931e-04,-8.385729687877853931e-05
2.488095238095238138e+00,1.600585206439110182e-04,-3.532891056988036576e-05
2.488888888888888928e+00,1.620239453104232996e-04,3.182750552300557561e-05
2.489682539682539719e+00,1.550426394030303705e-04,1.084050746326851533e-04
2.490476190476190510e+00,1.397333443451245294e-04,1.817856270833049961e-04
2.491269841269841301e+00,1.175564203145192300e-04,2.385883918033384168e-04
2.492063492063492092e+00,9.059486750763591056e-05,2.675697849175034970e-04
2.492857142857142883e+00,6.115729020882701905e-05,2.620749902931811693e-04
2.493650793650793673e+00,3.131248284989562002e-05,2.214952013344504062e-04
2.494444444444444464e+00,2.511341732633297917e-06,1.514406462044133302e-04
2.495238095238095255e+00,-2.457208099139052279e-05,6.264293580474134297e-05
2.496031746031746046e+00,-4.993265941588864211e-05,-3.112005028902276315e-05
2.496825396825396837e+00,-7.391458447750344832e-05,-1.156050905827033952e-04
2.497619047619047628e+00,-9.680881339714175423e-05,-1.786697331437588434e-04
2.498412698412698418e+00,-1.185126998995769269e-04,-2.123463427861576160e-04
2.499206349206349209e+00,-1.383591204899880579e-04,-2.140378025157830318e-04
2.500000000000000000e+00,-1.551564409187833804e-04,-1.865909180984093774e-04
2.500793650793650791e+00,-1.674168467993099915e-04,-1.372304864684112478e-04
2.501587301587301582e+00,-1.737063498381451404e-04,-7.563727198844742445e-05
2.502380952380952372e+00,-1.730262191756801887e-04,-1.172749297287655149e-05
2.503174603174603163e+00,-1.651282910779804396e-04,4.620419349353214393e-05
2.503968253968253954e+00,-1.506770826862219314e-04,9.247038274771581911e-05
2.504761904761904745e+00,-1.312047160995059999e-04,1.239694009493488142e-04
2.505555555555555536e+00,-1.088568832963464009e-04,1.394471890800933877e-04
2.506349206349206327e+00,-8.598455145211328441e-05,1.386083369719673906e-04
2.507142857142857117e+00,-6.467975579218256360e-05,1.216242001380619795e-04
2.507936507936507908e+00,-4.637350219636831688e-05,8.928403642972141633e-05
2.508730158730158699e+00,-3.160426867520728329e-05,4.362316625880335440e-05
2.509523809523809490e+00,-2.002618640941676302e-05,-1.142026491127566268e-05
2.510317460317460281e+00,-1.066250461540147529e-05,-6.978655703906416611e-05
2.511111111111111072e+00,-2.337237452598016012e-06,-1.237820082960450999e-04
2.511904761904761862e+00,5.841283616196726949e-06,-1.652634979591317127e-04
2.512698412698412653e+00,1.409412733507342339e-05,-1.872584426980176638e-04
2.513492063492063444e+00,2.180766220087140093e-05,-1.855892023442012374e-04
2.514285714285714235e+00,2.765250835626624043e-05,-1.600350120866248275e-04
2.515079365079365026e+00,2.996421457431410683e-05,-1.146855631479221381e-04
2.515873015873015817e+00,2.728959454440951259e-05,-5.737118251365624395e-05
2.516666666666666607e+00,1.895488738871818990e-05,1.708137465766971880e-06
2.517460317460317398e+00,5.499056236246615826e-06,5.187557964096891760e-05
2.518253968253968189e+00,-1.116366687598318477e-05,8.404967785388818113e-05
2.519047619047618980e+00,-2.793621295959132511e-05,9.263367012903228127e-05
2.519841269841269771e+00,-4.108887290823526100e-05,7.683702505298037073e-05
2.520634920634920562e+00,-4.706685233739917290e-05,4.104836396232775539e-05
2.521428571428571352e+00,-4.335727703103461921e-05,-5.986480305291371932e-06
2.522222222222222143e+00,-2.916987060125108216e-05,-5.311103265972712294e-05
2.523015873015872934e+00,-5.720856563585704459e-06,-8.937282062993538126e-05
2.523809523809523725e+00,2.397686106844640897e-05,-1.065961054516482347e-04
2.524603174603174516e+00,5.576499672793263517e-05,-1.011989643187441624e-04
2.525396825396825307e+00,8.524910741722382100e-05,-7.476449044096606874e-05
2.526190476190476097e+00,1.087111576191351339e-04,-3.324228561628911490e-05
2.526984126984126888e+00,1.237818981031737250e-04,1.493279601334228118e-05
2.527777777777777679e+00,1.297169065332319071e-04,6.118690329691429790e-05
2.528571428571428470e+00,1.272494065729687742e-04,9.887850383596719387e-05
2.529365079365079261e+00,1.181159381780629502e-04,1.245015201365032374e-04
2.530158730158730052e+00,1.044283920716254204e-04,1.377842638122909222e-04
2.530952380952380842e+00,8.808178357045582014e-05,1.408591434803248851e-04
2.531746031746031633e+00,7.034921087544420901e-05,1.369663270133328380e-04
2.532539682539682424e+00,5.174641180654329501e-05,1.292165181007738758e-04
2.533333333333333215e+00,3.217221399141903618e-05,1.197905016884908297e-04
2.534126984126984006e+00,1.126371452304755635e-05,1.097019374380884984e-04
2.534920634920634797e+00,-1.114550990039841992e-05,9.901811040155201538e-05
2.535714285714285587e+00,-3.460260683105651955e-05,8.730482699729391800e-05
2.536507936507936378e+00,-5.778194427556643850e-05,7.405894842180430968e-05
2.537301587301587169e+00,-7.849487473493617514e-05,5.898420558366545765e-05
2.538095238095237960e+00,-9.398729219649537255e-05,4.209022560915893710e-05
2.538888888888888751e+00,-1.014690069112966222e-04,2.368059915135752911e-05
2.539682539682539542e+00,-9.875305060990893129e-05,4.300924807457611742e-06
2.540476190476190332e+00,-8.485145537795964264e-05,-1.533600674816611303e-05
2.541269841269841123e+00,-6.038093020666518890e-05,-3.447283011805061772e-05
2.542063492063491914e+00,-2.766894305395625923e-05,-5.248479321347514909e-05
2.542857142857142705e+00,9.491227853103243148e-06,-6.905903404682992106e-05
2.543650793650793496e+00,4.641388484146556485e-05,-8.428084952264243066e-05
2.544444444444444287e+00,7.831806790788111881e-05,-9.854451637146545396e-05
2.545238095238095077e+00,1.011746823935840805e-04,-1.122704317532299096e-04
2.546031746031745868e+00,1.124042438121517184e-04,-1.254940156275072922e-04
2.546825396825396659e+00,1.112629080041497670e-04,-1.374612429008007820e-04
2.547619047619047450e+00,9.884316170009141563e-05,-1.464048695834662588e-04
2.548412698412698241e+00,7.772026978190571262e-05,-1.496747972894094645e-04
2.549206349206349032e+00,5.135836132872513787e-05,-1.443247620323864474e-04
2.549999999999999822e+00,2.342953407651827939e-05,-1.280865355314323979e-04
2.550793650793650613e+00,-2.804929302544818176e-06,-1.004389191690459332e-04
2.551587301587301404e+00,-2.493774718883260436e-05,-6.333609639058133966e-05
2.552380952380952195e+00,-4.162234119623085072e-05,-2.121678200269616073e-05
2.553174603174602986e+00,-5.254059009094338886e-05,1.983025613365754544e-05
2.553968253968253777e+00,-5.818281950015297214e-05,5.354185466787699904e-05
2.554761904761904567e+00,-5.952762338611447887e-05,7.515781749875259676e-05
2.555555555555555358e+00,-5.771821338851427499e-05,8.280363135345123566e-05
2.556349206349206149e+00,-5.381307544185912094e-05,7.816851249636668907e-05
2.557142857142856940e+00,-4.865147738541525493e-05,6.621676998299124361e-05
2.557936507936507731e+00,-4.283310074660764521e-05,5.387869582366390726e-05
2.558730158730158522e+00,-3.677831349627578601e-05,4.797479179841166591e-05
2.559523809523809312e+00,-3.081894409427479855e-05,5.296332978103135490e-05
2.560317460317460103e+00,-2.527062705001908324e-05,6.928040542239389946e-05
2.561111111111110894e+00,-2.045367381557451611e-05,9.292018900159838683e-05
2.561904761904761685e+00,-1.665380079968106081e-05,1.164930060606496467e-04
2.562698412698412920e+00,-1.403962088436392872e-05,1.314611146413998419e-04
2.563492063492063711e+00,-1.257324634380780625e-05,1.308166805803951435e-04
2.564285714285714501e+00,-1.195681494592114232e-05,1.113144372478008987e-04
2.565079365079365292e+00,-1.164691214557239833e-05,7.454531599534772548e-05
2.565873015873016083e+00,-1.094374397932182711e-05,2.654644014623609456e-05
2.566666666666666874e+00,-9.134601079341203467e-06,-2.387323840049001273e-05
2.567460317460317665e+00,-5.654811569552828319e-06,-6.752418421151949138e-05
2.568253968253968456e+00,-2.277912083166070636e-07,-9.720457046762950122e-05
2.569047619047619246e+00,7.046507841676581293e-06,-1.093732566589532301e-04
2.569841269841270037e+00,1.567436612280126177e-05,-1.047070969946857738e-04
2.570634920634920828e+00,2.482896299119191215e-05,-8.747514053964624398e-05
2.571428571428571619e+00,3.348070606669202262e-05,-6.401898525680297844e-05
2.572222222222222410e+00,4.057371699690890640e-05,-4.087724690357632813e-05
2.573015873015873201e+00,4.521275272982228023e-05,-2.314460305201028969e-05
2.573809523809523991e+00,4.681950005450140112e-05,-1.350086602662332476e-05
2.574603174603174782e+00,4.522176481443574770e-05,-1.206199031658311432e-05
2.575396825396825573e+00,4.065447612713881477e-05,-1.692213015254558604e-05
2.576190476190476364e+00,3.367468980273675744e-05,-2.508180176036392322e-05
2.576984126984127155e+00,2.501691853076927301e-05,-3.342476146643374811e-05
2.577777777777777946e+00,1.543172209405961406e-05,-3.947964921102725547e-05
2.578571428571428736e+00,5.553658657438761512e-06,-4.182449682840075827e-05
2.579365079365079527e+00,-4.166514723666572562e-06,-4.011891108449511077e-05
2.580158730158730318e+00,-1.345213330236667741e-05,-3.485190412383642875e-05
2.580952380952381109e+00,-2.212510221115216927e-05,-2.695160639067081378e-05
2.581746031746031900e+00,-2.999708712696664967e-05,-1.740693125753334312e-05
2.582539682539682691e+00,-3.677123085837363418e-05,-7.012442425752332156e-06
2.583333333333333481e+00,-4.199695691925467368e-05,3.712633001261260536e-06
2.584126984126984272e+00,-4.510535773989509642e-05,1.444852642798080324e-05
2.584920634920635063e+00,-4.552517683140233331e-05,2.491909014112720456e-05
2.585714285714285854e+00,-4.284683139725899701e-05,3.475338696540473780e-05
2.586507936507936645e+00,-3.697870740538838089e-05,4.342734855856830939e-05
2.587301587301587436e+00,-2.824017011855998330e-05,5.028734988062620907e-05
2.588095238095238226e+00,-1.736038838142448372e-05,5.461976497401252028e-05
2.588888888888889017e+00,-5.386063364955696756e-06,5.573179669307889810e-05
2.589682539682539808e+00,6.473615419667962851e-06,5.302624931916253426e-05
2.590476190476190599e+00,1.702676536402066454e-05,4.606551836580459247e-05
2.591269841269841390e+00,2.526685264499169858e-05,3.463046982494623289e-05
2.592063492063492181e+00,3.049946497647638654e-05,1.879501995657962085e-05
2.592857142857142971e+00,3.240883192032340671e-05,-9.528695418784669334e-07
2.593650793650793762e+00,3.105888176718050493e-05,-2.352938845873084103e-05
2.594444444444444553e+00,2.683840935472059150e-05,-4.704786830465595163e-05
2.595238095238095344e+00,2.037134883736990110e-05,-6.868604675773602871e-05
2.596031746031746135e+00,1.241736791824196236e-05,-8.476980910421242255e-05
2.596825396825396925e+00,3.784079448933318390e-06,-9.120489294457815894e-05
2.597619047619047716e+00,-4.737779497738997533e-06,-8.430171444337160140e-05
2.598412698412698507e+00,-1.241665315230798833e-05,-6.187721943735727292e-05
2.599206349206349298e+00,-1.860935444147273786e-05,-2.433036008448745779e-05
2.600000000000000089e+00,-2.278932457773774216e-05,2.472671879381429833e-05
2.600793650793650880e+00,-2.458214877562793865e-05,7.864531719473148936e-05
2.601587301587301670e+00,-2.380762622212982322e-05,1.288454043168081869e-04
2.602380952380952461e+00,-2.051802887012906814e-05,1.666253343810901433e-04
2.603174603174603252e+00,-1.501691745846231203e-05,1.851587952311355178e-04
2.603968253968254043e+00,-7.845202964816650753e-06,1.810641547661699722e-04
2.604761904761904834e+00,2.704136805381168608e-07,1.550842447777666809e-04
2.605555555555555625e+00,8.501578470047727010e-06,1.117436314477066403e-04
2.606349206349206415e+00,1.602234706261728938e-05,5.819081453598640646e-05
2.607142857142857206e+00,2.211617180726451400e-05,2.632063878428278715e-06
2.607936507936507997e+00,2.626710724688254212e-05,-4.722969934544122872e-05
2.608730158730158788e+00,2.821751182887968497e-05,-8.546119587706573427e-05
2.609523809523809579e+00,2.797981281348446470e-05,-1.087225435449801501e-04
2.610317460317460370e+00,2.580072482876105488e-05,-1.165893590291882742e-04
2.611111111111111160e+00,2.208999373927084863e-05,-1.113559150186652823e-04
2.611904761904761951e+00,1.733558199871647194e-05,-9.734368632818667230e-05
2.612698412698412742e+00,1.202757155197782805e-05,-7.981261719487478513e-05
2.613492063492063533e+00,6.604435644800646828e-06,-6.367427220715808688e-05
2.614285714285714324e+00,1.423918034360344356e-06,-5.230089121589371053e-05
2.615079365079365115e+00,-3.246940616262983978e-06,-4.675284498686411186e-05
2.615873015873015905e+00,-7.229987908021778904e-06,-4.566099911020827601e-05
2.616666666666666696e+00,-1.042793216172378353e-05,-4.580811628248654822e-05
2.617460317460317487e+00,-1.281310158771020252e-05,-4.322810333804229276e-05
2.618253968253968278e+00,-1.441419987369907647e-05,-3.448025016267018970e-05
2.619047619047619069e+00,-1.530169693123086005e-05,-1.771852043586887154e-05
2.619841269841269860e+00,-1.557272450654938531e-05,6.737922545551281487e-06
2.620634920634920650e+00,-1.533645674444094443e-05,3.646139007597574733e-05
2.621428571428571441e+00,-1.470069110264318837e-05,6.753665908716984911e-05
2.622222222222222232e+00,-1.376052389242922851e-05,9.551837902069727651e-05
2.623015873015873023e+00,-1.259096766768007338e-05,1.164128199590760564e-04
2.623809523809523814e+00,-1.124579114594069736e-05,1.274063921706837781e-04
2.624603174603174605e+00,-9.763396186529154947e-06,1.272011087440910607e-04
2.625396825396825395e+00,-8.177764716765645986e-06,1.159851296952704280e-04
2.626190476190476186e+00,-6.530420409716633074e-06,9.517967880578446810e-05
2.626984126984126977e+00,-4.879252391701042382e-06,6.711908379218788849e-05
2.627777777777777768e+00,-3.301588914805440338e-06,3.475645787918418416e-05
2.628571428571428559e+00,-1.890755576292669329e-06,1.399306012242737501e-06
2.629365079365079350e+00,-7.463640387886150480e-07,-2.957785971575564555e-05
2.630158730158730140e+00,4.132619073142736601e-08,-5.509287032939718824e-05
2.630952380952380931e+00,4.124126185211060966e-07,-7.277560129232922136e-05
2.631746031746031722e+00,3.614834834457477667e-07,-8.136027435772304358e-05
2.632539682539682513e+00,-4.086443720377044300e-08,-8.092656403589535915e-05
2.633333333333333304e+00,-6.386702493559715162e-07,-7.289461437159171068e-05
2.634126984126984095e+00,-1.204096779689384344e-06,-5.974787935157856194e-05
2.634920634920634885e+00,-1.480326506609069681e-06,-4.452588653482776517e-05
2.635714285714285676e+00,-1.250522411888092884e-06,-3.018091016313740216e-05
2.636507936507936467e+00,-4.161809841440855265e-07,-1.893426817290725305e-05
2.637301587301587258e+00,9.430781022422741824e-07,-1.179830666336817251e-05
2.638095238095238049e+00,2.558415786294394582e-06,-8.425212901488796804e-06
2.638888888888888840e+00,4.027945036837377095e-06,-7.371345099464638504e-06
2.639682539682539630e+00,4.935410829898140801e-06,-6.724474502594689756e-06
2.640476190476190421e+00,5.000305765342889799e-06,-4.889337143659507143e-06
2.641269841269841212e+00,4.210362225457009044e-06,-1.250702972473634490e-06
2.642063492063492003e+00,2.885814263165861052e-06,3.524313361549599816e-06
2.642857142857142794e+00,1.641356163368169838e-06,7.651539594194523426e-06
2.643650793650793585e+00,1.241960771844935299e-06,8.810505952285239362e-06
2.644444444444444375e+00,2.384129115358630806e-06,4.951711333967381810e-06
2.645238095238095166e+00,5.463242347035110402e-06,-4.935587071150483896e-06
2.646031746031745957e+00,1.039877469435756921e-05,-2.034840347469615390e-05
2.646825396825396748e+00,1.657607937992122736e-05,-3.923881568270103602e-05
2.647619047619047539e+00,2.293000786669417929e-05,-5.842795817091148451e-05
2.648412698412698330e+00,2.815362588660103360e-05,-7.433230772208520524e-05
2.649206349206349120e+00,3.097905411520987453e-05,-8.379591376365509378e-05
2.649999999999999911e+00,3.045834350030727144e-05,-8.481878161570138820e-05
2.650793650793650702e+00,2.617533209196918142e-05,-7.701635820132979944e-05
2.651587301587301493e+00,1.834217866205724016e-05,-6.171224660485118531e-05
2.652380952380952284e+00,7.768001476869439354e-06,-4.164592130549054830e-05
2.653174603174603075e+00,-4.279922978020359723e-06,-2.036392487268161205e-05
2.653968253968253865e+00,-1.628017841816586838e-05,-1.437790360856514841e-06
2.654761904761904656e+00,-2.667955214270603727e-05,1.231008953433134196e-05
2.655555555555555447e+00,-3.409784881881477850e-05,1.940033181814969910e-05
2.656349206349206238e+00,-3.749759320392192754e-05,1.998442200126627848e-05
2.657142857142857029e+00,-3.631529442606351999e-05,1.576783195596852629e-05
2.657936507936507819e+00,-3.055329712523790342e-05,9.583000906381302985e-06
2.658730158730158610e+00,-2.082168354353208510e-05,4.698184822633659811e-06
2.659523809523809401e+00,-8.307281999993676046e-06,4.011043561396802063e-06
2.660317460317460192e+00,5.354463842785446093e-06,9.318116628019434700e-06
2.661111111111110983e+00,1.831029226475917673e-05,2.085274682335821740e-05
2.661904761904761774e+00,2.879385548505084816e-05,3.722580237173954919e-05
2.662698412698412564e+00,3.544187482420677049e-05,5.578786650079001067e-05
2.663492063492063355e+00,3.754332728614598216e-05,7.329292512188722046e-05
2.664285714285714146e+00,3.515460021345011787e-05,8.664088309471364461e-05
2.665079365079364937e+00,2.904914424862423770e-05,9.346599101496669065e-05
2.665873015873015728e+00,2.051634941204416056e-05,9.243426114071533748e-05
2.666666666666666519e+00,1.106387335944188236e-05,8.326080541386075319e-05
2.667460317460317309e+00,2.098519906298479485e-06,6.656732026081152432e-05
2.668253968253968100e+00,-5.339838025301519455e-06,4.371640783036482241e-05
2.669047619047618891e+00,-1.073534623328910743e-05,1.669861065407156792e-05
2.669841269841269682e+00,-1.411836800986053179e-05,-1.193695451552724887e-05
2.670634920634920473e+00,-1.596036302077177472e-05,-3.918051534775013176e-05
2.671428571428571264e+00,-1.697773465704118521e-05,-6.177715702771570177e-05
2.672222222222222054e+00,-1.789885939383902450e-05,-7.661389068695449560e-05
2.673015873015872845e+00,-1.925260975626108556e-05,-8.125593422678925191e-05
2.673809523809523636e+00,-2.122678813286931704e-05,-7.452042787678735743e-05
2.674603174603174427e+00,-2.362423461634731157e-05,-5.691223928524438979e-05
2.675396825396825218e+00,-2.591954262285629229e-05,-3.074330229807371954e-05
2.676190476190476009e+00,-2.739752380838716332e-05,1.710309115445102988e-07
2.676984126984126799e+00,-2.733993878927141197e-05,3.121209121795334186e-05
2.677777777777777590e+00,-2.521958223582939428e-05,5.788047954997018336e-05
2.678571428571428381e+00,-2.085909615555346110e-05,7.667252555686068609e-05
2.679365079365079172e+00,-1.451632141824678794e-05,8.565448034713163525e-05
2.680158730158729963e+00,-6.871194748611305762e-06,8.460094951248450378e-05
2.680952380952380754e+00,1.088172829104350887e-06,7.473624833651657689e-05
2.681746031746031544e+00,8.255885314984226769e-06,5.824768154762228692e-05
2.682539682539682335e+00,1.362992806267992275e-05,3.776785558219834349e-05
2.683333333333333126e+00,1.651318482853341492e-05,1.595918882550246591e-05
2.684126984126983917e+00,1.665027366943084474e-05,-4.761040248887649151e-06
2.684920634920634708e+00,1.427439029031367769e-05,-2.238478536977180471e-05
2.685714285714285499e+00,1.005825541339961728e-05,-3.541779302238410513e-05
2.686507936507936289e+00,4.981291187737484869e-06,-4.296341830818674968e-05
2.687301587301587080e+00,1.397945618862321078e-07,-4.479653742414872443e-05
2.688095238095238315e+00,-3.462925369721435255e-06,-4.140644821878882895e-05
2.688888888888889106e+00,-5.104894684649399638e-06,-3.396156336941591925e-05
2.689682539682539897e+00,-4.473298175399919682e-06,-2.414542528846762691e-05
2.690476190476190688e+00,-1.704068818677593839e-06,-1.384873033183549136e-05
2.691269841269841478e+00,2.674892617374040230e-06,-4.770197813416570896e-06
2.692063492063492269e+00,7.881583855197881765e-06,1.954801701400230728e-06
2.692857142857143060e+00,1.306295842039006848e-05,5.963161106837376008e-06
2.693650793650793851e+00,1.747510960132178038e-05,7.634049583784796421e-06
2.694444444444444642e+00,2.061247813512495303e-05,7.846092220337444673e-06
2.695238095238095433e+00,2.225223701960374887e-05,7.629698097502862457e-06
2.696031746031746223e+00,2.240753960644707084e-05,7.839584080291005087e-06
2.696825396825397014e+00,2.121686031934152860e-05,8.933725896331796816e-06
2.697619047619047805e+00,1.882280482357812353e-05,1.089107920796971833e-05
2.698412698412698596e+00,1.529892442922651161e-05,1.326177858501494373e-05
2.699206349206349387e+00,1.066193416936912013e-05,1.532224847085303702e-05
2.700000000000000178e+00,4.966692305698564758e-06,1.629254974217802821e-05
2.700793650793650968e+00,-1.560431090411972726e-06,1.556078753730268823e-05
2.701587301587301759e+00,-8.418510134819906371e-06,1.285677906112738067e-05
2.702380952380952550e+00,-1.482299885023634767e-05,8.331734410980367247e-06
2.703174603174603341e+00,-1.982070641263789182e-05,2.530815276037362110e-06
2.703968253968254132e+00,-2.251016819610370849e-05,-3.721282439811700014e-06
2.704761904761904923e+00,-2.230462838045964402e-05,-9.482591903230810145e-06
2.705555555555555713e+00,-1.915247829399712627e-05,-1.386907260424728624e-05
2.706349206349206504e+00,-1.363750498896107680e-05,-1.622472466501482632e-05
2.707142857142857295e+00,-6.915504227280864571e-06,-1.627576021431231712e-05
2.707936507936508086e+00,-4.922572459623008442e-07,-1.424305318841674706e-05
2.708730158730158877e+00,4.106037653941349486e-06,-1.086227637375637153e-05
2.709523809523809668e+00,5.689325364403689969e-06,-7.256462370066403548e-06
2.710317460317460458e+00,3.700547890557171763e-06,-4.645171348037280299e-06
2.711111111111111249e+00,-1.618697956949537334e-06,-3.950272174819224187e-06
2.711904761904762040e+00,-9.235569894434019246e-06,-5.428422016839862615e-06
2.712698412698412831e+00,-1.751132054606508617e-05,-8.479569687369953429e-06
2.713492063492063622e+00,-2.453060754082708877e-05,-1.173523523544125579e-05
2.714285714285714413e+00,-2.850665152129160630e-05,-1.343703149582730032e-05
2.715079365079365203e+00,-2.817348290277540078e-05,-1.200579149473947772e-05
2.715873015873015994e+00,-2.307722530223525533e-05,-6.616279750041526740e-06
2.716666666666666785e+00,-1.370169611112142600e-05,2.424285704091571930e-06
2.717460317460317576e+00,-1.402177863131817335e-06,1.362984598015832641e-05
2.718253968253968367e+00,1.183768454485568117e-05,2.464253398647336797e-05
2.719047619047619158e+00,2.377814962487905740e-05,3.280469654049774459e-05
2.719841269841269948e+00,3.235598323528239502e-05,3.583762995334619026e-05
2.720634920634920739e+00,3.609657980844642081e-05,3.244644679955305147e-05
2.721428571428571530e+00,3.442144061136435089e-05,2.269176456829759947e-05
2.722222222222222321e+00,2.777804553255809164e-05,8.028433068000605805e-06
2.723015873015873112e+00,1.755157999776852399e-05,-9.001932072642463936e-06
2.723809523809523903e+00,5.769620838592596307e-06,-2.534653877675200047e-05
2.724603174603174693e+00,-5.332619459113937742e-06,-3.813840316377843041e-05
2.725396825396825484e+00,-1.377897137006058216e-05,-4.534299182239150328e-05
2.726190476190476275e+00,-1.823706169776319249e-05,-4.620716770742002013e-05
2.726984126984127066e+00,-1.823607656826524361e-05,-4.142295772790649988e-05
2.727777777777777857e+00,-1.418187730669477301e-05,-3.298562895520757376e-05
2.728571428571428648e+00,-7.185043290368377109e-06,-2.377571955288195765e-05
2.729365079365079438e+00,1.241990233211895632e-06,-1.692747324361131020e-05
2.730158730158730229e+00,9.538583545676373974e-06,-1.508065583512843081e-05
2.730952380952381020e+00,1.641599586762167176e-05,-1.966057957119218073e-05
2.731746031746031811e+00,2.107471267062376312e-05,-3.037299931717822541e-05
2.732539682539682602e+00,2.327938473615119024e-05,-4.509378379151253148e-05
2.733333333333333393e+00,2.328899865266932618e-05,-6.024851536409505097e-05
2.734126984126984183e+00,2.167726600855141115e-05,-7.163034658716059978e-05
2.734920634920634974e+00,1.910624691061251688e-05,-7.545378017481403198e-05
2.735714285714285765e+00,1.612466031463623164e-05,-6.935370842891988141e-05
2.736507936507936556e+00,1.304670529259216506e-05,-5.304910203616762125e-05
2.737301587301587347e+00,9.934263974899836010e-06,-2.848798079561619840e-05
2.738095238095238138e+00,6.669734446653401722e-06,5.678702101299262080e-07
2.738888888888888928e+00,3.080843460268031614e-06,2.941300167561580365e-05
2.739682539682539719e+00,-9.333398401907540634e-07,5.349116676837701451e-05
2.740476190476190510e+00,-5.324192160464501995e-06,6.940751811807391108e-05
2.741269841269841301e+00,-9.894165579371759199e-06,7.558477605175414958e-05
2.742063492063492092e+00,-1.437328073720148372e-05,7.241811176209863666e-05
2.742857142857142883e+00,-1.853070160379187615e-05,6.195117157270018337e-05
2.743650793650793673e+00,-2.226066573167248704e-05,4.722366053288835317e-05
2.744444444444444464e+00,-2.559392876690817965e-05,3.149782832519898619e-05
2.745238095238095255e+00,-2.862350895601922291e-05,1.756521816284510129e-05
2.746031746031746046e+00,-3.137617735848792803e-05,7.283369683716955624e-06
2.746825396825396837e+00,-3.368825970809729930e-05,1.412453044029685490e-06
2.747619047619047628e+00,-3.514527588810844330e-05,-2.662356036909393517e-07
2.748412698412698418e+00,-3.512123655878674448e-05,1.357508018391244513e-06
2.749206349206349209e+00,-3.291679026626510748e-05,5.088321112110683048e-06
2.750000000000000000e+00,-2.796158394484705187e-05,9.727087683904198258e-06
2.750793650793650791e+00,-2.002537850656716258e-05,1.424249486224006164e-05
2.751587301587301582e+00,-9.376021637936933769e-06,1.782233878606736570e-05
2.752380952380952372e+00,3.170145166545810755e-06,1.987658108646233492e-05
2.753174603174603163e+00,1.633534950227261110e-05,2.007581025470773950e-05
2.753968253968253954e+00,2.859338668298960244e-05,1.845696438433774850e-05
2.754761904761904745e+00,3.845195584604105884e-05,1.553962862765070175e-05
2.755555555555555536e+00,4.472228388831490437e-05,1.232924576670063415e-05
2.756349206349206327e+00,4.670443709735632115e-05,1.009361875073359560e-05
2.757142857142857117e+00,4.425732289855068452e-05,9.900095401174439688e-06
2.757936507936507908e+00,3.776780738109418402e-05,1.204921413010635429e-05
2.758730158730158699e+00,2.805848862057974891e-05,1.565523670564156319e-05
2.759523809523809490e+00,1.627140821687174420e-05,1.863138415172246811e-05
2.760317460317460281e+00,3.745804133006378001e-06,1.821241154817982707e-05
2.761111111111111072e+00,-8.112304530455749832e-06,1.192699895987716407e-05
2.761904761904761862e+00,-1.797968998601911741e-05,-1.292932002578304314e-06
2.762698412698412653e+00,-2.478669898429819617e-05,-2.030006694212584239e-05
2.763492063492063444e+00,-2.788827484970683460e-05,-4.159316438453955630e-05
2.764285714285714235e+00,-2.719076061360842540e-05,-6.000209603398812714e-05
2.765079365079365026e+00,-2.318257687759823444e-05,-7.004465841454366609e-05
2.765873015873015817e+00,-1.683509215830294526e-05,-6.754896353386418415e-05
2.766666666666666607e+00,-9.381120695482617414e-06,-5.102224065503459005e-05
2.767460317460317398e+00,-2.026894334483563075e-06,-2.231253879806265985e-05
2.768253968253968189e+00,4.314383923720034711e-06,1.367033942075628995e-05
2.769047619047618980e+00,9.182313743502778996e-06,5.010871146308052229e-05
2.769841269841269771e+00,1.257655247409631715e-05,7.996052220467486085e-05
2.770634920634920562e+00,1.482197979312850125e-05,9.766719122513691995e-05
2.771428571428571352e+00,1.635033071037341086e-05,1.004026269674184715e-04
2.772222222222222143e+00,1.748107341752047701e-05,8.857116259821476185e-05
2.773015873015872934e+00,1.828032393764389838e-05,6.552343359474179234e-05
2.773809523809523725e+00,1.854635875005993401e-05,3.666768712195444754e-05
2.774603174603174516e+00,1.792187516091883507e-05,8.245977100514225927e-06
2.775396825396825307e+00,1.608318696314527108e-05,-1.395974518881021281e-05
2.776190476190476097e+00,1.292598166609494538e-05,-2.576916075269864172e-05
2.776984126984126888e+00,8.670624309469279574e-06,-2.540956769258175907e-05
2.777777777777777679e+00,3.845739040381995378e-06,-1.383789196845328776e-05
2.778571428571428470e+00,-8.414024358284818097e-07,5.510009447558818807e-06
2.779365079365079261e+00,-4.699214839479401994e-06,2.751871449445812530e-05
2.780158730158730052e+00,-7.246386148755525359e-06,4.656530342184316451e-05
2.780952380952380842e+00,-8.348870380663028947e-06,5.776426298851108633e-05
2.781746031746031633e+00,-8.261476931453485217e-06,5.796544255397025459e-05
2.782539682539682424e+00,-7.562354189188322059e-06,4.628704869311713060e-05
2.783333333333333215e+00,-6.997042464334256113e-06,2.412831909605540919e-05
2.784126984126984006e+00,-7.274307240471466976e-06,-5.258167232041667713e-06
2.784920634920634797e+00,-8.870102798537792425e-06,-3.749156355047880869e-05
2.785714285714285587e+00,-1.189201035918312833e-05,-6.793244496531303527e-05
2.786507936507936378e+00,-1.603609210955834691e-05,-9.254554189793363277e-05
2.787301587301587169e+00,-2.064111306291954552e-05,-1.086014082270404953e-04
2.788095238095237960e+00,-2.482195973209739496e-05,-1.150778813605449267e-04
2.788888888888888751e+00,-2.764963518644944742e-05,-1.126790939664556117e-04
2.789682539682539542e+00,-2.833893928141535735e-05,-1.034840685494100860e-04
2.790476190476190332e+00,-2.640565842812388772e-05,-9.033417806438236413e-05
2.791269841269841123e+00,-2.176354871429484833e-05,-7.612877897010024300e-05
2.792063492063491914e+00,-1.474722630981002148e-05,-6.319936899794823405e-05
2.792857142857142705e+00,-6.064270772294682729e-06,-5.288281260546894317e-05
2.793650793650793496e+00,3.309905658043035887e-06,-4.534667343156823687e-05
2.794444444444444287e+00,1.227848605845918448e-05,-3.966887022530765389e-05
2.795238095238095077e+00,1.979276957120200073e-05,-3.414704888018946395e-05
2.796031746031745868e+00,2.501932595414097277e-05,-2.678878884642962659e-05
2.796825396825396659e+00,2.747243269089966118e-05,-1.589274036529211381e-05
2.797619047619047450e+00,2.708212042379219047e-05,-5.845506612622398575e-07
2.798412698412698241e+00,2.418264827724099446e-05,1.884463560591924361e-05
2.799206349206349032e+00,1.942604171603429651e-05,4.090883756276140392e-05
2.799999999999999822e+00,1.364213830866400845e-05,6.322705535899495865e-05
2.800793650793650613e+00,7.676654330039701121e-06,8.306367974267952982e-05
2.801587301587301404e+00,2.242257949494050112e-06,9.794191102155728156e-05
2.802380952380952195e+00,-2.185794827874500823e-06,1.061474947436109460e-04
2.803174603174602986e+00,-5.409615920281352151e-06,1.069910617137106453e-04
2.803968253968253777e+00,-7.483208409868158899e-06,1.007866894182613779e-04
2.804761904761904567e+00,-8.640260946598422520e-06,8.859538185869360620e-05
2.805555555555555358e+00,-9.205494878084936704e-06,7.184544480343578400e-05
2.806349206349206149e+00,-9.517263447472937022e-06,5.196111951946969225e-05
2.807142857142856940e+00,-9.874313568378503172e-06,3.010824319678191008e-05
2.807936507936507731e+00,-1.050211192915659031e-05,7.117361325779167003e-06
2.808730158730158522e+00,-1.152535485907710250e-05,-1.641234942026484570e-05
2.809523809523809312e+00,-1.293909622583210620e-05,-3.988044410089336617e-05
2.810317460317460103e+00,-1.458634679392231662e-05,-6.242032405302890593e-05
2.811111111111110894e+00,-1.616136384547357273e-05,-8.271746000193738052e-05
2.811904761904761685e+00,-1.725369942325557504e-05,-9.900641029526497413e-05
2.812698412698412920e+00,-1.742983269380182879e-05,-1.092846625022544238e-04
2.813492063492063711e+00,-1.632976983166403175e-05,-1.117046553228175765e-04
2.814285714285714501e+00,-1.374747744825189110e-05,-1.050390865809945796e-04
2.815079365079365292e+00,-9.669634052312906669e-06,-8.908425888597551261e-05
2.815873015873016083e+00,-4.263861300537373547e-06,-6.488164619768131984e-05
2.816666666666666874e+00,2.170682676409143250e-06,-3.469000846467874794e-05
2.817460317460317665e+00,9.260966256540950313e-06,-1.707414924180326626e-06
2.818253968253968456e+00,1.659667292205739631e-05,3.039752504348648853e-05
2.819047619047619246e+00,2.373472407467641068e-05,5.804564743085513382e-05
2.819841269841270037e+00,3.018470769916926355e-05,7.828253560946686043e-05
2.820634920634920828e+00,3.540138624279885483e-05,8.918353373283421817e-05
2.821428571428571619e+00,3.880775565196580799e-05,9.006051890197145542e-05
2.822222222222222410e+00,3.986022482691915444e-05,8.145779879903974788e-05
2.823015873015873201e+00,3.815281702167917625e-05,6.497511981540502770e-05
2.823809523809523991e+00,3.354077211454816777e-05,4.298049792167578571e-05
2.824603174603174782e+00,2.624779151758757840e-05,1.827145547187394682e-05
2.825396825396825573e+00,1.691342275129029235e-05,-6.273935277877206950e-06
2.826190476190476364e+00,6.546183258718267148e-06,-2.802629662826510153e-05
2.826984126984127155e+00,-3.624937454230279812e-06,-4.488459146891793687e-05
2.827777777777777946e+00,-1.237233929621846032e-05,-5.547433490646267427e-05
2.828571428571428736e+00,-1.870842229540477204e-05,-5.924077027349592214e-05
2.829365079365079527e+00,-2.207621005987353473e-05,-5.643243667948917683e-05
2.830158730158730318e+00,-2.244171162459134041e-05,-4.798970971280797657e-05
2.830952380952381109e+00,-2.026700522696448528e-05,-3.536246315930325951e-05
2.831746031746031900e+00,-1.637584650094796592e-05,-2.028054878469940102e-05
2.832539682539682691e+00,-1.175042909899251135e-05,-4.497510868988986950e-06
2.833333333333333481e+00,-7.312066240077881485e-06,1.046940701835411729e-05
2.834126984126984272e+00,-3.737678904830583081e-06,2.356807137315078621e-05
2.834920634920635063e+00,-1.351445707990193995e-06,3.436090468966582245e-05
2.835714285714285854e+00,-1.121541038386919915e-07,4.304577521903534627e-05
2.836507936507936645e+00,3.058119689930806465e-07,5.031591227081198814e-05
2.837301587301587436e+00,3.642505619370408051e-07,5.705769421322159582e-05
2.838095238095238226e+00,4.913124243911054216e-07,6.393363416018996322e-05
2.838888888888889017e+00,9.409980755373393588e-07,7.096421970682408422e-05
2.839682539682539808e+00,1.721582550172303628e-06,7.727392018182729114e-05
2.840476190476190599e+00,2.609712909940331407e-06,8.114814898825531615e-05
2.841269841269841390e+00,3.240492231358831977e-06,8.044160927189074935e-05
2.842063492063492181e+00,3.240961064297890661e-06,7.323385442194601809e-05
2.842857142857142971e+00,2.361091843787072216e-06,5.852135218102916947e-05
2.843650793650793762e+00,5.575311161775877252e-07,3.671540004383413546e-05
2.844444444444444553e+00,-1.997687533371047800e-06,9.784216761709155872e-06
2.845238095238095344e+00,-4.982858269005313755e-06,-1.899891586153958217e-05
2.846031746031746135e+00,-8.036808482884285381e-06,-4.561636417287215432e-05
2.846825396825396925e+00,-1.086565996485021867e-05,-6.602089775025700902e-05
2.847619047619047716e+00,-1.329995271793710478e-05,-7.685345650517726493e-05
2.848412698412698507e+00,-1.527789946764314847e-05,-7.605997917286579351e-05
2.849206349206349298e+00,-1.676450024459926797e-05,-6.333979633795000692e-05
2.850000000000000089e+00,-1.764816079267098471e-05,-4.035702720474419470e-05
2.850793650793650880e+00,-1.767179003905377041e-05,-1.062982110462060555e-05
2.851587301587301670e+00,-1.644514059234736416e-05,2.097327101264996130e-05
2.852380952380952461e+00,-1.355150692570269451e-05,4.912187432508230417e-05
2.853174603174603252e+00,-8.719041318549461839e-06,6.915144976809676515e-05
2.853968253968254043e+00,-1.994249096536698826e-06,7.813989727413089587e-05
2.854761904761904834e+00,6.153342772067184706e-06,7.558037539169574690e-05
2.855555555555555625e+00,1.484738046204718227e-05,6.338821824030504276e-05
2.856349206349206415e+00,2.295303483657345743e-05,4.521371054263659858e-05
2.857142857142857206e+00,2.931948027388664799e-05,2.530223482092960370e-05
2.857936507936507997e+00,3.304036931321053557e-05,7.308098129426671515e-06
2.858730158730158788e+00,3.364844272540131603e-05,-6.548648497705590648e-06
2.859523809523809579e+00,3.118779633381833625e-05,-1.576155396528850427e-05
2.860317460317460370e+00,2.615466117453280791e-05,-2.125693551302813261e-05
2.861111111111111160e+00,1.934110835022054303e-05,-2.474305620764965941e-05
2.861904761904761951e+00,1.163961541462375138e-05,-2.796883942220541465e-05
2.862698412698412742e+00,3.867131248078356960e-06,-3.214857206733361957e-05
2.863492063492063533e+00,-3.349019623623443953e-06,-3.770232272253462845e-05
2.864285714285714324e+00,-9.606715136379128265e-06,-4.432589751527941566e-05
2.865079365079365115e+00,-1.469674915575230157e-05,-5.129133441729456365e-05
2.865873015873015905e+00,-1.853324480431030392e-05,-5.782204439617594758e-05
2.866666666666666696e+00,-2.108233849351700808e-05,-6.339246961474856966e-05
2.867460317460317487e+00,-2.231519717209955235e-05,-6.785265146158453410e-05
2.868253968253968278e+00,-2.219574540334273198e-05,-7.134656342595028155e-05
2.869047619047619069e+00,-2.070029691524477957e-05,-7.406204064418036009e-05
2.869841269841269860e+00,-1.785864430003184904e-05,-7.591088924413952896e-05
2.870634920634920650e+00,-1.380231719148876699e-05,-7.627608319331176325e-05
2.871428571428571441e+00,-8.803354566770997346e-06,-7.395852955814551598e-05
2.872222222222222232e+00,-3.286288431094259786e-06,-6.739958548180641120e-05
2.873015873015873023e+00,2.200033490784514128e-06,-5.516099009201315032e-05
2.873809523809523814e+00,7.053448819081485678e-06,-3.654094904626264425e-05
2.874603174603174605e+00,1.071996379460127525e-05,-1.212835633037614148e-05
2.875396825396825395e+00,1.280108688547101289e-05,1.592093025957058773e-05
2.876190476190476186e+00,1.313873142392007963e-05,4.404128859137262871e-05
2.876984126984126977e+00,1.185474599771818237e-05,6.787263410572780882e-05
2.877777777777777768e+00,9.333311908217016261e-06,8.319934810934541381e-05
2.878571428571428559e+00,6.148309080951378910e-06,8.695412730247506093e-05
2.879365079365079350e+00,2.950692553900039803e-06,7.799542883361667580e-05
2.880158730158730140e+00,3.391516023724329264e-07,5.744275352217095978e-05
2.880952380952380931e+00,-1.259982547963428944e-06,2.849786484216319750e-05
2.881746031746031722e+00,-1.678678153727651453e-06,-4.176320469618753933e-06
2.882539682539682513e+00,-1.038966563475718973e-06,-3.535151239210954370e-05
2.883333333333333304e+00,2.785099391105669305e-07,-6.019726032012065697e-05
2.884126984126984095e+00,1.721842108112955908e-06,-7.511121869622933178e-05
2.884920634920634885e+00,2.688674188895007357e-06,-7.826091412900004795e-05
2.885714285714285676e+00,2.652086606464910441e-06,-6.975699515416484422e-05
2.886507936507936467e+00,1.267965246468946772e-06,-5.146789769907538089e-05
2.887301587301587258e+00,-1.549820250909375787e-06,-2.656149843636744498e-05
2.888095238095238049e+00,-5.592587712856428169e-06,1.104373183463885840e-06
2.888888888888888840e+00,-1.036200965433987677e-05,2.762196274740002957e-05
2.889682539682539630e+00,-1.512073269909341678e-05,4.959966797795221818e-05
2.890476190476190421e+00,-1.899028849268234547e-05,6.456994611515625598e-05
2.891269841269841212e+00,-2.109306257287658749e-05,7.119033064309326887e-05
2.892063492063492003e+00,-2.072565452007857652e-05,6.924316896139422021e-05
2.892857142857142794e+00,-1.753772355405706749e-05,5.948950777621021119e-05
2.893650793650793585e+00,-1.167794436924646535e-05,4.345065677108660461e-05
2.894444444444444375e+00,-3.864815690778741541e-06,2.317762366014694463e-05
2.895238095238095166e+00,4.650108715439092686e-06,1.044820852133105485e-06
2.896031746031745957e+00,1.223716551012859226e-05,-2.041881500388857860e-05
2.896825396825396748e+00,1.714506681903952805e-05,-3.867567265943502739e-05
2.897619047619047539e+00,1.781727990312844165e-05,-5.134655860070853499e-05
2.898412698412698330e+00,1.321057485589555538e-05,-5.645557891502551708e-05
2.899206349206349120e+00,3.055602899149750818e-06,-5.278005360334763764e-05
2.899999999999999911e+00,-1.198834269239198517e-05,-4.025647952058090549e-05
2.900793650793650702e+00,-3.031012280088807279e-05,-2.030000861742180447e-05
2.901587301587301493e+00,-4.945942771523944876e-05,4.156500371689132988e-06
2.902380952380952284e+00,-6.638882123181959671e-05,2.905349449223910860e-05
2.903174603174603075e+00,-7.781772808520585828e-05,5.002868888376175082e-05
2.903968253968253865e+00,-8.070555230462408036e-05,6.347917793047778555e-05
2.904761904761904656e+00,-7.279533395849351919e-05,6.750978711931828521e-05
2.905555555555555447e+00,-5.314474773301558524e-05,6.239416469816047735e-05
2.906349206349206238e+00,-2.252159431201921090e-05,5.033234895207929388e-05
2.907142857142857029e+00,1.646460896121526208e-05,3.457035125108715175e-05
2.907936507936507819e+00,5.958128673869817865e-05,1.821999807617613230e-05
2.908730158730158610e+00,1.015475326655496845e-04,3.250854100411445003e-06
2.909523809523809401e+00,1.368767736832332516e-04,-9.934045645412239471e-06
2.910317460317460192e+00,1.608222434463742515e-04,-2.215420476012021082e-05
2.911111111111110983e+00,1.702249011776922724e-04,-3.447049797316141133e-05
2.911904761904761774e+00,1.640801851820907593e-04,-4.698595741256516038e-05
2.912698412698412564e+00,1.437023441165422011e-04,-5.797922776938363042e-05
2.913492063492063355e+00,1.124551688211754161e-04,-6.381986802701321672e-05
2.914285714285714146e+00,7.511259500971446783e-05,-5.981611454423786211e-05
2.915079365079364937e+00,3.698833761102125094e-05,-4.177948952918235517e-05
2.915873015873015728e+00,3.012256690325324774e-06,-7.799158747678933514e-06
2.916666666666666519e+00,-2.307433290731389806e-05,4.040050639789917198e-05
2.917460317460317309e+00,-3.927441269638562774e-05,9.705418826991152477e-05
2.918253968253968100e+00,-4.557267695370015791e-05,1.531551845635672896e-04
2.919047619047618891e+00,-4.384375546020808978e-05,1.983225436336995154e-04
2.919841269841269682e+00,-3.746432568423396168e-05,2.232243944293804629e-04
2.920634920634920473e+00,-3.069068551255883326e-05,2.218334884935213515e-04
2.921428571428571264e+00,-2.788204698758899231e-05,1.928399503692447418e-04
2.922222222222222054e+00,-3.266385937874349648e-05,1.398465878847984345e-04
2.923015873015872845e+00,-4.713851714239760483e-05,7.039022243998420620e-05
2.923809523809523636e+00,-7.126569282765527543e-05,-5.817726611638251480e-06
2.924603174603174427e+00,-1.025474632955077851e-04,-7.888758939973658263e-05
2.925396825396825218e+00,-1.361471813194880252e-04,-1.404970730443770317e-04
2.926190476190476009e+00,-1.655210778597812204e-04,-1.850687440138353609e-04
2.926984126984126799e+00,-1.835357721077958816e-04,-2.102439866689616342e-04
2.927777777777777590e+00,-1.839028052211580638e-04,-2.166673788010277672e-04
2.928571428571428381e+00,-1.626346327252994970e-04,-2.072159915917547385e-04
2.929365079365079172e+00,-1.191734769736401556e-04,-1.859069698703402405e-04
2.930158730158729963e+00,-5.689450970159199642e-05,-1.567801190581165013e-04
2.930952380952380754e+00,1.717691762714355124e-05,-1.230521297704286832e-04
2.931746031746031544e+00,9.341228784188131780e-05,-8.675340431075359245e-05
2.932539682539682335e+00,1.611934584112608142e-04,-4.889576860688701730e-05
2.933333333333333126e+00,2.107670559436554121e-04,-1.003522776622133924e-05
2.934126984126983917e+00,2.349637057107770675e-04,2.902948792223957107e-05
2.934920634920634708e+00,2.304438386213597360e-04,6.669637649874765129e-05
2.935714285714285499e+00,1.982440652543287769e-04,1.003432534721953115e-04
2.936507936507936289e+00,1.435512758349046761e-04,1.265664350566113089e-04
2.937301587301587080e+00,7.478466293857573331e-05,1.418771478819690101e-04
2.938095238095238315e+00,2.184181828665757654e-06,1.437025602058112110e-04
2.938888888888889106e+00,-6.383041915252287476e-05,1.313659584051534844e-04
2.939682539682539897e+00,-1.142530096459087923e-04,1.066453782117895299e-04
2.940476190476190688e+00,-1.427908486749424218e-04,7.362537940824679121e-05
2.941269841269841478e+00,-1.466904486283532370e-04,3.782648968244658956e-05
2.942063492063492269e+00,-1.269996693747760480e-04,4.878543515223902519e-06
2.942857142857143060e+00,-8.827261192545171413e-05,-2.083767470000874022e-05
2.943650793650793851e+00,-3.780314633374730842e-05,-3.716941385301314807e-05
2.944444444444444642e+00,1.547868407980331512e-05,-4.452572849544374971e-05
2.945238095238095433e+00,6.229267067041332204e-05,-4.549712664371977761e-05
2.946031746031746223e+00,9.431798039228249202e-05,-4.387717670701119958e-05
2.946825396825397014e+00,1.053706468432872960e-04,-4.335775841446240828e-05
2.947619047619047805e+00,9.230350857501573288e-05,-4.629071689427105747e-05
2.948412698412698596e+00,5.550728748416635766e-05,-5.294033774993075022e-05
2.949206349206349387e+00,-1.061200142589796438e-06,-6.150791656193185363e-05
2.950000000000000178e+00,-7.032957151306221404e-05,-6.890099304947460898e-05
2.950793650793650968e+00,-1.429772111081057111e-04,-7.191333354403691401e-05
2.951587301587301759e+00,-2.086164902373868822e-04,-6.836630766698607441e-05
2.952380952380952550e+00,-2.571732843220977385e-04,-5.786093212286433921e-05
2.953174603174603341e+00,-2.803380680960565561e-04,-4.197085781538595724e-05
2.953968253968254132e+00,-2.729106867980697648e-04,-2.385527908455545461e-05
2.954761904761904923e+00,-2.337973676048200628e-04,-7.384615983857520539e-06
2.955555555555555713e+00,-1.664052165848661747e-04,4.002499276213110658e-06
2.956349206349206504e+00,-7.827309736366160823e-05,8.362572802173066200e-06
2.957142857142857295e+00,2.003824460740828977e-05,5.836799414038676748e-06
2.957936507936508086e+00,1.165826291065995946e-04,-1.495304759743933904e-06
2.958730158730158877e+00,1.998640151370944683e-04,-1.046437768695261886e-05
2.959523809523809668e+00,2.605383709191381146e-04,-1.801858962810385197e-05
2.960317460317460458e+00,2.927199434639074093e-04,-2.229885210710395136e-05
2.961111111111111249e+00,2.947250590636300393e-04,-2.316741052377854911e-05
2.961904761904762040e+00,2.691756168165162903e-04,-2.200892843448260455e-05
2.962698412698412831e+00,2.224657178350758914e-04,-2.089488470947575718e-05
2.963492063492063622e+00,1.636734848127181319e-04,-2.141803915772422695e-05
2.964285714285714413e+00,1.030747462784517511e-04,-2.362103666959608039e-05
2.965079365079365203e+00,5.047896137511338809e-05,-2.544568359867941377e-05
2.965873015873015994e+00,1.364669908757079592e-05,-2.299732088672445604e-05
2.966666666666666785e+00,-2.954521310851732130e-06,-1.165345629105582228e-05
2.967460317460317576e+00,1.154161202353921890e-06,1.228093496278143872e-05
2.968253968253968367e+00,2.244927693181613044e-05,4.992442321393851539e-05
2.969047619047619158e+00,5.410811030005657508e-05,9.879120347552307541e-05
2.969841269841269948e+00,8.733881445052737481e-05,1.528259018463408393e-04
2.970634920634920739e+00,1.131080195952845305e-04,2.035908447405311269e-04
2.971428571428571530e+00,1.239263446152801928e-04,2.422804569857658159e-04
2.972222222222222321e+00,1.153241899186198345e-04,2.618993880379093210e-04
2.973015873015873112e+00,8.671883051127932856e-05,2.588338338534512738e-04
2.973809523809523903e+00,4.150782196773502029e-05,2.332778276590234798e-04
2.974603174603174693e+00,-1.362085462598964486e-05,1.884870216309243328e-04
2.975396825396825484e+00,-7.002214468785021692e-05,1.293574181052164118e-04
2.976190476190476275e+00,-1.188044890744353519e-04,6.106569716905853914e-05
2.976984126984127066e+00,-1.525714194276379932e-04,-1.165321748045540257e-05
2.977777777777777857e+00,-1.668402601270809491e-04,-8.444946652029275132e-05
2.978571428571428648e+00,-1.608538247146526620e-04,-1.528331137061238404e-04
2.979365079365079438e+00,-1.376288415660285522e-04,-2.117309459539400780e-04
2.980158730158730229e+00,-1.032430189062437181e-04,-2.555965052991556775e-04
2.980952380952381020e+00,-6.552309798203219914e-05,-2.792115373996105097e-04
2.981746031746031811e+00,-3.242389171844224812e-05,-2.789289190409301200e-04
2.982539682539682602e+00,-1.044714500033603668e-05,-2.538736091668107446e-04
2.983333333333333393e+00,-3.423873022330839763e-06,-2.066283203560726031e-04
2.984126984126984183e+00,-1.188906111043298035e-05,-1.431277606026920221e-04
2.984920634920634974e+00,-3.314390663940202010e-05,-7.175076178543817926e-05
2.985714285714285765e+00,-6.195930642866992162e-05,-1.835831438745507760e-06
2.986507936507936556e+00,-9.175097505539041298e-05,5.800337257068992992e-05
2.987301587301587347e+00,-1.159709506671631035e-04,1.013458349645977738e-04
2.988095238095238138e+00,-1.294245203915497843e-04,1.248707274712950789e-04
2.988888888888888928e+00,-1.292418585111737095e-04,1.285298056621377277e-04
2.989682539682539719e+00,-1.153104700355891510e-04,1.150296992142080439e-04
2.990476190476190510e+00,-9.009780121747748387e-05,8.886961652967802412e-05
2.991269841269841301e+00,-5.793682691774458088e-05,5.528390581948686801e-05
2.992063492063492092e+00,-2.397318556353902436e-05,1.940180613545945123e-05
2.992857142857142883e+00,6.955510024073626313e-06,-1.422508334772186035e-05
2.993650793650793673e+00,3.124090496132755343e-05,-4.178540738566179931e-05
2.994444444444444464e+00,4.703566005299582070e-05,-6.026298552543778094e-05
2.995238095238095255e+00,5.432857591305098501e-05,-6.759054222134961538e-05
2.996031746031746046e+00,5.461911569722920870e-05,-6.298732271067039991e-05
2.996825396825396837e+00,5.033188815847538416e-05,-4.739857217503686546e-05
2.997619047619047628e+00,4.414317173153228178e-05,-2.381566859006043610e-05
2.998412698412698418e+00,3.837818261211515798e-05,2.804423400782159501e-06
2.999206349206349209e+00,3.459536052948045261e-05,2.623732628764443504e-05
3.000000000000000000e+00,3.341661917919271329e-05,4.032531039016160941e-05
3.000793650793650791e+00,3.460157266328649754e-05,4.069398788299552483e-05
3.001587301587301582e+00,3.730879952812233370e-05,2.635617843234446783e-05
3.002380952380952372e+00,4.044846151038264739e-05,5.911850338055160211e-07
3.003174603174603163e+00,4.301920451657132414e-05,-2.941276671363120864e-05
3.003968253968253954e+00,4.434363653878140683e-05,-5.429509774845748198e-05
3.004761904761904745e+00,4.416227810372397062e-05,-6.522769927858637455e-05
3.005555555555555536e+00,4.259491613847790457e-05,-5.671047555217950795e-05
3.006349206349206327e+00,4.001070927469337188e-05,-2.848050132879750105e-05
3.007142857142857117e+00,3.685805936575398323e-05,1.411258318555596329e-05
3.007936507936507908e+00,3.350017877888506872e-05,6.134869029327674555e-05
3.008730158730158699e+00,3.009236067256858244e-05,1.015663507987213257e-04
3.009523809523809490e+00,2.652517850529455487e-05,1.240684374105386896e-04
3.010317460317460281e+00,2.244374949442833791e-05,1.217730690261762419e-04
3.011111111111111072e+00,1.733852428893756055e-05,9.302969429532346990e-05
3.011904761904761862e+00,1.069020238738548726e-05,4.224102597428450873e-05
3.012698412698412653e+00,2.140992636265796281e-06,-2.083551779566230363e-05
3.013492063492063444e+00,-8.342314167049728440e-06,-8.299682092198131520e-05
3.014285714285714235e+00,-2.034867036427839956e-05,-1.303656614114049640e-04
3.015079365079365026e+00,-3.297596329538376970e-05,-1.514651945825190571e-04
3.015873015873015817e+00,-4.487712816375558636e-05,-1.399063274315295608e-04
3.016666666666666607e+00,-5.440793555932648415e-05,-9.601577717643707834e-05
3.017460317460317398e+00,-5.987037266405739684e-05,-2.694287265905798536e-05
3.018253968253968189e+00,-5.982515060145409530e-05,5.483529773406930466e-05
3.019047619047618980e+00,-5.342280031774591047e-05,1.342471322091440137e-04
3.019841269841269771e+00,-4.068166145790293533e-05,1.968912397599247867e-04
3.020634920634920562e+00,-2.263260974619980272e-05,2.320095558134386844e-04
3.021428571428571352e+00,-1.265005206742459739e-06,2.344772783560790971e-04
3.022222222222222143e+00,2.074885900154639588e-05,2.054207324764956849e-04
3.023015873015872934e+00,4.051066046606793488e-05,1.514420467824920016e-04
3.023809523809523725e+00,5.543346544311475742e-05,8.276546432207296234e-05
3.024603174603174516e+00,6.372640120187862375e-05,1.084124192757170045e-05
3.025396825396825307e+00,6.470462730452116286e-05,-5.399610346075630203e-05
3.026190476190476097e+00,5.885406386422280495e-05,-1.043053547984114333e-04
3.026984126984126888e+00,4.765128020912947439e-05,-1.364324430188281899e-04
3.027777777777777679e+00,3.320257626684072218e-05,-1.504489544138106719e-04
3.028571428571428470e+00,1.780244255722691178e-05,-1.493104370771456270e-04
3.029365079365079261e+00,3.514636795945831663e-06,-1.375784107320146327e-04
3.030158730158730052e+00,-8.143167855898063493e-06,-1.200894390280434881e-04
3.030952380952380842e+00,-1.636466809987337885e-05,-1.008806176413747411e-04
3.031746031746031633e+00,-2.105981693219226584e-05,-8.255434586842229079e-05
3.032539682539682424e+00,-2.272127343440805518e-05,-6.613679514197476990e-05
3.033333333333333215e+00,-2.219929009135502280e-05,-5.137340849518954238e-05
3.034126984126984006e+00,-2.044561260319844589e-05,-3.731787183877881237e-05
3.034920634920634797e+00,-1.828643832630288062e-05,-2.301779204236106962e-05
3.035714285714285587e+00,-1.627022294312888495e-05,-8.090639096542516590e-06
3.036507936507936378e+00,-1.461306111838511676e-05,6.977400432889173871e-06
3.037301587301587169e+00,-1.323952410137000783e-05,2.089155454881257807e-05
3.038095238095237960e+00,-1.189575619389035477e-05,3.193420056888711064e-05
3.038888888888888751e+00,-1.029701376432443247e-05,3.853329641157603473e-05
3.039682539682539542e+00,-8.265377309462448066e-06,3.981095423979153387e-05
3.040476190476190332e+00,-5.817408511836841919e-06,3.592579832633891997e-05
3.041269841269841123e+00,-3.177096715037320360e-06,2.810261183427169220e-05
3.042063492063491914e+00,-7.130135388602358347e-07,1.834614123854657456e-05
3.042857142857142705e+00,1.177513069157343175e-06,8.925209896111096854e-06
3.043650793650793496e+00,2.197965575795904473e-06,1.771178527187240245e-06
3.044444444444444287e+00,2.252736936915936315e-06,-2.043212908711032494e-06
3.045238095238095077e+00,1.484843006075638241e-06,-2.596078746947901648e-06
3.046031746031745868e+00,2.403654072990197193e-07,-1.089218371775339578e-06
3.046825396825396659e+00,-1.025764712241632336e-06,5.006094293462859425e-07
3.047619047619047450e+00,-1.870293769888448479e-06,1.270345531174174199e-10
3.048412698412698241e+00,-1.972677896042158998e-06,-4.312104189163184737e-06
3.049206349206349032e+00,-1.209150234818500536e-06,-1.316490728183386454e-05
3.049999999999999822e+00,3.246281249941511221e-07,-2.600315186739862250e-05
3.050793650793650613e+00,2.343916489393516800e-06,-4.101621296180830523e-05
3.051587301587301404e+00,4.448499106171871233e-06,-5.547212232817248730e-05
3.052380952380952195e+00,6.220834723219991899e-06,-6.626468950131266791e-05
3.053174603174602986e+00,7.324876832808183548e-06,-7.052937705992484317e-05
3.053968253968253777e+00,7.581662057401381471e-06,-6.618363716832591323e-05
3.054761904761904567e+00,7.003439786596953936e-06,-5.230264657174535099e-05
3.055555555555555358e+00,5.778780393210787508e-06,-2.931587243911143952e-05
3.056349206349206149e+00,4.214204985479403715e-06,9.488544642173994993e-07
3.057142857142856940e+00,2.649548146752705403e-06,3.535804504825795970e-05
3.057936507936507731e+00,1.370964197901117821e-06,6.971912820412892763e-05
3.058730158730158522e+00,5.453522133123982219e-07,9.921158156836690570e-05
3.059523809523809312e+00,1.930760867075466540e-07,1.190161344215633174e-04
3.060317460317460103e+00,2.041186784514086593e-07,1.251174416524035340e-04
3.061111111111110894e+00,3.896778786906728468e-07,1.151972219465336361e-04
3.061904761904761685e+00,5.507821225572116585e-07,8.945373495037768218e-05
3.062698412698412920e+00,5.413598111471255211e-07,5.110897311286806269e-05
3.063492063492063711e+00,3.069937728357146244e-07,6.355329898579168717e-06
3.064285714285714501e+00,-1.092712951910207635e-07,-3.641537858666969344e-05
3.065079365079365292e+00,-5.908483399144385951e-07,-6.808305164344331123e-05
3.065873015873016083e+00,-9.896448024663417333e-07,-8.074172506182253079e-05
3.066666666666666874e+00,-1.172266377674908746e-06,-6.968624091151724004e-05
3.067460317460317665e+00,-1.058989922788374662e-06,-3.489304032890355300e-05
3.068253968253968456e+00,-6.484619496297414152e-07,1.852519150768759668e-05
3.069047619047619246e+00,-2.487202288062852689e-08,8.117546333298819540e-05
3.069841269841270037e+00,6.530622570366472320e-07,1.414262640135239039e-04
3.070634920634920828e+00,1.180060191801978045e-06,1.880720696514061275e-04
3.071428571428571619e+00,1.345759127891965462e-06,2.128008434997178766e-04
3.072222222222222410e+00,9.831499592585244305e-07,2.117291688559255172e-04
3.073015873015873201e+00,1.399165880924908784e-08,1.856726361251566804e-04
3.073809523809523991e+00,-1.520514095273097484e-06,1.393218826195238033e-04
3.074603174603174782e+00,-3.453639553320263654e-06,7.982891292069206753e-05
3.075396825396825573e+00,-5.515742135449508142e-06,1.534049734782579755e-05
3.076190476190476364e+00,-7.382074762572783739e-06,-4.619172525492091006e-05
3.076984126984127155e+00,-8.735859071061439482e-06,-9.786624259170094680e-05
3.077777777777777946e+00,-9.333127285372758269e-06,-1.344684577692039458e-04
3.078571428571428736e+00,-9.055102606735429001e-06,-1.530134972909171246e-04
3.079365079365079527e+00,-7.935762992876071683e-06,-1.531901851570007498e-04
3.080158730158730318e+00,-6.157114322249064066e-06,-1.375406332379854458e-04
3.080952380952381109e+00,-4.012253573634734875e-06,-1.111421652308574665e-04
3.081746031746031900e+00,-1.844548918652535841e-06,-8.065936516686414198e-05
3.082539682539682691e+00,2.248121730187913537e-08,-5.288029320265023051e-05
3.083333333333333481e+00,1.347731279952217597e-06,-3.311741625210373020e-05
3.084126984126984272e+00,2.012973360386203366e-06,-2.397991297665762813e-05
3.084920634920635063e+00,2.032832904787306720e-06,-2.492265575055977871e-05
3.085714285714285854e+00,1.534145278232238415e-06,-3.269987160878566162e-05
3.086507936507936645e+00,7.127194869635442685e-07,-4.254159265560569417e-05
3.087301587301587436e+00,-2.187611536091907097e-07,-4.965844927989278052e-05
3.088095238095238226e+00,-1.076534370248489757e-06,-5.062160737385475824e-05
3.088888888888889017e+00,-1.733340637124804074e-06,-4.424880059608208492e-05
3.089682539682539808e+00,-2.122680586967164356e-06,-3.180312134596706121e-05
3.090476190476190599e+00,-2.222820840561506106e-06,-1.651130602716839412e-05
3.091269841269841390e+00,-2.030638716608162382e-06,-2.575258169592826840e-06
3.092063492063492181e+00,-1.538786840907347519e-06,6.043832347285457911e-06
3.092857142857142971e+00,-7.278668330001925065e-07,6.748460644548405360e-06
3.093650793650793762e+00,4.212771641380631480e-07,-9.604588959206555960e-07
3.094444444444444553e+00,1.898660555339819332e-06,-1.533361991221376258e-05
3.095238095238095344e+00,3.630011166218798383e-06,-3.284079875588423350e-05
3.096031746031746135e+00,5.448403051720838121e-06,-4.910631995845601800e-05
3.096825396825396925e+00,7.084564478851240163e-06,-6.002978711640375711e-05
3.097619047619047716e+00,8.184252441106551975e-06,-6.277255732929835452e-05
3.098412698412698507e+00,8.355703709622714170e-06,-5.635575941833365646e-05
3.099206349206349298e+00,7.242723588926849430e-06,-4.175266601328884026e-05
3.100000000000000089e+00,4.610144024930674644e-06,-2.151683804013983191e-05
3.100793650793650880e+00,4.205406950447174755e-07,8.883716139465941343e-07
3.101587301587301670e+00,-5.121780723452496313e-06,2.184710029806467312e-05
3.102380952380952461e+00,-1.157744676023104995e-05,3.825858243219460808e-05
3.103174603174603252e+00,-1.833186455948074335e-05,4.801333958578581090e-05
3.103968253968254043e+00,-2.469204230346309738e-05,5.023938728802621154e-05
3.104761904761904834e+00,-2.999173588036083948e-05,4.531629921125561667e-05
3.105555555555555625e+00,-3.367683000445891484e-05,3.468261341595503880e-05
3.106349206349206415e+00,-3.535486444640872905e-05,2.049390797623570695e-05
3.107142857142857206e+00,-3.480734409217660033e-05,5.214157621050272562e-06
3.107936507936507997e+00,-3.197221738459278735e-05,-8.774082326289837770e-06
3.108730158730158788e+00,-2.690591485214279986e-05,-1.947563427964048045e-05
3.109523809523809579e+00,-1.973635854035121924e-05,-2.547434526847293119e-05
3.110317460317460370e+00,-1.062446807745798205e-05,-2.601758891569713126e-05
3.111111111111111160e+00,2.437000452902408649e-07,-2.102753140930508323e-05
3.111904761904761951e+00,1.261833665150126227e-05,-1.107594549605556874e-05
3.112698412698412742e+00,2.610468026953777234e-05,2.661308990661712768e-06
3.113492063492063533e+00,4.006863012228412043e-05,1.848302154787160646e-05
3.114285714285714324e+00,5.357680744067329966e-05,3.430649600290114543e-05
3.115079365079365115e+00,6.541862470662374105e-05,4.790497091147675974e-05
3.115873015873015905e+00,7.423583301542506822e-05,5.723774757755807288e-05
3.116666666666666696e+00,7.874685487237572312e-05,6.082693235030074767e-05
3.117460317460317487e+00,7.801375456180686312e-05,5.809382791170995369e-05
3.118253968253968278e+00,7.167687143843552797e-05,4.955051601470385138e-05
3.119047619047619069e+00,6.008695221393787404e-05,3.675860434399020531e-05
3.119841269841269860e+00,4.429424797893773109e-05,2.202247321475557550e-05
3.120634920634920650e+00,2.589491731997619432e-05,7.873974547438735553e-06
3.121428571428571441e+00,6.772272075332527317e-06,-3.501859796333858188e-06
3.122222222222222232e+00,-1.120622115054987454e-05,-1.071110893435974192e-05
3.123015873015873023e+00,-2.647038311261620504e-05,-1.332826906613388897e-05
3.123809523809523814e+00,-3.795392208928646409e-05,-1.178928195239446123e-05
3.124603174603174605e+00,-4.519599850530119111e-05,-7.096927945025104170e-06
3.125396825396825395e+00,-4.833263049457179152e-05,-4.816509669864973309e-07
3.126190476190476186e+00,-4.799404538891141489e-05,6.865387360353740699e-06
3.126984126984126977e+00,-4.513848053245619332e-05,1.393050659775091162e-05
3.127777777777777768e+00,-4.085870531790472895e-05,1.988656974477142069e-05
3.128571428571428559e+00,-3.619466195206251285e-05,2.401302717862998797e-05
3.129365079365079350e+00,-3.197690557568939418e-05,2.559800958884197617e-05
3.130158730158730140e+00,-2.871569415759715152e-05,2.391284693236125911e-05
3.130952380952380931e+00,-2.654378063957109888e-05,1.833612011734517662e-05
3.131746031746031722e+00,-2.521794835185687563e-05,8.640504936232503574e-06
3.132539682539682513e+00,-2.418187521462052846e-05,-4.642782874143922084e-06
3.133333333333333304e+00,-2.268673916609354629e-05,-1.994985814349647363e-05
3.134126984126984095e+00,-1.995468738939033780e-05,-3.468280957520688515e-05
3.134920634920634885e+00,-1.535702985777237110e-05,-4.558962531151646111e-05
3.135714285714285676e+00,-8.569999009020311224e-06,-4.949579147401231912e-05
3.136507936507936467e+00,3.282230151880336796e-07,-4.421010582744242955e-05
3.137301587301587258e+00,1.084286290049718428e-05,-2.932701121669975148e-05
3.138095238095238049e+00,2.213221063945047308e-05,-6.635748536124101062e-06
3.138888888888888840e+00,3.313996292656009197e-05,2.006247346102933270e-05
3.139682539682539630e+00,4.275376566334248353e-05,4.575129318412787067e-05
3.140476190476190421e+00,4.995407908636459660e-05,6.541869887095793376e-05
3.141269841269841212e+00,5.393031044526301626e-05,7.533347103560545039e-05
3.142063492063492003e+00,5.415646705609050010e-05,7.396042145201112443e-05
3.142857142857142794e+00,5.043008574010197231e-05,6.221446499760572549e-05
3.143650793650793585e+00,4.288503391559419668e-05,4.300516704346429891e-05
3.144444444444444375e+00,3.198994470988276545e-05,2.028697858800046730e-05
3.145238095238095166e+00,1.853714444097629547e-05,-2.022096188114729578e-06
3.146031746031745957e+00,3.613390372869304208e-06,-2.090838251649470970e-05
3.146825396825396748e+00,-1.146795232773637795e-05,-3.471093255592776834e-05
3.147619047619047539e+00,-2.529216314748023052e-05,-4.311839107871602447e-05
3.148412698412698330e+00,-3.652509553141153721e-05,-4.681996952297711942e-05
3.149206349206349120e+00,-4.412153830815727262e-05,-4.698686428055531383e-05
3.149999999999999911e+00,-4.750825497179150304e-05,-4.476867813086969758e-05
3.150793650793650702e+00,-4.669054269567270426e-05,-4.095407689437065995e-05
3.151587301587301493e+00,-4.225317099937594468e-05,-3.588062770417072765e-05
3.152380952380952284e+00,-3.525677796649970882e-05,-2.959327338011021218e-05
3.153174603174603075e+00,-2.705530380794257987e-05,-2.215862931442906639e-05
3.153968253968253865e+00,-1.907241122769123213e-05,-1.397446664031892897e-05
3.154761904761904656e+00,-1.257547117889031504e-05,-5.906335638076785647e-06
3.155555555555555447e+00,-8.478587692637087626e-06,8.488001795450058182e-07
3.156349206349206238e+00,-7.197696542550912009e-06,5.148849829095543583e-06
3.157142857142857029e+00,-8.576535089436276689e-06,6.391197684117899752e-06
3.157936507936507819e+00,-1.190092520903081434e-05,4.874420348654039018e-06
3.158730158730158610e+00,-1.601239315279898070e-05,1.852406043124651534e-06
3.159523809523809401e+00,-1.951532977073074416e-05,-7.723859153969209638e-07
3.160317460317460192e+00,-2.104807162061740494e-05,-1.016025914614958282e-06
3.161111111111110983e+00,-1.956571005022546785e-05,2.558071920694718542e-06
3.161904761904761774e+00,-1.456991434771794734e-05,1.036072774056426456e-05
3.162698412698412564e+00,-6.227726182816071354e-06,2.160491068740070242e-05
3.163492063492063355e+00,4.649169164172740350e-06,3.449643480145063858e-05
3.164285714285714146e+00,1.675221134503462105e-05,4.672797281532512328e-05
3.165079365079364937e+00,2.850795001876839209e-05,5.611832079130806158e-05
3.165873015873015728e+00,3.834442754321101674e-05,6.119262253433395784e-05
3.166666666666666519e+00,4.495046306690533828e-05,6.152390284881633893e-05
3.167460317460317309e+00,4.749312410422745160e-05,5.774148017006207231e-05
3.168253968253968100e+00,4.575827279292242467e-05,5.122365766217119599e-05
3.169047619047618891e+00,4.018152027458789786e-05,4.359053210237054160e-05
3.169841269841269682e+00,3.175364692959702930e-05,3.616852155110786049e-05
3.170634920634920473e+00,2.181445082045229019e-05,2.959933507134298518e-05
3.171428571428571264e+00,1.177999003125895811e-05,2.371579545066108827e-05
3.172222222222222054e+00,2.868017960372875590e-06,1.771952909178223164e-05
3.173015873015872845e+00,-4.111460773866950341e-06,1.059460544459151277e-05
3.173809523809523636e+00,-8.850817058554603155e-06,1.607352647330484221e-06
3.174603174603174427e+00,-1.150804494338570053e-05,-9.293200637187511815e-06
3.175396825396825218e+00,-1.256038877116810563e-05,-2.132870223198282903e-05
3.176190476190476009e+00,-1.259935569460649044e-05,-3.306200545877900740e-05
3.176984126984126799e+00,-1.212965561033437452e-05,-4.283202687292476273e-05
3.177777777777777590e+00,-1.142854216342509078e-05,-4.930556714181864582e-05
3.178571428571428381e+00,-1.050182890818208521e-05,-5.195958407485428625e-05
3.179365079365079172e+00,-9.142629617237178229e-06,-5.133143845299517020e-05
3.180158730158729963e+00,-7.066598915075476363e-06,-4.894756922760096549e-05
3.180952380952380754e+00,-4.074345910999736039e-06,-4.693809584994524650e-05
3.181746031746031544e+00,-1.854159098238574226e-07,-4.743971941723736872e-05
3.182539682539682335e+00,4.300742207646181604e-06,-5.195743769936730103e-05
3.183333333333333126e+00,8.837532914139581978e-06,-6.087583787028775438e-05
3.184126984126983917e+00,1.274875221206488918e-05,-7.327158497185174389e-05
3.184920634920634708e+00,1.539513184092895594e-05,-8.708743185397532468e-05
3.185714285714285499e+00,1.633815346366248138e-05,-9.961431057617362353e-05
3.186507936507936289e+00,1.544966311088922099e-05,-1.081347385401125753e-04
3.187301587301587080e+00,1.293326282225556121e-05,-1.105430868912137763e-04
3.188095238095238315e+00,9.252762747023138634e-06,-1.057852635332860725e-04
3.188888888888889106e+00,4.993339279433622406e-06,-9.403281329574430560e-05
3.189682539682539897e+00,7.014416312066345347e-07,-7.658944721283910252e-05
3.190476190476190688e+00,-3.246107487072841324e-06,-5.558935288013854773e-05
3.191269841269841478e+00,-6.705017663016077938e-06,-3.357199349417236113e-05
3.192063492063492269e+00,-9.742741694673166477e-06,-1.301485319048411779e-05
3.192857142857143060e+00,-1.254487227797581591e-05,4.106484765738550145e-06
3.193650793650793851e+00,-1.528087780933168875e-05,1.666585550623940468e-05
3.194444444444444642e+00,-1.797155956151673178e-05,2.457342607868176666e-05
3.195238095238095433e+00,-2.039926645689847236e-05,2.874208293395651650e-05
3.196031746031746223e+00,-2.209216290411400059e-05,3.081296879063158851e-05
3.196825396825397014e+00,-2.239857810214121873e-05,3.268820622090912637e-05
3.197619047619047805e+00,-2.064640750192148059e-05,3.598800059799704963e-05
3.198412698412698596e+00,-1.635538528504900765e-05,4.158629592853177226e-05
3.199206349206349387e+00,-9.443555493729378279e-06,4.936446010779881559e-05
3.200000000000000178e+00,-3.579222230364504039e-07,5.825622337784988755e-05
3.200793650793650968e+00,9.925159068656083376e-06,6.656288979168089172e-05
3.201587301587301759e+00,2.004416977253285775e-05,7.243661602346145815e-05
3.202380952380952550e+00,2.850777395441189793e-05,7.439216118019519627e-05
3.203174603174603341e+00,3.399305775038370350e-05,7.171320342891268130e-05
3.203968253968254132e+00,3.560873757130481509e-05,6.465063254794075655e-05
3.204761904761904923e+00,3.306103913532426803e-05,5.436098899133908814e-05
3.205555555555555713e+00,2.669193723238217337e-05,4.260569499647301987e-05
3.206349206349206504e+00,1.739461957246825393e-05,3.130905965755333983e-05
3.207142857142857295e+00,6.437318828117351628e-06,2.211598123311277534e-05
3.207936507936508086e+00,-4.761379599875999844e-06,1.607355907881652339e-05
3.208730158730158877e+00,-1.486239252712978736e-05,1.349995712304444289e-05
3.209523809523809668e+00,-2.280323087311910991e-05,1.403412840673036934e-05
3.210317460317460458e+00,-2.793200725491860621e-05,1.680532515303037114e-05
3.211111111111111249e+00,-3.005852478090849955e-05,2.063630242903329042e-05
3.211904761904762040e+00,-2.941773135049606993e-05,2.421334653481725671e-05
3.212698412698412831e+00,-2.655927290307752431e-05,2.621551548280727324e-05
3.213492063492063622e+00,-2.219368584160833440e-05,2.545403589062200436e-05
3.214285714285714413e+00,-1.703505369602132863e-05,2.107904462007420239e-05
3.215079365079365203e+00,-1.167791793900112697e-05,1.285163485257409831e-05
3.215873015873015994e+00,-6.532733786480362227e-06,1.396430481078094548e-06
3.216666666666666785e+00,-1.823355307431174035e-06,-1.169286858257946292e-05
3.217460317460317576e+00,2.369884814818574052e-06,-2.399040981346747220e-05
3.218253968253968367e+00,6.047781888499787007e-06,-3.262444208538680334e-05
3.219047619047619158e+00,9.232972778736822615e-06,-3.482842279199646683e-05
3.219841269841269948e+00,1.192489080444657954e-05,-2.852373783388142977e-05
3.220634920634920739e+00,1.407224978125990674e-05,-1.280485910295330009e-05
3.221428571428571530e+00,1.556623990001960843e-05,1.176138731977725523e-05
3.222222222222222321e+00,1.625957430679057810e-05,4.305790430887060231e-05
3.223015873015873112e+00,1.601287731540873110e-05,7.755862523379232997e-05
3.223809523809523903e+00,1.475918814148103440e-05,1.106824170643645251e-04
3.224603174603174693e+00,1.256474854093265660e-05,1.373677643507609084e-04
3.225396825396825484e+00,9.658165850880329515e-06,1.528656730019209507e-04
3.226190476190476275e+00,6.407965650975520231e-06,1.536748241053168852e-04
3.226984126984127066e+00,3.250299768869864760e-06,1.384216064246287289e-04
3.227777777777777857e+00,5.923963388139572517e-07,1.083948690874540543e-04
3.228571428571428648e+00,-1.272506155286549214e-06,6.747719149796518130e-05
3.229365079365079438e+00,-2.212606870174816946e-06,2.140426824197256967e-05
3.230158730158730229e+00,-2.262554281359238755e-06,-2.345339454436382807e-05
3.230952380952381020e+00,-1.599750244729487062e-06,-6.141053823922513165e-05
3.231746031746031811e+00,-5.111246440815449189e-07,-8.851014096590475240e-05
3.232539682539682602e+00,6.385508497830381454e-07,-1.030586342490367286e-04
3.233333333333333393e+00,1.439136843614787780e-06,-1.056156680711337574e-04
3.234126984126984183e+00,1.478846703426387534e-06,-9.854808171185334032e-05
3.234920634920634974e+00,4.068508216799399561e-07,-8.533010390298686597e-05
