Timestamp,Flexor carpi radialis,Extensor digitorum
2.000000000000000000e+00,-1.082404810540053600e-05,-7.259311944060854130e-05
2.000793650793650791e+00,4.432749733040515429e-05,-6.645470061104919465e-05
2.001587301587301582e+00,9.245246488691358038e-05,-4.744133654627974482e-05
2.002380952380952372e+00,1.264551834392286590e-04,-1.901250338272697477e-05
2.003174603174603163e+00,1.420806180732141590e-04,1.358362542218818018e-05
2.003968253968253954e+00,1.385114195828458599e-04,4.447710451305543104e-05
2.004761904761904745e+00,1.182146020064092173e-04,6.838799562549889599e-05
2.005555555555555536e+00,8.612847176148026259e-05,8.162652894344505467e-05
2.006349206349206327e+00,4.843250325350955033e-05,8.271307084565591278e-05
2.007142857142857117e+00,1.122137783328072641e-05,7.254510368470473355e-05
2.007936507936507908e+00,-2.060956030590540061e-05,5.411374486438132414e-05
2.008730158730158699e+00,-4.405348851672133111e-05,3.182665203884159713e-05
2.009523809523809490e+00,-5.817637393061395756e-05,1.054953956871470345e-05
2.010317460317460281e+00,-6.384759092429032198e-05,-5.451230637209429390e-06
2.011111111111111072e+00,-6.316126344354326661e-05,-1.342233770641203197e-05
2.011904761904761862e+00,-5.873268916921690577e-05,-1.265084233908156549e-05
2.012698412698412653e+00,-5.304395831921239685e-05,-4.451386794884239308e-06
2.013492063492063444e+00,-4.796678262573623211e-05,8.382956602460544466e-06
2.014285714285714235e+00,-4.452639939506071183e-05,2.249256638341116349e-05
2.015079365079365026e+00,-4.290488093880972782e-05,3.493540574642954100e-05
2.015873015873015817e+00,-4.262924045746935341e-05,4.393815032495276081e-05
2.016666666666666607e+00,-4.285941681299670577e-05,4.920558878029045337e-05
2.017460317460317398e+00,-4.268762277425236078e-05,5.174472275629912315e-05
2.018253968253968189e+00,-4.137989772164322295e-05,5.332030137173932938e-05
2.019047619047618980e+00,-3.852237498828041211e-05,5.575369810009423138e-05
2.019841269841269771e+00,-3.406636204126345976e-05,6.028688367107633392e-05
2.020634920634920562e+00,-2.828926282429662095e-05,6.717453296269721341e-05
2.021428571428571352e+00,-2.169961690121883260e-05,7.557910074220295315e-05
2.022222222222222143e+00,-1.491548978007710493e-05,8.376757722913521717e-05
2.023015873015872934e+00,-8.540474165276342803e-06,8.956072398938668756e-05
2.023809523809523725e+00,-3.055722633822610940e-06,9.094365648381044147e-05
2.024603174603174516e+00,1.257502495139832304e-06,8.668092062335214590e-05
2.025396825396825307e+00,4.353229830702814673e-06,7.670866239925018147e-05
2.026190476190476097e+00,6.407466011455370535e-06,6.208341367455897178e-05
2.026984126984126888e+00,7.757958108153989067e-06,4.442337520744831349e-05
2.027777777777777679e+00,8.809528135529175565e-06,2.504099694078405007e-05
2.028571428571428470e+00,9.926905087644094985e-06,4.174351699910839538e-06
2.029365079365079261e+00,1.134144090032678540e-05,-1.926944472048433695e-05
2.030158730158730052e+00,1.309541424321955275e-05,-4.725652163402260743e-05
2.030952380952380842e+00,1.503793310667624323e-05,-8.156512253682959661e-05
2.031746031746031633e+00,1.687232343955462300e-05,-1.224952425024168276e-04
2.032539682539682424e+00,1.824091601397003366e-05,-1.678301173810700848e-04
2.033333333333333215e+00,1.882424564985137654e-05,-2.124625493653345952e-04
2.034126984126984006e+00,1.843032339504289694e-05,-2.489130035004015950e-04
2.034920634920634797e+00,1.705437913829442194e-05,-2.687336939466536162e-04
2.035714285714285587e+00,1.489689792930670390e-05,-2.645549055391768615e-04
2.036507936507936378e+00,1.233566580675594658e-05,-2.323123089697034268e-04
2.037301587301587169e+00,9.855603109142113788e-06,-1.730403928887158205e-04
2.038095238095237960e+00,7.948659122814585198e-06,-9.359795845201001056e-05
2.038888888888888751e+00,7.004361645034798555e-06,-5.880250815090948721e-06
2.039682539682539542e+00,7.217292227583614371e-06,7.551723789855136523e-05
2.040476190476190332e+00,8.536889980637897999e-06,1.366920875406828174e-04
2.041269841269841123e+00,1.067525003372425002e-05,1.679565924380689286e-04
2.042063492063491914e+00,1.317234722299294756e-05,1.664042782220487944e-04
2.042857142857142705e+00,1.550162912502225625e-05,1.366573371181003789e-04
2.043650793650793496e+00,1.718819495339202785e-05,8.948432095969729538e-05
2.044444444444444287e+00,1.790949001100039438e-05,3.868905335651408724e-05
2.045238095238095077e+00,1.755405696497290495e-05,-2.735004524007691025e-06
2.046031746031745868e+00,1.622545242811062222e-05,-2.596868583474418296e-05
2.046825396825396659e+00,1.419356008689550207e-05,-2.826168671605133238e-05
2.047619047619047450e+00,1.181052374227066661e-05,-1.292070912397629015e-05
2.048412698412698241e+00,9.418072589954784083e-06,1.241026536001396262e-05
2.049206349206349032e+00,7.272761008592980734e-06,3.848012136682471622e-05
2.049999999999999822e+00,5.505933110719513959e-06,5.725021473432736785e-05
2.050793650793650613e+00,4.121650686254729818e-06,6.396894392746972451e-05
2.051587301587301404e+00,3.025255336644516523e-06,5.799726628972619812e-05
2.052380952380952195e+00,2.070620490148850502e-06,4.232162147138969390e-05
2.053174603174602986e+00,1.113353730270904302e-06,2.209270289155507408e-05
2.053968253968253777e+00,5.717309848732818044e-08,2.775001190019259818e-06
2.054761904761904567e+00,-1.118258054507885446e-06,-1.147473125791058393e-05
2.055555555555555358e+00,-2.355051114222976367e-06,-1.874748049577248531e-05
2.056349206349206149e+00,-3.539128556618268364e-06,-1.947258595333585947e-05
2.057142857142856940e+00,-4.537540064592110579e-06,-1.578374875739191528e-05
2.057936507936507731e+00,-5.238508603459321281e-06,-1.048955026173169015e-05
2.058730158730158522e+00,-5.582706800995454328e-06,-6.046068827351350234e-06
2.059523809523809312e+00,-5.577942755302808957e-06,-3.863865955144740811e-06
2.060317460317460103e+00,-5.294231099346149659e-06,-4.117648637896566065e-06
2.061111111111110894e+00,-4.841317419770231945e-06,-6.025217023459188370e-06
2.061904761904761685e+00,-4.335155510819907763e-06,-8.402735906987410499e-06
2.062698412698412920e+00,-3.862623625075702427e-06,-1.024883301360741943e-05
2.063492063492063711e+00,-3.454422923394943247e-06,-1.116082003802354581e-05
2.064285714285714501e+00,-3.074635185562681670e-06,-1.148433730060857844e-05
2.065079365079365292e+00,-2.631887136517683752e-06,-1.218563745011103666e-05
2.065873015873016083e+00,-2.011476774886099755e-06,-1.450041423893126983e-05
2.066666666666666874e+00,-1.120959029334946551e-06,-1.946602624853048909e-05
2.067460317460317665e+00,6.399553665356748256e-08,-2.748096253010538466e-05
2.068253968253968456e+00,1.468211103147275650e-06,-3.803487676621083037e-05
2.069047619047619246e+00,2.911295590764418720e-06,-4.970406949932085298e-05
2.069841269841270037e+00,4.131924256798654757e-06,-6.042638008510959268e-05
2.070634920634920828e+00,4.838645960839820034e-06,-6.798612663559297183e-05
2.071428571428571619e+00,4.776580267870332100e-06,-7.058018967717723604e-05
2.072222222222222410e+00,3.794015902669971608e-06,-6.731381730836201818e-05
2.073015873015873201e+00,1.891174573943235751e-06,-5.849094945846287788e-05
2.073809523809523991e+00,-7.632992567942206682e-07,-4.561192869708067789e-05
2.074603174603174782e+00,-3.854801926412389346e-06,-3.105694613403983656e-05
2.075396825396825573e+00,-6.980762691397998352e-06,-1.749999740005246188e-05
2.076190476190476364e+00,-9.730495660676993815e-06,-7.157589399318196465e-06
2.076984126984127155e+00,-1.176561896142321929e-05,-1.033133874895044427e-06
2.077777777777777946e+00,-1.287871683869368899e-05,1.626229080090746473e-06
2.078571428571428736e+00,-1.301572954861913428e-05,3.415168381810342343e-06
2.079365079365079527e+00,-1.226103922369773205e-05,8.213001018180479914e-06
2.080158730158730318e+00,-1.079643396132279360e-05,1.999519377945224613e-05
2.080952380952381109e+00,-8.850844528226541275e-06,4.131252949212948366e-05
2.081746031746031900e+00,-6.656228969724671685e-06,7.196650249798046308e-05
2.082539682539682691e+00,-4.418701657363763504e-06,1.084294921257909799e-04
2.083333333333333481e+00,-2.306440865597358511e-06,1.443299459784721573e-04
2.084126984126984272e+00,-4.500764609852105841e-07,1.719349163564594873e-04
2.084920634920635063e+00,1.051196822643195000e-06,1.841723251023995886e-04
2.085714285714285854e+00,2.123613991481968861e-06,1.765126184137032824e-04
2.086507936507936645e+00,2.715863659932768887e-06,1.480909617967936568e-04
2.087301587301587436e+00,2.799289762898868351e-06,1.017778535412599536e-04
2.088095238095238226e+00,2.370322756473727267e-06,4.332460853356665713e-05
2.088888888888889017e+00,1.454423564220110757e-06,-1.999602957630383516e-05
2.089682539682539808e+00,1.107477302137336964e-07,-8.077490320446833886e-05
2.090476190476190599e+00,-1.564473948760668575e-06,-1.325325544963176609e-04
2.091269841269841390e+00,-3.439289607139723523e-06,-1.703314744677561466e-04
2.092063492063492181e+00,-5.355703927428505265e-06,-1.909798842612448226e-04
2.092857142857142971e+00,-7.149344725861265457e-06,-1.929753147747806374e-04
2.093650793650793762e+00,-8.677410714733092438e-06,-1.763585772497679725e-04
2.094444444444444553e+00,-9.849709732895196141e-06,-1.426039422724586982e-04
2.095238095238095344e+00,-1.065470344683069774e-05,-9.457861937554344948e-05
2.096031746031746135e+00,-1.116999766066600017e-05,-3.650151280950781788e-05
2.096825396825396925e+00,-1.154556135778218193e-05,2.622632442966296712e-05
2.097619047619047716e+00,-1.195142139560603115e-05,8.742118175718038050e-05
2.098412698412698507e+00,-1.249274795291427480e-05,1.407555125510370438e-04
2.099206349206349298e+00,-1.311258816385304601e-05,1.805467078099994298e-04
2.100000000000000089e+00,-1.351883800716239440e-05,2.025524497132387294e-04
2.100793650793650880e+00,-1.317786995704298082e-05,2.046287698939929249e-04
2.101587301587301670e+00,-1.140549989798612788e-05,1.871334053759661107e-04
2.102380952380952461e+00,-7.556142754880982280e-06,1.529812630088054671e-04
2.103174603174603252e+00,-1.271391167807368568e-06,1.072838652699873157e-04
2.103968253968254043e+00,7.284709258523492006e-06,5.656589582638829416e-05
2.104761904761904834e+00,1.728907273449704123e-05,7.664826705080582126e-06
2.105555555555555625e+00,2.729048215118646669e-05,-3.346034846583850205e-05
2.106349206349206415e+00,3.543394878909295715e-05,-6.272852525373793771e-05
2.107142857142857206e+00,3.984704391648176555e-05,-7.850302340315253437e-05
2.107936507936507997e+00,3.910130682686320313e-05,-8.160732960249943439e-05
2.108730158730158788e+00,3.262644460474143959e-05,-7.482910248024060009e-05
2.109523809523809579e+00,2.095472664795956983e-05,-6.208702947717539724e-05
2.110317460317460370e+00,5.713209709562287741e-06,-4.750326220536762301e-05
2.111111111111111160e+00,-1.064793761533035886e-05,-3.460597504408371994e-05
2.111904761904761951e+00,-2.532629278179474396e-05,-2.580100540522804243e-05
2.112698412698412742e+00,-3.571826252425501947e-05,-2.214722929114944198e-05
2.113492063492063533e+00,-3.991692402609075228e-05,-2.339723788926180339e-05
2.114285714285714324e+00,-3.704859827634351396e-05,-2.824207303382562513e-05
2.115079365079365115e+00,-2.739162599997261872e-05,-3.470619018332579632e-05
2.115873015873015905e+00,-1.227833539525479386e-05,-4.064100751346225702e-05
2.116666666666666696e+00,6.173611947154209011e-06,-4.424371500136459613e-05
2.117460317460317487e+00,2.543160313916031730e-05,-4.449482317996615198e-05
2.118253968253968278e+00,4.294953366753544724e-05,-4.139649880744177723e-05
2.119047619047619069e+00,5.653912931946279404e-05,-3.593067263898960871e-05
2.119841269841269860e+00,6.466207619219607847e-05,-2.973510233339841043e-05
2.120634920634920650e+00,6.660714167453456571e-05,-2.458163684038204496e-05
2.121428571428571441e+00,6.253219651941814680e-05,-2.180245077252309429e-05
2.122222222222222232e+00,5.336930054060233676e-05,-2.183739976824190110e-05
2.123015873015873023e+00,4.061145030663204479e-05,-2.405980875997815166e-05
2.123809523809523814e+00,2.602155758380980924e-05,-2.696086652888192583e-05
2.124603174603174605e+00,1.132277709308453310e-05,-2.864394913006820353e-05
2.125396825396825395e+00,-2.065094717905128538e-06,-2.745779019082808918e-05
2.126190476190476186e+00,-1.319219863151782797e-05,-2.254498313590278937e-05
2.126984126984126977e+00,-2.162628490342679102e-05,-1.411906110034596211e-05
2.127777777777777768e+00,-2.739164764037428486e-05,-3.386117959944573129e-06
2.128571428571428559e+00,-3.083318971745335714e-05,7.844845936570348391e-06
2.129365079365079350e+00,-3.245020004050484086e-05,1.771179061283994648e-05
2.130158730158730140e+00,-3.274291502285879232e-05,2.481528711520787224e-05
2.130952380952380931e+00,-3.210408328758567316e-05,2.853867570795596826e-05
2.131746031746031722e+00,-3.077134322311932601e-05,2.909601420296575248e-05
2.132539682539682513e+00,-2.883885195941468874e-05,2.732803091844547035e-05
2.133333333333333304e+00,-2.631278112508516823e-05,2.434679199652389216e-05
2.134126984126984095e+00,-2.318781721987339689e-05,2.117218332871184734e-05
2.134920634920634885e+00,-1.952079197518931329e-05,1.848847281748159505e-05
2.135714285714285676e+00,-1.548120596337453238e-05,1.657927850930915654e-05
2.136507936507936467e+00,-1.136485537450797787e-05,1.541152550800674106e-05
2.137301587301587258e+00,-7.565295940696832304e-06,1.478292537633753849e-05
2.138095238095238049e+00,-4.508018710079561145e-06,1.444728953661096729e-05
2.138888888888888840e+00,-2.562224839081511047e-06,1.417523054774135816e-05
2.139682539682539630e+00,-1.951940013926389864e-06,1.376138038147648055e-05
2.140476190476190421e+00,-2.689396504051624599e-06,1.301955063752422129e-05
2.141269841269841212e+00,-4.548847211009057131e-06,1.179896387746002800e-05
2.142063492063492003e+00,-7.090100850274105374e-06,1.002231059017469317e-05
2.142857142857142794e+00,-9.730384074038552365e-06,7.721304010105602161e-06
2.143650793650793585e+00,-1.185216118987164892e-05,5.045427945923601390e-06
2.144444444444444375e+00,-1.292470669892818934e-05,2.236436253481932518e-06
2.145238095238095166e+00,-1.261135830797196832e-05,-4.227536840967633698e-07
2.146031746031745957e+00,-1.083609576012645966e-05,-2.669006507323625220e-06
2.146825396825396748e+00,-7.793465790596361805e-06,-4.313747834894866138e-06
2.147619047619047539e+00,-3.901040390690775468e-06,-5.278386276579454309e-06
2.148412698412698330e+00,2.928132872530120749e-07,-5.601740688249671729e-06
2.149206349206349120e+00,4.224839337748250749e-06,-5.417108323088433625e-06
2.149999999999999911e+00,7.432197924826520621e-06,-4.904422736301038366e-06
2.150793650793650702e+00,9.643198068785733634e-06,-4.231893530182647533e-06
2.151587301587301493e+00,1.082373049802495413e-05,-3.509359910951157295e-06
2.152380952380952284e+00,1.116878854146966828e-05,-2.776730359310557154e-06
2.153174603174603075e+00,1.104128259069370073e-05,-2.040555361124116330e-06
2.153968253968253865e+00,1.087320192369612791e-05,-1.352068191233331807e-06
2.154761904761904656e+00,1.105295956743565728e-05,-8.985421513477261545e-07
2.155555555555555447e+00,1.182496123064909028e-05,-1.064486083212714064e-06
2.156349206349206238e+00,1.322277755342774491e-05,-2.417298967006865505e-06
2.157142857142857029e+00,1.504774191755424273e-05,-5.589503983823031593e-06
2.157936507936507819e+00,1.689421304350321291e-05,-1.106604930061424555e-05
2.158730158730158610e+00,1.821504102095184758e-05,-1.892931223895936974e-05
2.159523809523809401e+00,1.841715647108686725e-05,-2.864757216406533524e-05
2.160317460317460192e+00,1.697532880674028097e-05,-3.899660165578592636e-05
2.161111111111110983e+00,1.354867046471875233e-05,-4.817138361065055239e-05
2.161904761904761774e+00,8.078816882979482312e-06,-5.408641792885007977e-05
2.162698412698412564e+00,8.445883805378448723e-07,-5.480296436073652455e-05
2.163492063492063355e+00,-7.548730263953590135e-06,-4.898261442749186271e-05
2.164285714285714146e+00,-1.625282755014087751e-05,-3.625704847030038685e-05
2.165079365079364937e+00,-2.431696192400912743e-05,-1.741958198653024064e-05
2.165873015873015728e+00,-3.084912608115884157e-05,5.620120087815410144e-06
2.166666666666666519e+00,-3.515387602905868159e-05,3.012415050158073960e-05
2.167460317460317309e+00,-3.681391051663570208e-05,5.300304665069009995e-05
2.168253968253968100e+00,-3.570574174654703485e-05,7.137756219831717429e-05
2.169047619047618891e+00,-3.196368450160685660e-05,8.310053331888636824e-05
2.169841269841269682e+00,-2.592044375023702156e-05,8.712400080404442734e-05
2.170634920634920473e+00,-1.805141651275128461e-05,8.363258229203090577e-05
2.171428571428571264e+00,-8.935604568787259628e-06,7.391824784541513641e-05
2.172222222222222054e+00,7.717018449662226330e-07,6.003504588135146977e-05
2.173015873015872845e+00,1.036956135790825406e-05,4.432861018645431516e-05
2.173809523809523636e+00,1.915816709884789320e-05,2.896375519611675258e-05
2.174603174603174427e+00,2.650276147411575168e-05,1.556226800913757208e-05
2.175396825396825218e+00,3.190205422034788431e-05,5.018858536425574625e-06
2.176190476190476009e+00,3.504132357353146584e-05,-2.493813470463834927e-06
2.176984126984126799e+00,3.581356205626097343e-05,-7.370483734646802471e-06
2.177777777777777590e+00,3.430337430170319143e-05,-1.033986732061652471e-05
2.178571428571428381e+00,3.074204278620220514e-05,-1.222904732236590094e-05
2.179365079365079172e+00,2.545232165220713726e-05,-1.378201326885644157e-05
2.180158730158729963e+00,1.880338023969022114e-05,-1.555345438891786138e-05
2.180952380952380754e+00,1.118843076646936838e-05,-1.786701170078241945e-05
2.181746031746031544e+00,3.024361164574593215e-06,-2.081219255921753689e-05
2.182539682539682335e+00,-5.238119063769992010e-06,-2.425747929957750349e-05
2.183333333333333126e+00,-1.310916701020577074e-05,-2.787119170939556900e-05
2.184126984126983917e+00,-2.007154153286680895e-05,-3.115588863268730751e-05
2.184920634920634708e+00,-2.561268625601230116e-05,-3.350773231526511944e-05
2.185714285714285499e+00,-2.926941924940000488e-05,-3.430667074721588708e-05
2.186507936507936289e+00,-3.067290763149378729e-05,-3.303181792462681418e-05
2.187301587301587080e+00,-2.958872403788430662e-05,-2.938619030933810534e-05
2.188095238095238315e+00,-2.595626003575993336e-05,-2.340694153573285533e-05
2.188888888888889106e+00,-1.992831559448378020e-05,-1.552929508961375837e-05
2.189682539682539897e+00,-1.189637287650377666e-05,-6.570045054727198905e-06
2.190476190476190688e+00,-2.478856766697501322e-06,2.388811791175057993e-06
2.191269841269841478e+00,7.538978466381250133e-06,1.020274972797437781e-05
2.192063492063492269e+00,1.730291369896070085e-05,1.590420936680712034e-05
2.192857142857143060e+00,2.599943218123279028e-05,1.890978392370496012e-05
2.193650793650793851e+00,3.295001866819044181e-05,1.913155562888301184e-05
2.194444444444444642e+00,3.767175189622158030e-05,1.695765494365469972e-05
2.195238095238095433e+00,3.989841086731664676e-05,1.310995832340222414e-05
2.196031746031746223e+00,3.956867667397060475e-05,8.429302850059446344e-06
2.196825396825397014e+00,3.679672082543036901e-05,3.662500908978785102e-06
2.197619047619047805e+00,3.184214727488602335e-05,-6.808990958159818991e-07
2.198412698412698596e+00,2.509054616095996902e-05,-4.366702531590814820e-06
2.199206349206349387e+00,1.704611054774651002e-05,-7.375701326530629192e-06
2.200000000000000178e+00,8.328024754667412349e-06,-9.785391247447316042e-06
2.200793650793650968e+00,-3.442812534495629507e-07,-1.164932327717906028e-05
2.201587301587301759e+00,-8.193218755905452093e-06,-1.292412626751822423e-05
2.202380952380952550e+00,-1.446266150681447422e-05,-1.347277720393630894e-05
2.203174603174603341e+00,-1.853104187958626463e-05,-1.314214729050243384e-05
2.203968253968254132e+00,-2.003471620995873250e-05,-1.188128690866904042e-05
2.204761904761904923e+00,-1.896370477289032413e-05,-9.845220288858756833e-06
2.205555555555555713e+00,-1.569226491555026265e-05,-7.428563037299739523e-06
2.206349206349206504e+00,-1.092496231365400048e-05,-5.197918121572288295e-06
2.207142857142857295e+00,-5.566385119050615823e-06,-3.733153410438783265e-06
2.207936507936508086e+00,-5.462422826107834071e-07,-3.428590659255878257e-06
2.208730158730158877e+00,3.356678024198333920e-06,-4.329205032868765725e-06
2.209523809523809668e+00,5.649104930813912832e-06,-6.072323004985814517e-06
2.210317460317460458e+00,6.185611723839823826e-06,-7.968511732986589903e-06
2.211111111111111249e+00,5.148252647254532738e-06,-9.197502173516730516e-06
2.211904761904762040e+00,2.956841780098031938e-06,-9.043252099394844700e-06
2.212698412698412831e+00,1.415688972078438979e-07,-7.076227384330039958e-06
2.213492063492063622e+00,-2.784535880190054191e-06,-3.221483756110356890e-06
2.214285714285714413e+00,-5.422913553309448799e-06,2.288556529401104996e-06
2.215079365079365203e+00,-7.540456606045839287e-06,9.020878571209253329e-06
2.215873015873015994e+00,-9.072556841593806308e-06,1.642949458981000295e-05
2.216666666666666785e+00,-1.008745373806958130e-05,2.386838581184266429e-05
2.217460317460317576e+00,-1.072738304307286558e-05,3.053074334755871943e-05
2.218253968253968367e+00,-1.114403575424336892e-05,3.537372674778673474e-05
2.219047619047619158e+00,-1.144431348779286960e-05,3.711650182211877978e-05
2.219841269841269948e+00,-1.165847239703633854e-05,3.438447208568922001e-05
2.220634920634920739e+00,-1.173741482078734892e-05,2.602134603003925797e-05
2.221428571428571530e+00,-1.157913156326518744e-05,1.152196042870858202e-05
2.222222222222222321e+00,-1.107637808127168577e-05,-8.525934829665540046e-06
2.223015873015873112e+00,-1.017074776994935521e-05,-3.214444154757131538e-05
2.223809523809523903e+00,-8.895573676464714271e-06,-5.596864305640314712e-05
2.224603174603174693e+00,-7.393076638462288300e-06,-7.565512358128804538e-05
2.225396825396825484e+00,-5.898696309307653388e-06,-8.669338825107487663e-05
2.226190476190476275e+00,-4.694921590376196455e-06,-8.547274202813999369e-05
2.226984126984127066e+00,-4.045441411326520007e-06,-7.032295726150420377e-05
2.227777777777777857e+00,-4.125887038946004040e-06,-4.218807127882233892e-05
2.228571428571428648e+00,-4.968631081163375444e-06,-4.658209916832839752e-06
2.229365079365079438e+00,-6.436071670565345393e-06,3.672624891433428089e-05
2.230158730158730229e+00,-8.230542450727812055e-06,7.573262771147857956e-05
2.230952380952381020e+00,-9.940948019448406320e-06,1.068774975446914414e-04
2.231746031746031811e+00,-1.111825883502419527e-05,1.265943118806249783e-04
2.232539682539682602e+00,-1.136600851322984574e-05,1.337716545026246002e-04
2.233333333333333393e+00,-1.042913818314012121e-05,1.295535206746542415e-04
2.234126984126984183e+00,-8.264700618735632188e-06,1.165705170422107125e-04
2.234920634920634974e+00,-5.079890658009263205e-06,9.795021354297777044e-05
2.235714285714285765e+00,-1.326179329135196393e-06,7.647122605419324765e-05
2.236507936507936556e+00,2.356000774743685215e-06,5.410204613965069188e-05
2.237301587301587347e+00,5.238703514117888524e-06,3.197640966293666413e-05
2.238095238095238138e+00,6.639828102584672985e-06,1.068241623894971730e-05
2.238888888888888928e+00,6.064162461600620462e-06,-9.353077221208719642e-06
2.239682539682539719e+00,3.321993912356359532e-06,-2.758952453472160953e-05
2.240476190476190510e+00,-1.403963169549356282e-06,-4.331135273707634989e-05
2.241269841269841301e+00,-7.563165610162771189e-06,-5.576077880829636500e-05
2.242063492063492092e+00,-1.431566377477533086e-05,-6.435867561715996480e-05
2.242857142857142883e+00,-2.066556703630255195e-05,-6.888432389893156061e-05
2.243650793650793673e+00,-2.561476752623428603e-05,-6.952369685477175420e-05
2.244444444444444464e+00,-2.829946905950980494e-05,-6.677410433010708883e-05
2.245238095238095255e+00,-2.808493578004022900e-05,-6.127176883487654474e-05
2.246031746031746046e+00,-2.461656060977978242e-05,-5.364958974615712239e-05
2.246825396825396837e+00,-1.784682761157200162e-05,-4.451455509709333953e-05
2.247619047619047628e+00,-8.065741247200307977e-06,-3.456328295824162984e-05
2.248412698412698418e+00,4.050893291358030615e-06,-2.476298441332962458e-05
2.249206349206349209e+00,1.739144049644309690e-05,-1.646451406154579304e-05
2.250000000000000000e+00,3.040413717104840057e-05,-1.132367771309644025e-05
2.250793650793650791e+00,4.119873100487244581e-05,-1.098664520707398935e-05
2.251587301587301582e+00,4.779669627447401145e-05,-1.660458064187757165e-05
2.252380952380952372e+00,4.852519376932261597e-05,-2.832876250049212239e-05
2.253174603174603163e+00,4.248484840879654010e-05,-4.496867812926658078e-05
2.253968253968253954e+00,2.996231404057394989e-05,-6.396543572677268485e-05
2.254761904761904745e+00,1.263476692083138570e-05,-8.174389565306341347e-05
2.255555555555555536e+00,-6.553345114175798690e-06,-9.437819931982695677e-05
2.256349206349206327e+00,-2.387111708591019033e-05,-9.839451647791779996e-05
2.257142857142857117e+00,-3.555177177577176185e-05,-9.150714050452945537e-05
2.257936507936507908e+00,-3.862768356900137169e-05,-7.314093815735680745e-05
2.258730158730158699e+00,-3.162853790741717224e-05,-4.466693184783335511e-05
2.259523809523809490e+00,-1.495869248494417479e-05,-9.314835058560641011e-06
2.260317460317460281e+00,9.139303486052703283e-06,2.825683595982172267e-05
2.261111111111111072e+00,3.701829689884842599e-05,6.270913678756585147e-05
2.261904761904761862e+00,6.434434635525451435e-05,8.898200715370745920e-05
2.262698412698412653e+00,8.692589370981940503e-05,1.032653985919757721e-04
2.263492063492063444e+00,1.014680076913914537e-04,1.037396240170551415e-04
2.264285714285714235e+00,1.060974187715189919e-04,9.089151528785349124e-05
2.265079365079365026e+00,1.005705292330698515e-04,6.734613974112055963e-05
2.265873015873015817e+00,8.615835581256488815e-05,3.730095927244594722e-05
2.266666666666666607e+00,6.527522808972435493e-05,5.733374412607729157e-06
2.267460317460317398e+00,4.096114583221806282e-05,-2.244521992505804295e-05
2.268253968253968189e+00,1.633393519404147411e-05,-4.315510128469244813e-05
2.269047619047618980e+00,-5.893853251704333677e-06,-5.373793527876514472e-05
2.269841269841269771e+00,-2.377020901712001256e-05,-5.330294816235330425e-05
2.270634920634920562e+00,-3.629832821474196898e-05,-4.278829314441421060e-05
2.271428571428571352e+00,-4.346320776608909647e-05,-2.472297930027988442e-05
2.272222222222222143e+00,-4.610387907003441886e-05,-2.704156719187499318e-06
2.273015873015872934e+00,-4.566282186662934254e-05,1.935143782777704264e-05
2.273809523809523725e+00,-4.385809280462287923e-05,3.805872914216396481e-05
2.274603174603174516e+00,-4.233290055002304915e-05,5.133025500913684518e-05
2.275396825396825307e+00,-4.234040607789783404e-05,5.884465155816359075e-05
2.276190476190476097e+00,-4.451667880970762052e-05,6.205654137771645013e-05
2.276984126984126888e+00,-4.878079142692340374e-05,6.371117129148064727e-05
2.277777777777777679e+00,-5.437856950661112059e-05,6.698073272527163731e-05
2.278571428571428470e+00,-6.005863682176758046e-05,7.445885247564803958e-05
2.279365079365079261e+00,-6.434179681425558118e-05,8.728827402954694660e-05
2.280158730158730052e+00,-6.582488342884171631e-05,1.046465228640754960e-04
2.280952380952380842e+00,-6.345505076134365016e-05,1.237067031097779848e-04
2.281746031746031633e+00,-5.672306595122688684e-05,1.400726244528282692e-04
2.282539682539682424e+00,-4.574980736477361331e-05,1.485929491414594275e-04
2.283333333333333215e+00,-3.126721792000563280e-05,1.443990015792348416e-04
2.284126984126984006e+00,-1.451232548038127499e-05,1.239835736978046844e-04
2.284920634920634797e+00,2.942134906337372750e-06,8.613514274454316978e-05
2.285714285714285587e+00,1.939865886352679588e-05,3.255098277314571233e-05
2.286507936507936378e+00,3.326586869728446300e-05,-3.202837713685537444e-05
2.287301587301587169e+00,4.328265704174999700e-05,-1.002734126522167524e-04
2.288095238095237960e+00,4.870156018758651720e-05,-1.633209925724395518e-04
2.288888888888888751e+00,4.939547893370397214e-05,-2.122992560875469148e-04
2.289682539682539542e+00,4.586101642648836388e-05,-2.400367867563484958e-04
2.290476190476190332e+00,3.911123026752185935e-05,-2.425647662056385314e-04
2.291269841269841123e+00,3.047533743126246860e-05,-2.200189654020960400e-04
2.292063492063491914e+00,2.134618498020916124e-05,-1.766785928825188141e-04
2.292857142857142705e+00,1.293084298655026967e-05,-1.201093360868879864e-04
2.293650793650793496e+00,6.059318978107910061e-06,-5.962132136435968106e-05
2.294444444444444287e+00,1.090043537651410057e-06,-4.418923065961713030e-06
2.295238095238095077e+00,-2.075517057829266654e-06,3.813126589291810053e-05
2.296031746031745868e+00,-3.883283463053034841e-06,6.374162349102786178e-05
2.296825396825396659e+00,-4.955445645383297131e-06,7.170932814344792099e-05
2.297619047619047450e+00,-5.900695980631415972e-06,6.462391171730750661e-05
2.298412698412698241e+00,-7.149237389361903387e-06,4.741470617913911488e-05
2.299206349206349032e+00,-8.849032100170907826e-06,2.603368200016039946e-05
2.299999999999999822e+00,-1.084582342252229241e-05,6.122992492457994895e-06
2.300793650793650613e+00,-1.274916961963137736e-05,-8.041595743714205185e-06
2.301587301587301404e+00,-1.406346310313565719e-05,-1.416538762853301534e-05
2.302380952380952195e+00,-1.434389080436803084e-05,-1.207373792227776438e-05
2.303174603174602986e+00,-1.333063221260465136e-05,-3.436802707923785186e-06
2.303968253968253777e+00,-1.102390052220569646e-05,8.815320038377980153e-06
2.304761904761904567e+00,-7.683572421047581461e-06,2.127287386737817420e-05
2.305555555555555358e+00,-3.760691431075042239e-06,3.089242986270014489e-05
2.306349206349206149e+00,2.144007436482275476e-07,3.573814575923436952e-05
2.307142857142856940e+00,3.754613505349128542e-06,3.541713148840665965e-05
2.307936507936507731e+00,6.517642792990173341e-06,3.105341254730286738e-05
2.308730158730158522e+00,8.362817298039701774e-06,2.479267151233225695e-05
2.309523809523809312e+00,9.352398671657509714e-06,1.901780733690492742e-05
2.310317460317460103e+00,9.701176234085942871e-06,1.557157677096365195e-05
2.311111111111110894e+00,9.691283808396708297e-06,1.525613097772483358e-05
2.311904761904761685e+00,9.577504682664313577e-06,1.773425553109839677e-05
2.312698412698412920e+00,9.510000507350890853e-06,2.178423431873649591e-05
2.313492063492063711e+00,9.496008160808109419e-06,2.574601734834614880e-05
2.314285714285714501e+00,9.410647058098456965e-06,2.797701869794332315e-05
2.315079365079365292e+00,9.052195908622494148e-06,2.719427575078007007e-05
2.315873015873016083e+00,8.223362263810604517e-06,2.266685742316769983e-05
2.316666666666666874e+00,6.812027219299498055e-06,1.428844153967930463e-05
2.317460317460317665e+00,4.845622203167894635e-06,2.580255606532517537e-06
2.318253968253968456e+00,2.502210646741661861e-06,-1.134507009991866999e-05
2.319047619047619246e+00,7.533091511664323699e-08,-2.586398339293703437e-05
2.319841269841270037e+00,-2.095796655206743539e-06,-3.899682871848134097e-05
2.320634920634920828e+00,-3.708807253413449398e-06,-4.866240345206149584e-05
2.321428571428571619e+00,-4.569038334939045436e-06,-5.302433217257521169e-05
2.322222222222222410e+00,-4.629689729585568511e-06,-5.087677782586996213e-05
2.323015873015873201e+00,-3.992881942543239771e-06,-4.198085861795830255e-05
2.323809523809523991e+00,-2.875120779794522727e-06,-2.724877469451467479e-05
2.324603174603174782e+00,-1.550444000796003616e-06,-8.690052748154097461e-06
2.325396825396825573e+00,-2.889820509528405006e-07,1.091175806309078276e-05
2.326190476190476364e+00,6.937525568574254948e-07,2.854303085962775090e-05
2.326984126984127155e+00,1.268783550113778624e-06,4.159543412814560668e-05
2.327777777777777946e+00,1.406068837202028905e-06,4.841797412215467197e-05
2.328571428571428736e+00,1.170535072689128869e-06,4.862593665559076508e-05
2.329365079365079527e+00,7.053248353089845247e-07,4.308183609236382333e-05
2.330158730158730318e+00,2.048103447160972934e-07,3.356636293619925221e-05
2.330952380952381109e+00,-1.208031846814839896e-07,2.224567734666077303e-05
2.331746031746031900e+00,-8.704594091329689533e-08,1.108962929580483435e-05
2.332539682539682691e+00,4.212693016689687465e-07,1.399634829562500327e-06
2.333333333333333481e+00,1.412000485140065954e-06,-6.430561481783144036e-06
2.334126984126984272e+00,2.763803093994181002e-06,-1.286519822438076206e-05
2.334920634920635063e+00,4.231630293012038825e-06,-1.891416288984725281e-05
2.335714285714285854e+00,5.486224121042143940e-06,-2.565813894566154645e-05
2.336507936507936645e+00,6.184130051319472519e-06,-3.375580093138721657e-05
2.337301587301587436e+00,6.052251865792245841e-06,-4.308178537451083060e-05
2.338095238095238226e+00,4.962096083280627709e-06,-5.260841834143148503e-05
2.338888888888889017e+00,2.969496428706833186e-06,-6.057746007998645070e-05
2.339682539682539808e+00,3.068675361390399319e-07,-6.492546041553144416e-05
2.340476190476190599e+00,-2.668429947659754008e-06,-6.384888732727765637e-05
2.341269841269841390e+00,-5.552260639225673530e-06,-5.634787974748836701e-05
2.342063492063492181e+00,-7.975267279487454863e-06,-4.258888796875276005e-05
2.342857142857142971e+00,-9.667394751711122370e-06,-2.397811896950197767e-05
2.343650793650793762e+00,-1.049359728317574429e-05,-2.922391958221637196e-06
2.344444444444444553e+00,-1.045884289532344630e-05,1.765659419768889410e-05
2.345238095238095344e+00,-9.687180104829937294e-06,3.492292201764046826e-05
2.346031746031746135e+00,-8.381905834284253187e-06,4.668691524331182978e-05
2.346825396825396925e+00,-6.774863696229287317e-06,5.179183172659917957e-05
2.347619047619047716e+00,-5.075682062037932572e-06,5.024862182915850844e-05
2.348412698412698507e+00,-3.434567605591794203e-06,4.311123364053083968e-05
2.349206349206349298e+00,-1.929722757439202881e-06,3.215130508859567401e-05
2.350000000000000089e+00,-5.805038337293835891e-07,1.943590719605682826e-05
2.350793650793650880e+00,6.243762492284794434e-07,6.922878989223848091e-06
2.351587301587301670e+00,1.699572098433425917e-06,-3.836920538628133609e-06
2.352380952380952461e+00,2.648584887089396555e-06,-1.184961903880283799e-05
2.353174603174603252e+00,3.464551127992440231e-06,-1.668882965670271737e-05
2.353968253968254043e+00,4.140525323823364366e-06,-1.840619390265214354e-05
2.354761904761904834e+00,4.679518869094923161e-06,-1.739141831597934256e-05
2.355555555555555625e+00,5.096095061470941831e-06,-1.422682755094889891e-05
2.356349206349206415e+00,5.407251645145048166e-06,-9.569646040712714665e-06
2.357142857142857206e+00,5.617379596540019810e-06,-4.078389585176796539e-06
2.357936507936507997e+00,5.706188868811961926e-06,1.619854262097172088e-06
2.358730158730158788e+00,5.627329092747214740e-06,6.940552409555047705e-06
2.359523809523809579e+00,5.319860531836082253e-06,1.135558043482176355e-05
2.360317460317460370e+00,4.728130925019760373e-06,1.442589258499477711e-05
2.361111111111111160e+00,3.821822664308274711e-06,1.585324593712748035e-05
2.361904761904761951e+00,2.608708816235750350e-06,1.553694227383932303e-05
2.362698412698412742e+00,1.136695349083675021e-06,1.361516000401931391e-05
2.363492063492063533e+00,-5.135575297937071781e-07,1.047286189834305828e-05
2.364285714285714324e+00,-2.240525537565807602e-06,6.706574093923455037e-06
2.365079365079365115e+00,-3.931967774516626565e-06,3.046065434090794433e-06
2.365873015873015905e+00,-5.469181081643327836e-06,2.404528783787681697e-07
2.366666666666666696e+00,-6.726410796054552601e-06,-1.078863399543481388e-06
2.367460317460317487e+00,-7.571579831848211021e-06,-5.412536067741031564e-07
2.368253968253968278e+00,-7.875616356743302823e-06,1.837635756919099033e-06
2.369047619047619069e+00,-7.533649388931035926e-06,5.577730519944058283e-06
2.369841269841269860e+00,-6.494592659670008343e-06,9.735934651075360362e-06
2.370634920634920650e+00,-4.789867124165147965e-06,1.301392827037050691e-05
2.371428571428571441e+00,-2.549979238765873648e-06,1.398304994814158169e-05
2.372222222222222232e+00,-2.896114771379552585e-10,1.140948795234570645e-05
2.373015873015873023e+00,2.566396662798410787e-06,4.628381788867901322e-06
2.373809523809523814e+00,4.835292770311736849e-06,-6.117313200042182549e-06
2.374603174603174605e+00,6.522366690032684978e-06,-1.947692204343485004e-05
2.375396825396825395e+00,7.421961860642657846e-06,-3.303063634916003226e-05
2.376190476190476186e+00,7.439596448290454082e-06,-4.363031239740903524e-05
2.376984126984126977e+00,6.605469517596110418e-06,-4.803607438670029630e-05
2.377777777777777768e+00,5.069382817568356504e-06,-4.374517641819465055e-05
2.378571428571428559e+00,3.080852714218176848e-06,-2.980961787709719571e-05
2.379365079365079350e+00,9.584198947781763300e-07,-7.378350813839100201e-06
2.380158730158730140e+00,-9.495796222834451387e-07,2.027540001527285349e-05
2.380952380952380931e+00,-2.312030432066107444e-06,4.834788933419528566e-05
2.381746031746031722e+00,-2.868039584562201097e-06,7.161021797527994327e-05
2.382539682539682513e+00,-2.480101204093581795e-06,8.570449373032876131e-05
2.383333333333333304e+00,-1.176810681792478939e-06,8.821825081560258212e-05
2.384126984126984095e+00,8.280205878743589555e-07,7.921385122421420520e-05
2.384920634920634885e+00,3.151506306126879634e-06,6.110359155666048243e-05
2.385714285714285676e+00,5.298878039350265758e-06,3.797279925216206142e-05
2.386507936507936467e+00,6.757809419895564002e-06,1.457673265788115388e-05
2.387301587301587258e+00,7.113991412760598070e-06,-4.730205059492624912e-06
2.388095238095238049e+00,6.161136443404888029e-06,-1.690241073695555071e-05
2.388888888888888840e+00,3.973326188482350807e-06,-2.078430704222397174e-05
2.389682539682539630e+00,9.125185144450220883e-07,-1.728619501886704591e-05
2.390476190476190421e+00,-2.439591544799409088e-06,-9.154249133483315930e-06
2.391269841269841212e+00,-5.412824013119640701e-06,-3.878410263741869955e-07
2.392063492063492003e+00,-7.409385160886955418e-06,4.610001317368238601e-06
2.392857142857142794e+00,-8.051224617415587325e-06,2.033083535451819394e-06
2.393650793650793585e+00,-7.275685902576420705e-06,-1.033396256333042449e-05
2.394444444444444375e+00,-5.357167209599275056e-06,-3.233082735449558672e-05
2.395238095238095166e+00,-2.852161637396297546e-06,-6.106785191547347148e-05
2.396031746031745957e+00,-4.820768807783475726e-07,-9.118472745775719958e-05
2.396825396825396748e+00,1.020548738545165219e-06,-1.157839083784802228e-04
2.397619047619047539e+00,1.071858635845149400e-06,-1.279193505468402461e-04
2.398412698412698330e+00,-6.276224103926514517e-07,-1.223268974269647663e-04
2.399206349206349120e+00,-4.006899083238093208e-06,-9.694558572824455334e-05
2.399999999999999911e+00,-8.605851386932657492e-06,-5.376330699064206796e-05
2.400793650793650702e+00,-1.363207254172927051e-05,1.340501523093985544e-06
2.401587301587301493e+00,-1.808946922532356303e-05,5.980496362671744790e-05
2.402380952380952284e+00,-2.096045491153191204e-05,1.123608066740773776e-04
2.403174603174603075e+00,-2.140771167185555126e-05,1.511955027179397778e-04
2.403968253968253865e+00,-1.895013325030052662e-05,1.716443818120862727e-04
2.404761904761904656e+00,-1.356889240024796823e-05,1.729028661752674218e-04
2.405555555555555447e+00,-5.716852224060324598e-06,1.576239243291736316e-04
2.406349206349206238e+00,3.767940474868354489e-06,1.306727357937491427e-04
2.407142857142857029e+00,1.381729649465312088e-05,9.756583231921434193e-05
2.407936507936507819e+00,2.331349511732397955e-05,6.313000441699529364e-05
2.408730158730158610e+00,3.125302280946945581e-05,3.072055527035696764e-05
2.409523809523809401e+00,3.686555999382981776e-05,2.069153257297393035e-06
2.410317460317460192e+00,3.968035955205684209e-05,-2.238379595261131175e-05
2.411111111111110983e+00,3.954712490179369355e-05,-4.291796726463460851e-05
2.411904761904761774e+00,3.662263726610884979e-05,-5.996465287597654490e-05
2.412698412698412564e+00,3.133023045915193819e-05,-7.371455055411639480e-05
2.413492063492063355e+00,2.429462966875415401e-05,-8.398176615912054303e-05
2.414285714285714146e+00,1.625587112892857422e-05,-9.031102823309200816e-05
2.415079365079364937e+00,7.972507064444146499e-06,-9.224079043105791172e-05
2.415873015873015728e+00,1.300224816438133277e-07,-8.959526134814127410e-05
2.416666666666666519e+00,-6.730088405595249359e-06,-8.268554493919003036e-05
2.417460317460317309e+00,-1.225170721183635266e-05,-7.235024313994261095e-05
2.418253968253968100e+00,-1.627515707317309465e-05,-5.983453036242898589e-05
2.419047619047618891e+00,-1.882263094888836141e-05,-4.656212366969214144e-05
2.419841269841269682e+00,-2.006467952808931179e-05,-3.387757673883720394e-05
2.420634920634920473e+00,-2.027455362303644850e-05,-2.282822509740564250e-05
2.421428571428571264e+00,-1.977677502827087494e-05,-1.403024144393825038e-05
2.422222222222222054e+00,-1.889575086720659151e-05,-7.635821748982984621e-06
2.423015873015872845e+00,-1.790967946079624173e-05,-3.394971287546441100e-06
2.423809523809523636e+00,-1.701470511186398073e-05,-7.864882654355125809e-07
2.424603174603174427e+00,-1.630414848720751684e-05,8.200335888990511038e-07
2.425396825396825218e+00,-1.576680374804906778e-05,2.012279625680853427e-06
2.426190476190476009e+00,-1.530571723473747632e-05,3.225854375433056697e-06
2.426984126984126799e+00,-1.477437145300842887e-05,4.693701469018029716e-06
2.427777777777777590e+00,-1.402200491517751513e-05,6.453182898317504274e-06
2.428571428571428381e+00,-1.293611482562559016e-05,8.395892587650869278e-06
2.429365079365079172e+00,-1.147025099563245103e-05,1.033683736543411348e-05
2.430158730158729963e+00,-9.649865291165164770e-06,1.207755565376569339e-05
2.430952380952380754e+00,-7.556517185797881706e-06,1.344261563868186833e-05
2.431746031746031544e+00,-5.297645217490581916e-06,1.428000598054892537e-05
2.432539682539682335e+00,-2.972793763742776822e-06,1.443108062489795721e-05
2.433333333333333126e+00,-6.475405552864989303e-07,1.369083278906947502e-05
2.434126984126983917e+00,1.655494397927195694e-06,1.178769564360768875e-05
2.434920634920634708e+00,3.942981812739778111e-06,8.408019975864015899e-06
2.435714285714285499e+00,6.215311709270570738e-06,3.274570303858957385e-06
2.436507936507936289e+00,8.418414063920848933e-06,-3.732034254145276706e-06
2.437301587301587080e+00,1.040018201349048019e-05,-1.243768563934840206e-05
2.438095238095238315e+00,1.189143023954163552e-05,-2.226501941910202564e-05
2.438888888888889106e+00,1.252609428543756763e-05,-3.219273025183413332e-05
2.439682539682539897e+00,1.190382507430034048e-05,-4.082011640822835849e-05
2.440476190476190688e+00,9.684901035445650990e-06,-4.655391208745502806e-05
2.441269841269841478e+00,5.697189994003820305e-06,-4.790327402932840209e-05
2.442063492063492269e+00,3.087192331909361533e-08,-4.382990980935059600e-05
2.442857142857143060e+00,-6.901049443642357993e-06,-3.406624838752737915e-05
2.443650793650793851e+00,-1.435322684297753428e-05,-1.930336963678877581e-05
2.444444444444444642e+00,-2.130184518840696453e-05,-1.174645586202942664e-06
2.445238095238095433e+00,-2.656914518902022608e-05,1.798357733376438700e-05
2.446031746031746223e+00,-2.901364170029451631e-05,3.554764072622494198e-05
2.446825396825397014e+00,-2.775911174086781292e-05,4.910245887397383100e-05
2.447619047619047805e+00,-2.241116287561110965e-05,5.690264272640208044e-05
2.448412698412698596e+00,-1.319845570049432732e-05,5.819509409301330946e-05
2.449206349206349387e+00,-9.882527062693536126e-07,5.333260897869393269e-05
2.450000000000000178e+00,1.283841977930328061e-05,4.365605747160868625e-05
2.450793650793650968e+00,2.662374220524570419e-05,3.117711409544107211e-05
2.451587301587301759e+00,3.872305085097603998e-05,1.814075463462326589e-05
2.452380952380952550e+00,4.777988606494137377e-05,6.572080021327442173e-06
2.453174603174603341e+00,5.292927703639627255e-05,-2.091274160381957293e-06
2.453968253968254132e+00,5.389483226537232421e-05,-7.207631747683792227e-06
2.454761904761904923e+00,5.097155656606750196e-05,-8.949033972232579352e-06
2.455555555555555713e+00,4.491089776346036261e-05,-8.141252266316392793e-06
2.456349206349206504e+00,3.674205815727756577e-05,-5.976362932105231002e-06
2.457142857142857295e+00,2.757092932946828104e-05,-3.671258656355266643e-06
2.457936507936508086e+00,1.839660294073843511e-05,-2.152062024103329124e-06
2.458730158730158877e+00,9.978379240576984566e-06,-1.836512053931709674e-06
2.459523809523809668e+00,2.773476568365996076e-06,-2.567046223331373064e-06
2.460317460317460458e+00,-3.053174047582412475e-06,-3.716884804553034459e-06
2.461111111111111249e+00,-7.564936262934840428e-06,-4.449255642925148588e-06
2.461904761904762040e+00,-1.096363511127067143e-05,-4.062253962817787144e-06
2.462698412698412831e+00,-1.350045217300651432e-05,-2.315768014168683791e-06
2.463492063492063622e+00,-1.540510473002703825e-05,3.691057372926535315e-07
2.464285714285714413e+00,-1.684155819098694245e-05,2.917576598420812584e-06
2.465079365079365203e+00,-1.789195052106562001e-05,3.838423151907660367e-06
2.465873015873015994e+00,-1.856597996253907352e-05,1.648494599654086220e-06
2.466666666666666785e+00,-1.882926662208226693e-05,-4.615074700695535382e-06
2.467460317460317576e+00,-1.864071686460203658e-05,-1.492979796374802676e-05
2.468253968253968367e+00,-1.798695490991134024e-05,-2.800934031520792148e-05
2.469047619047619158e+00,-1.690334521439341834e-05,-4.132171505523252024e-05
2.469841269841269948e+00,-1.547625923122532472e-05,-5.145496670735811700e-05
2.470634920634920739e+00,-1.382778398620631872e-05,-5.480081270912236149e-05
2.471428571428571530e+00,-1.208922510565218755e-05,-4.843706242717854961e-05
2.472222222222222321e+00,-1.037225460835906603e-05,-3.100566712827035646e-05
2.473015873015873112e+00,-8.746425940427792606e-06,-3.330477500705031512e-06
2.473809523809523903e+00,-7.229348736375671970e-06,3.146326255522413059e-05
2.474603174603174693e+00,-5.791860448941092641e-06,6.844610559409146930e-05
2.475396825396825484e+00,-4.376483750981125114e-06,1.019155423574055709e-04
2.476190476190476275e+00,-2.924417608515130534e-06,1.266771089435247272e-04
2.476984126984127066e+00,-1.404323827713350585e-06,1.391872514064314335e-04
2.477777777777777857e+00,1.648994497636537906e-07,1.382154436994543112e-04
2.478571428571428648e+00,1.704637452209743216e-06,1.248597952595500581e-04
2.479365079365079438e+00,3.084674411067897221e-06,1.019787538659015530e-04
2.480158730158730229e+00,4.148230878960509035e-06,7.328347669700766931e-05
2.480952380952381020e+00,4.748158519789951082e-06,4.240671840549797980e-05
2.481746031746031811e+00,4.785260610218491936e-06,1.221977069191876559e-05
2.482539682539682602e+00,4.238990620193734912e-06,-1.545204505937449244e-05
2.483333333333333393e+00,3.182180762156668579e-06,-3.971119759902714706e-05
2.484126984126984183e+00,1.774456425250730353e-06,-6.019002761908300334e-05
2.484920634920634974e+00,2.337010895923216842e-07,-7.657130140547182510e-05
2.485714285714285765e+00,-1.208909599926073792e-06,-8.823116124815878975e-05
2.486507936507936556e+00,-2.359124844556167670e-06,-9.414643601624816092e-05
2.487301587301587347e+00,-3.101506293791805271e-06,-9.310144962852057485e-05
2.488095238095238138e+00,-3.421423345259549800e-06,-8.411555401940027895e-05
2.488888888888888928e+00,-3.400774881238254647e-06,-6.693282614742900678e-05
2.489682539682539719e+00,-3.187409584121535045e-06,-4.239770119977267831e-05
2.490476190476190510e+00,-2.944553295756453601e-06,-1.258398552209277120e-05
2.491269841269841301e+00,-2.792132513770777124e-06,1.937658895432855610e-05
2.492063492063492092e+00,-2.755567528997710239e-06,4.973510874971614554e-05
2.492857142857142883e+00,-2.738196657650816433e-06,7.473074094544986329e-05
2.493650793650793673e+00,-2.530554580993033001e-06,9.120985947716671056e-05
2.494444444444444464e+00,-1.863445918721681113e-06,9.711082878192683237e-05
2.495238095238095255e+00,-5.022484324399777820e-07,9.172247346734486626e-05
2.496031746031746046e+00,1.632330057618883671e-06,7.570693894779166589e-05
2.496825396825396837e+00,4.344353904172116183e-06,5.094310783691211243e-05
2.497619047619047628e+00,7.079523568470324878e-06,2.027029785353945439e-05
2.498412698412698418e+00,8.915633500042832550e-06,-1.280073915104505234e-05
2.499206349206349209e+00,8.655720512156032638e-06,-4.437495331223951844e-05
2.500000000000000000e+00,5.036840467337406406e-06,-7.046440535136160217e-05
2.500793650793650791e+00,-2.958396588148990798e-06,-8.732629264774345135e-05
2.501587301587301582e+00,-1.573620104976926356e-05,-9.190026501519595666e-05
2.502380952380952372e+00,-3.275883162525401282e-05,-8.236294255108182966e-05
2.503174603174603163e+00,-5.235511950054419451e-05,-5.873758437411165178e-05
2.503968253968253954e+00,-7.177491016447892129e-05,-2.339689460755561465e-05
2.504761904761904745e+00,-8.753686100232830930e-05,1.877526042905133609e-05
2.505555555555555536e+00,-9.603578013674818207e-05,6.078465292959817800e-05
2.506349206349206327e+00,-9.428693066197280494e-05,9.457967368242595609e-05
2.507142857142857117e+00,-8.062594644895511851e-05,1.126227417749979727e-04
2.507936507936507908e+00,-5.518136419148267509e-05,1.096232835857119105e-04
2.508730158730158699e+00,-1.999430407033742985e-05,8.395929277063556180e-05
2.509523809523809490e+00,2.124753853833126791e-05,3.835814680644874635e-05
2.510317460317460281e+00,6.380019890108216095e-05,-2.041450116270203418e-05
2.511111111111111072e+00,1.026463924212771338e-04,-8.285713271700132550e-05
2.511904761904761862e+00,1.333064193499903074e-04,-1.387496703640627045e-04
2.512698412698412653e+00,1.525196305521192206e-04,-1.793680646522757014e-04
2.513492063492063444e+00,1.586790428643941933e-04,-1.992751429455196302e-04
2.514285714285714235e+00,1.519589152403718235e-04,-1.971927659065167079e-04
2.515079365079365026e+00,1.341362495400581908e-04,-1.757867103444434639e-04
2.515873015873015817e+00,1.081649198411833415e-04,-1.405631770804519347e-04
2.516666666666666607e+00,7.760673814523592234e-05,-9.831379842747262066e-05
2.517460317460317398e+00,4.604415625549004816e-05,-5.558586725572669618e-05
2.518253968253968189e+00,1.658662343982033759e-05,-1.753745306090421423e-05
2.519047619047618980e+00,-8.457111327637894583e-06,1.265032829065155442e-05
2.519841269841269771e+00,-2.771889972247560424e-05,3.381349566429667865e-05
2.520634920634920562e+00,-4.074570388114375695e-05,4.643678246513001622e-05
2.521428571428571352e+00,-4.785820696189572933e-05,5.207304239497084249e-05
2.522222222222222143e+00,-4.994953102845707294e-05,5.273732815406173108e-05
2.523015873015872934e+00,-4.826973028477359333e-05,5.040915675319205565e-05
2.523809523809523725e+00,-4.422327201786538581e-05,4.670942168261686027e-05
2.524603174603174516e+00,-3.919002365619797475e-05,4.276022958414481034e-05
2.525396825396825307e+00,-3.437184787665233793e-05,3.919574142038077151e-05
2.526190476190476097e+00,-3.066734719415239833e-05,3.627028699469485149e-05
2.526984126984126888e+00,-2.858248993277414814e-05,3.400450373202001269e-05
2.527777777777777679e+00,-2.818964992452143147e-05,3.231830024236319592e-05
2.528571428571428470e+00,-2.914825831745483507e-05,3.111781857944516090e-05
2.529365079365079261e+00,-3.079448711465144133e-05,3.032755048633301029e-05
2.530158730158730052e+00,-3.229421202994580569e-05,2.988052788884032189e-05
2.530952380952380842e+00,-3.283499734154663385e-05,2.969070497559060486e-05
2.531746031746031633e+00,-3.181567381536103736e-05,2.962969471550403695e-05
2.532539682539682424e+00,-2.898553179258137023e-05,2.951991809827199441e-05
2.533333333333333215e+00,-2.449536410999529279e-05,2.914569004460749647e-05
2.534126984126984006e+00,-1.884758245626500322e-05,2.827794657502252429e-05
2.534920634920634797e+00,-1.276263543264567563e-05,2.670792288906064760e-05
2.535714285714285587e+00,-7.001950846088868831e-06,2.428704833768761208e-05
2.536507936507936378e+00,-2.195928268044214340e-06,2.097022188646425068e-05
2.537301587301587169e+00,1.281074891991150286e-06,1.685525936993015621e-05
2.538095238095237960e+00,3.363120181590032434e-06,1.220481219722333771e-05
2.538888888888888751e+00,4.266748531232384467e-06,7.433962833480988146e-06
2.539682539682539542e+00,4.400054656825574498e-06,3.052239419402769384e-06
2.540476190476190332e+00,4.234496671648174348e-06,-4.365069837003296435e-07
2.541269841269841123e+00,4.173959323198050823e-06,-2.654944090124532732e-06
2.542063492063491914e+00,4.453735529761667111e-06,-3.459899679327174422e-06
2.542857142857142705e+00,5.093028727543766254e-06,-3.001823445424267393e-06
2.543650793650793496e+00,5.910809286346648476e-06,-1.712365239490256226e-06
2.544444444444444287e+00,6.598697736328291621e-06,-2.166859310472868584e-07
2.545238095238095077e+00,6.828910346382177037e-06,8.099511424815098384e-07
2.546031746031745868e+00,6.364469320406023015e-06,8.043441542543247613e-07
2.546825396825396659e+00,5.137229124327149432e-06,-5.459579365898053766e-07
2.547619047619047450e+00,3.268996624211958976e-06,-3.221248794560274537e-06
2.548412698412698241e+00,1.030238503835077833e-06,-6.862050672277948477e-06
2.549206349206349032e+00,-1.246896498637865020e-06,-1.083374601589172058e-05
2.549999999999999822e+00,-3.268066685543675144e-06,-1.434852443859882250e-05
2.550793650793650613e+00,-4.851837368818187130e-06,-1.662069756165337824e-05
2.551587301587301404e+00,-5.954337543392484814e-06,-1.702472407251624106e-05
2.552380952380952195e+00,-6.638648686618344278e-06,-1.522276158806053762e-05
2.553174603174602986e+00,-7.006608356657926275e-06,-1.123489769801580448e-05
2.553968253968253777e+00,-7.124502945642403472e-06,-5.441048413714361589e-06
2.554761904761904567e+00,-6.973919790362968283e-06,1.477744064378291076e-06
2.555555555555555358e+00,-6.446634348947463856e-06,8.637744837835893005e-06
2.556349206349206149e+00,-5.384123314961031211e-06,1.506511815139320907e-05
2.557142857142856940e+00,-3.645347024766319144e-06,1.979802687105774284e-05
2.557936507936507731e+00,-1.177108137739968726e-06,2.195899758530506503e-05
2.558730158730158522e+00,1.937211507176825520e-06,2.079173071999477801e-05
2.559523809523809312e+00,5.464625849344258133e-06,1.567898377223032958e-05
2.560317460317460103e+00,9.047053129731422134e-06,6.179762359492088069e-06
2.561111111111110894e+00,1.225638684958378202e-05,-7.873081573093404040e-06
2.561904761904761685e+00,1.466922380388149886e-05,-2.620077049812291153e-05
2.562698412698412920e+00,1.594938782003783230e-05,-4.786631781529136260e-05
2.563492063492063711e+00,1.592575067677385212e-05,-7.110123795090679045e-05
2.564285714285714501e+00,1.465091239853550870e-05,-9.326837614516631306e-05
2.565079365079365292e+00,1.242406371765853315e-05,-1.110399134181409614e-04
2.565873015873016083e+00,9.762679059842006748e-06,-1.208201342681763013e-04
2.566666666666666874e+00,7.316529309433937174e-06,-1.193727913628214049e-04
2.567460317460317665e+00,5.733822601665257334e-06,-1.045390549883003272e-04
2.568253968253968456e+00,5.507523814174197816e-06,-7.587766703883857145e-05
2.569047619047619246e+00,6.841816401331903049e-06,-3.504897151862303043e-05
2.569841269841270037e+00,9.578358031744646536e-06,1.419017679145442585e-05
2.570634920634920828e+00,1.320885258919190181e-05,6.642537869832283791e-05
2.571428571428571619e+00,1.697814252392067347e-05,1.153994615600270667e-04
2.572222222222222410e+00,2.005603003048995160e-05,1.550565283703400892e-04
2.573015873015873201e+00,2.173326933954119962e-05,1.806115233393590272e-04
2.573809523809523991e+00,2.158601991126597809e-05,1.894175123372574909e-04
2.574603174603174782e+00,1.956061732670813302e-05,1.814156610947213213e-04
2.575396825396825573e+00,1.595692300649543071e-05,1.590281764406063433e-04
2.576190476190476364e+00,1.132350463449003795e-05,1.265134529235484382e-04
2.576984126984127155e+00,6.305545131942593873e-06,8.899537936063541845e-05
2.577777777777777946e+00,1.495424917311872636e-06,5.148593987085900268e-05
2.578571428571428736e+00,-2.673899200472020113e-06,1.816347152414984634e-05
2.579365079365079527e+00,-5.973279470068621857e-06,-8.004492200915284167e-06
2.580158730158730318e+00,-8.362168473913380662e-06,-2.536998168831065595e-05
2.580952380952381109e+00,-9.933234731825683401e-06,-3.358463735482769015e-05
2.581746031746031900e+00,-1.084409609581618484e-05,-3.354595570535937244e-05
2.582539682539682691e+00,-1.126124328079203271e-05,-2.731131585571698814e-05
2.583333333333333481e+00,-1.133058020048623392e-05,-1.791230525568164692e-05
2.584126984126984272e+00,-1.117483602324854239e-05,-8.998728804480135340e-06
2.584920634920635063e+00,-1.090665294043933829e-05,-4.299437168925163281e-06
2.585714285714285854e+00,-1.064172827682807358e-05,-6.965485267360573960e-06
2.586507936507936645e+00,-1.049935546099120178e-05,-1.891292057925515090e-05
2.587301587301587436e+00,-1.058515266961673659e-05,-4.028742602039799773e-05
2.588095238095238226e+00,-1.095906461827887883e-05,-6.915272580416968642e-05
2.588888888888889017e+00,-1.159867592707772802e-05,-1.014935808700165141e-04
2.589682539682539808e+00,-1.237245555804398860e-05,-1.316201432610529672e-04
2.590476190476190599e+00,-1.303840732258744070e-05,-1.530184465201966492e-04
2.591269841269841390e+00,-1.327920136595343684e-05,-1.595780677592249981e-04
2.592063492063492181e+00,-1.277523785921040330e-05,-1.469712060319709160e-04
2.592857142857142971e+00,-1.130454717499560947e-05,-1.138385000066292706e-04
2.593650793650793762e+00,-8.846495891674140336e-06,-6.243118380827644622e-05
2.594444444444444553e+00,-5.658577548796307317e-06,1.513355141755133257e-06
2.595238095238095344e+00,-2.295273002111671523e-06,6.967025898430248445e-05
2.596031746031746135e+00,4.530848317060218993e-07,1.325908408480541646e-04
2.596825396825396925e+00,1.705771151502673926e-06,1.813868669312158487e-04
2.597619047619047716e+00,7.022814941880876157e-07,2.092737833679718634e-04
2.598412698412698507e+00,-2.965184717268550464e-06,2.126841018726790601e-04
2.599206349206349298e+00,-9.158695910577301937e-06,1.917716629549573470e-04
2.600000000000000089e+00,-1.710719801699092763e-05,1.502468830532292647e-04
2.600793650793650880e+00,-2.547654193686091457e-05,9.461469590794207034e-05
2.601587301587301670e+00,-3.261232087600869162e-05,3.301399952500605380e-05
2.602380952380952461e+00,-3.691698676737817299e-05,-2.607481574292266148e-05
2.603174603174603252e+00,-3.726653907870732441e-05,-7.502262918447924424e-05
2.603968253968254043e+00,-3.333777978885879264e-05,-1.080232078814192783e-04
2.604761904761904834e+00,-2.572667742269345163e-05,-1.218179587428831686e-04
2.605555555555555625e+00,-1.579722434829978946e-05,-1.161571700032413624e-04
2.606349206349206415e+00,-5.290887620274947755e-06,-9.392043009632084448e-05
2.607142857142857206e+00,4.184087064205917069e-06,-6.077755391771024753e-05
2.607936507936507997e+00,1.161150562749140860e-05,-2.432200887469267308e-05
2.608730158730158788e+00,1.680813190276704843e-05,7.257550813223105049e-06
2.609523809523809579e+00,2.034719726921218591e-05,2.675686102375048322e-05
2.610317460317460370e+00,2.317395223266554842e-05,2.947941784891201957e-05
2.611111111111111160e+00,2.604049100676480950e-05,1.435918341393476223e-05
2.611904761904761951e+00,2.897190440841623482e-05,-1.563697545142163305e-05
2.612698412698412742e+00,3.098960919900401129e-05,-5.402326148876402626e-05
2.613492063492063533e+00,3.024527900551167640e-05,-9.218083572537790035e-05
2.614285714285714324e+00,2.458006961556803208e-05,-1.212939414930548426e-04
2.615079365079365115e+00,1.236633737687632730e-05,-1.343431474266460434e-04
2.615873015873015905e+00,-6.631430523041099330e-06,-1.276701589695734016e-04
2.616666666666666696e+00,-3.067818393785437514e-05,-1.017737219548326842e-04
2.617460317460317487e+00,-5.601255391733180749e-05,-6.119840214931601035e-05
2.618253968253968278e+00,-7.740949318351673426e-05,-1.358057069237434455e-05
2.619047619047619069e+00,-8.927257309061978178e-05,3.191863583973667191e-05
2.619841269841269860e+00,-8.699577473460938157e-05,6.646002503492561366e-05
2.620634920634920650e+00,-6.823013254909962827e-05,8.328685261202594553e-05
2.621428571428571441e+00,-3.369471748312330119e-05,7.907423313065674254e-05
2.622222222222222232e+00,1.271068043684665675e-05,5.464601667619317334e-05
2.623015873015873023e+00,6.454359330603325865e-05,1.495973035442250755e-05
2.623809523809523814e+00,1.140617553707889265e-04,-3.164794156487291430e-05
2.624603174603174605e+00,1.537729755963684116e-04,-7.489562196246069426e-05
2.625396825396825395e+00,1.779217655057781981e-04,-1.045167418660937437e-04
2.626190476190476186e+00,1.835646014607696368e-04,-1.124421173803991612e-04
2.626984126984126977e+00,1.709969877659186740e-04,-9.475708735289850224e-05
2.627777777777777768e+00,1.434661741264115300e-04,-5.292709187084860558e-05
2.628571428571428559e+00,1.062848723914005752e-04,6.126186819437398962e-06
2.629365079365079350e+00,6.560137791180082234e-05,7.128275280905524587e-05
2.630158730158730140e+00,2.714182522150912421e-05,1.296606699606545825e-04
2.630952380952380931e+00,-4.789547795623143821e-06,1.696897422338567818e-04
2.631746031746031722e+00,-2.786598531136502490e-05,1.839686434688629212e-04
2.632539682539682513e+00,-4.179436488995227173e-05,1.709978165657964145e-04
2.633333333333333304e+00,-4.794013248813680641e-05,1.352176139136214666e-04
2.634126984126984095e+00,-4.867796901270684168e-05,8.540572676970770150e-05
2.634920634920634885e+00,-4.666350108815901375e-05,3.207570698639767513e-05
2.635714285714285676e+00,-4.420568903589495833e-05,-1.522124353797029987e-05
2.636507936507936467e+00,-4.286068047231700946e-05,-4.990867742893825273e-05
2.637301587301587258e+00,-4.328936343141655144e-05,-6.928347022591486743e-05
2.638095238095238049e+00,-4.534876983277033927e-05,-7.427425743445321775e-05
2.638888888888888840e+00,-4.834010880790757733e-05,-6.834796452754008679e-05
2.639682539682539630e+00,-5.131955393761286220e-05,-5.601800587621165852e-05
2.640476190476190421e+00,-5.338763507188500892e-05,-4.142168071366594492e-05
2.641269841269841212e+00,-5.389918264583324514e-05,-2.733060361166227831e-05
2.642063492063492003e+00,-5.256755714329431570e-05,-1.478493201891597591e-05
2.642857142857142794e+00,-4.946620257206372102e-05,-3.350167451988115926e-06
2.643650793650793585e+00,-4.495212970706120550e-05,8.170925832667720823e-06
2.644444444444444375e+00,-3.954688134320134536e-05,2.084622406951111445e-05
2.645238095238095166e+00,-3.381066203982720534e-05,3.484594781905401900e-05
2.646031746031745957e+00,-2.823725288008589423e-05,4.904777828281759399e-05
2.646825396825396748e+00,-2.318539364227607217e-05,6.114110433765721007e-05
2.647619047619047539e+00,-1.885081080899205709e-05,6.819659286461785441e-05
2.648412698412698330e+00,-1.527472127535742995e-05,6.752028734576342550e-05
2.649206349206349120e+00,-1.237961329593077705e-05,5.752607571393380468e-05
2.649999999999999911e+00,-1.001998884547766038e-05,3.836438006060574282e-05
2.650793650793650702e+00,-8.034169722648410656e-06,1.212686331115023939e-05
2.651587301587301493e+00,-6.284659982740000213e-06,-1.743374913941970493e-05
2.652380952380952284e+00,-4.679600164962133092e-06,-4.561074850605741337e-05
2.653174603174603075e+00,-3.174466582328469595e-06,-6.771900501941647557e-05
2.653968253968253865e+00,-1.758422749782537541e-06,-8.010971845970033098e-05
2.654761904761904656e+00,-4.326581364177517518e-07,-8.097304130242764970e-05
2.655555555555555447e+00,8.107046139369394907e-07,-7.072249509947392868e-05
2.656349206349206238e+00,2.000975193003997249e-06,-5.186380620677030317e-05
2.657142857142857029e+00,3.187390729347200823e-06,-2.839163887085474768e-05
2.657936507936507819e+00,4.424218836173679090e-06,-4.884937561620822429e-06
2.658730158730158610e+00,5.749026172350935915e-06,1.445848587369433539e-05
2.659523809523809401e+00,7.163959983826950364e-06,2.661899514703987819e-05
2.660317460317460192e+00,8.628421798469344269e-06,3.023519405245441775e-05
2.661111111111110983e+00,1.006607626767341200e-05,2.572213629516393880e-05
2.661904761904761774e+00,1.138271355020623189e-05,1.506241412829991276e-05
2.662698412698412564e+00,1.248727822067106444e-05,1.342993185151813977e-06
2.663492063492063355e+00,1.330803213901140287e-05,-1.187863160940294953e-05
2.664285714285714146e+00,1.379890954954028245e-05,-2.128804426811796311e-05
2.665079365079364937e+00,1.393596320490952195e-05,-2.449868066231977962e-05
2.665873015873015728e+00,1.370852532407022081e-05,-2.057650973025148470e-05
2.666666666666666519e+00,1.311259497233233296e-05,-1.026758331705643961e-05
2.667460317460317309e+00,1.215337787964232825e-05,4.171484885751326603e-06
2.668253968253968100e+00,1.085919507504092118e-05,1.954814823156275283e-05
2.669047619047618891e+00,9.301902682460874889e-06,3.259205251173514947e-05
2.669841269841269682e+00,7.613316400111204210e-06,4.085489322296863144e-05
2.670634920634920473e+00,5.986155076197419294e-06,4.336059525093882916e-05
2.671428571428571264e+00,4.652421366076985472e-06,4.077716570823669611e-05
2.672222222222222054e+00,3.840308997156772904e-06,3.504438466703722860e-05
2.673015873015872845e+00,3.719530541215521457e-06,2.858507107823506226e-05
2.673809523809523636e+00,4.350597211409304586e-06,2.337004896966007154e-05
2.674603174603174427e+00,5.653609572552561052e-06,2.015214444631436210e-05
2.675396825396825218e+00,7.406987677510638535e-06,1.812955439592619567e-05
2.676190476190476009e+00,9.278560208730143305e-06,1.516543178598597694e-05
2.676984126984126799e+00,1.088302650062302473e-05,8.518404149397984526e-06
2.677777777777777590e+00,1.185341293824074033e-05,-4.117074086800146450e-06
2.678571428571428381e+00,1.191153877389909090e-05,-2.355437221727467041e-05
2.679365079365079172e+00,1.092365368715621187e-05,-4.835163563358014523e-05
2.680158730158729963e+00,8.930833213363199464e-06,-7.460048895383573702e-05
2.680952380952380754e+00,6.148198746893235379e-06,-9.641796920087692562e-05
2.681746031746031544e+00,2.932310068864608417e-06,-1.071344658217253712e-04
2.682539682539682335e+00,-2.779341852505671046e-07,-1.009770452845261212e-04
2.683333333333333126e+00,-3.035769337101192335e-06,-7.486153179325446584e-05
2.684126984126983917e+00,-4.961546888067979154e-06,-2.978885858019017968e-05
2.684920634920634708e+00,-5.803400940509210600e-06,2.864798638514100477e-05
2.685714285714285499e+00,-5.472908419986673831e-06,9.096570607956160678e-05
2.686507936507936289e+00,-4.051758058657112923e-06,1.456946223974701015e-04
2.687301587301587080e+00,-1.772105582042456539e-06,1.820731940197752789e-04
2.688095238095238315e+00,1.022433657790483077e-06,1.927762162193847890e-04
2.688888888888889106e+00,3.927058598855583756e-06,1.758102446688584010e-04
2.689682539682539897e+00,6.530112073176655096e-06,1.349455358533589754e-04
2.690476190476190688e+00,8.465511939455889112e-06,7.856688921286866800e-05
2.691269841269841478e+00,9.458119373392388007e-06,1.738185580415214888e-05
2.692063492063492269e+00,9.357345570439568695e-06,-3.822997372862009025e-05
2.692857142857143060e+00,8.154987060486504303e-06,-8.042964564361310229e-05
2.693650793650793851e+00,5.984646122656484064e-06,-1.051629172005729183e-04
2.694444444444444642e+00,3.102104418896500151e-06,-1.122935564361138099e-04
2.695238095238095433e+00,-1.518296940883762202e-07,-1.048295441719601873e-04
2.696031746031746223e+00,-3.402375442107230017e-06,-8.764279852382849344e-05
2.696825396825397014e+00,-6.299411479920316561e-06,-6.610673375505245241e-05
2.697619047619047805e+00,-8.573665007335837105e-06,-4.497461108699092548e-05
2.698412698412698596e+00,-1.007731965453694561e-05,-2.767297472566670186e-05
2.699206349206349387e+00,-1.079675172584575373e-05,-1.604552814594410279e-05
2.700000000000000178e+00,-1.083216598581231983e-05,-1.047646607344360857e-05
2.700793650793650968e+00,-1.035021651909362670e-05,-1.025713575225081207e-05
2.701587301587301759e+00,-9.525689426115139402e-06,-1.404192965426551727e-05
2.702380952380952550e+00,-8.491960838492603654e-06,-2.026494698407507074e-05
2.703174603174603341e+00,-7.316066244481334180e-06,-2.744144548325249406e-05
2.703968253968254132e+00,-6.005131925371977889e-06,-3.433477064036500568e-05
2.704761904761904923e+00,-4.540070134378789142e-06,-4.001122614319307984e-05
2.705555555555555713e+00,-2.922952663286206216e-06,-4.382356769748342715e-05
2.706349206349206504e+00,-1.218997993581794872e-06,-4.536214852622262887e-05
2.707142857142857295e+00,4.251799381262198599e-07,-4.440194068063506148e-05
2.707936507936508086e+00,1.797687834296074944e-06,-4.086234332137060317e-05
2.708730158730158877e+00,2.669810742888803154e-06,-3.478698160657765315e-05
2.709523809523809668e+00,2.862196328182718679e-06,-2.634200380823688441e-05
2.710317460317460458e+00,2.306868185855003941e-06,-1.582555016686462625e-05
2.711111111111111249e+00,1.083905601034966791e-06,-3.680367430457811741e-06
2.711904761904762040e+00,-5.801730112689656808e-07,9.496630498714075182e-06
2.712698412698412831e+00,-2.352925351335399329e-06,2.295527274379338713e-05
2.713492063492063622e+00,-3.864498454792029717e-06,3.581581315387582609e-05
2.714285714285714413e+00,-4.786716232379374901e-06,4.712935949136386448e-05
2.715079365079365203e+00,-4.904323122145918803e-06,5.598005423585676843e-05
2.715873015873015994e+00,-4.162322412335431326e-06,6.161507327226791765e-05
2.716666666666666785e+00,-2.677681390488967814e-06,6.356968007112850840e-05
2.717460317460317576e+00,-7.106830656836939818e-07,6.174832532234440004e-05
2.718253968253968367e+00,1.398764250519204698e-06,5.643511115628557599e-05
2.719047619047619158e+00,3.313820010274688437e-06,4.823254911699581949e-05
2.719841269841269948e+00,4.779237753810043827e-06,3.795214837084419401e-05
2.720634920634920739e+00,5.672765224852255944e-06,2.649059671658433632e-05
2.721428571428571530e+00,6.015123055006758162e-06,1.471923399349580777e-05
2.722222222222222321e+00,5.938780386997067472e-06,3.401671917945795359e-06
2.723015873015873112e+00,5.630095391129300856e-06,-6.855316236660491156e-06
2.723809523809523903e+00,5.266999150388981479e-06,-1.561762314321306518e-05
2.724603174603174693e+00,4.972380175886468055e-06,-2.261115480199915188e-05
2.725396825396825484e+00,4.794153318831709324e-06,-2.769199668243802083e-05
2.726190476190476275e+00,4.711973380383060855e-06,-3.081540555351042026e-05
2.726984126984127066e+00,4.662152126862993798e-06,-3.201789483514406136e-05
2.727777777777777857e+00,4.568729937036743070e-06,-3.141780755298617293e-05
2.728571428571428648e+00,4.369983327226471051e-06,-2.922771816529011498e-05
2.729365079365079438e+00,4.034326213493425248e-06,-2.576264712060185363e-05
2.730158730158730229e+00,3.564780280906195431e-06,-2.142640451180951395e-05
2.730952380952381020e+00,2.994482491533953894e-06,-1.666635705543349449e-05
2.731746031746031811e+00,2.376462305849987805e-06,-1.190188422666764459e-05
2.732539682539682602e+00,1.770237983351132258e-06,-7.447026318572814486e-06
2.733333333333333393e+00,1.227008314069522716e-06,-3.455578001013750023e-06
2.734126984126984183e+00,7.751292412110522144e-07,8.784554940786516734e-08
2.734920634920634974e+00,4.083631763607609856e-07,3.323634049739130678e-06
2.735714285714285765e+00,8.056969302816794590e-08,6.433432946826306021e-06
2.736507936507936556e+00,-2.893073530855666541e-07,9.545189687358415288e-06
2.737301587301587347e+00,-8.002405421754953585e-07,1.265836382490520025e-05
2.738095238095238138e+00,-1.542621670000415154e-06,1.561290088866967599e-05
2.738888888888888928e+00,-2.569140453899302706e-06,1.811167608557844486e-05
2.739682539682539719e+00,-3.872117430384748273e-06,1.979042226242299718e-05
2.740476190476190510e+00,-5.375161621313115280e-06,2.031563926557816390e-05
2.741269841269841301e+00,-6.942645351032257665e-06,1.948364456112172400e-05
2.742063492063492092e+00,-8.404533227628950020e-06,1.729499620482802193e-05
2.742857142857142883e+00,-9.589004658744084317e-06,1.398673425901685355e-05
2.743650793650793673e+00,-1.035340810920934708e-05,1.001605221893296593e-05
2.744444444444444464e+00,-1.060628345034879577e-05,5.998603852580651717e-06
2.745238095238095255e+00,-1.031806874011573016e-05,2.610714931362851871e-06
2.746031746031746046e+00,-9.522657821649868767e-06,4.686721483942634864e-07
2.746825396825396837e+00,-8.313621574423631696e-06,2.546219831673755498e-09
2.747619047619047628e+00,-6.837171677300348579e-06,1.347351917320182236e-06
2.748412698412698418e+00,-5.280557935951993331e-06,4.278144937978656382e-06
2.749206349206349209e+00,-3.852227299561200165e-06,8.213313853333095658e-06
2.750000000000000000e+00,-2.750736347953785790e-06,1.229885033484366232e-05
2.750793650793650791e+00,-2.123354954525016580e-06,1.556743141550528432e-05
2.751587301587301582e+00,-2.021024802109660886e-06,1.714529789868350708e-05
2.752380952380952372e+00,-2.361477157683080195e-06,1.646319503926561988e-05
2.753174603174603163e+00,-2.914666418570529804e-06,1.341979507546646598e-05
2.753968253968253954e+00,-3.322721438841375633e-06,8.450797582950904133e-06
2.754761904761904745e+00,-3.159824992571722501e-06,2.475379825478269982e-06
2.755555555555555536e+00,-2.026935730664887233e-06,-3.280985613540091310e-06
2.756349206349206327e+00,3.347397331793065808e-07,-7.561380427341761254e-06
2.757142857142857117e+00,3.935236955046438096e-06,-9.403875870554589532e-06
2.757936507936507908e+00,8.458022588080685335e-06,-8.459366817597333636e-06
2.758730158730158699e+00,1.323524379412722115e-05,-5.229493214160683655e-06
2.759523809523809490e+00,1.729102525050356959e-05,-1.148471576286993092e-06
2.760317460317460281e+00,1.945812421801059179e-05,1.555842098074111387e-06
2.761111111111111072e+00,1.856276762107691116e-05,2.506522758042624207e-07
2.761904761904761862e+00,1.366124105037593207e-05,-7.491423850753030799e-06
2.762698412698412653e+00,4.298249085416436821e-06,-2.315487915734689017e-05
2.763492063492063444e+00,-9.258793303971014996e-06,-4.657214005427925729e-05
2.764285714285714235e+00,-2.586880767259626065e-05,-7.543818504644641924e-05
2.765079365079365026e+00,-4.351150986148815710e-05,-1.052457405704455433e-04
2.765873015873015817e+00,-5.947448563045792561e-05,-1.297823391602838947e-04
2.766666666666666607e+00,-7.074448843724655300e-05,-1.422105746362236234e-04
2.767460317460317398e+00,-7.456037330011154357e-05,-1.365826761110178677e-04
2.768253968253968189e+00,-6.902376309638679982e-05,-1.094628092933702641e-04
2.769047619047618980e+00,-5.361864972965707364e-05,-6.121300210066289000e-05
2.769841269841269771e+00,-2.948878345211580735e-05,3.488674119568078717e-06
2.770634920634920562e+00,6.280000828776563034e-07,7.615314843915690891e-05
2.771428571428571352e+00,3.282115779210227700e-05,1.459656036547935670e-04
2.772222222222222143e+00,6.270157876600627967e-05,2.019033773542117018e-04
2.773015873015872934e+00,8.621341980458318188e-05,2.349619034605418143e-04
2.773809523809523725e+00,1.003803807723068441e-04,2.399706491403509503e-04
2.774603174603174516e+00,1.038239551961517743e-04,2.166181087221451024e-04
2.775396825396825307e+00,9.695025124578896967e-05,1.694854788114920634e-04
2.776190476190476097e+00,8.177915157962259657e-05,1.070758906852979642e-04
2.776984126984126888e+00,6.146579767167636001e-05,4.002774731200238879e-05
2.777777777777777679e+00,3.962685479566258013e-05,-2.109591052072018547e-05
2.778571428571428470e+00,1.962269453298475652e-05,-6.791311288405502079e-05
2.779365079365079261e+00,3.951652991472027793e-06,-9.570863649568096235e-05
2.780158730158730052e+00,-6.120415312076836420e-06,-1.039694756333519384e-04
2.780952380952380842e+00,-1.063511947164830382e-05,-9.592126697486415060e-05
2.781746031746031633e+00,-1.073515843165515439e-05,-7.728216888609985770e-05
2.782539682539682424e+00,-8.254414700535388851e-06,-5.462402601459049006e-05
2.783333333333333215e+00,-5.219463584634828110e-06,-3.378694176191669230e-05
2.784126984126984006e+00,-3.382085053287345419e-06,-1.873213539660834314e-05
2.784920634920634797e+00,-3.878383875915179347e-06,-1.105532093950446793e-05
2.785714285714285587e+00,-7.068141421102113574e-06,-1.016874053780608963e-05
2.786507936507936378e+00,-1.256128612333440360e-05,-1.397179386427873269e-05
2.787301587301587169e+00,-1.939827646209675552e-05,-1.972945741600809621e-05
2.788095238095237960e+00,-2.632453511723215598e-05,-2.488067026386766147e-05
2.788888888888888751e+00,-3.208852766027801514e-05,-2.758578633922337096e-05
2.789682539682539542e+00,-3.569877634065418009e-05,-2.695136677786468858e-05
2.790476190476190332e+00,-3.659440155276178793e-05,-2.298624997006394171e-05
2.791269841269841123e+00,-3.471018767136280285e-05,-1.639934363356263151e-05
2.792063492063491914e+00,-3.044183740005016955e-05,-8.340313112623114417e-06
2.792857142857142705e+00,-2.453358095983930473e-05,-1.403204717548638940e-07
2.793650793650793496e+00,-1.791812151864682987e-05,6.928769440916918828e-06
2.794444444444444287e+00,-1.154129030680734789e-05,1.186915547952455032e-05
2.795238095238095077e+00,-6.202706683702322157e-06,1.412558997662572100e-05
2.796031746031745868e+00,-2.438488704331718990e-06,1.367357547846597826e-05
2.796825396825396659e+00,-4.623663557422536910e-07,1.099816716291736220e-05
2.797619047619047450e+00,-1.693833037762136237e-07,6.959852573156816151e-06
2.798412698412698241e+00,-1.194320083541150768e-06,2.577078698497099795e-06
2.799206349206349032e+00,-3.006909758090290317e-06,-1.220195168304722885e-06
2.799999999999999822e+00,-5.020077234201221798e-06,-3.804615956872414957e-06
2.800793650793650613e+00,-6.688701358203692010e-06,-4.983868336442151369e-06
2.801587301587301404e+00,-7.585059009668009442e-06,-5.026252001842714249e-06
2.802380952380952195e+00,-7.447805960921649451e-06,-4.579955710116875135e-06
2.803174603174602986e+00,-6.206580426502931680e-06,-4.505418092410020777e-06
2.803968253968253777e+00,-3.982329632290382264e-06,-5.651553322254368335e-06
2.804761904761904567e+00,-1.060518492362493473e-06,-8.615933997016397220e-06
2.805555555555555358e+00,2.162370716024878955e-06,-1.353875444127388650e-05
2.806349206349206149e+00,5.249682568328316091e-06,-1.998443515444547398e-05
2.807142857142856940e+00,7.796973736625612258e-06,-2.695321208840461275e-05
2.807936507936507731e+00,9.492942892517185126e-06,-3.303495682269095944e-05
2.808730158730158522e+00,1.016449782642927142e-05,-3.667817025615243489e-05
2.809523809523809312e+00,9.805551872462860824e-06,-3.651527884983893601e-05
2.810317460317460103e+00,8.584228561945578945e-06,-3.167316294674039689e-05
2.811111111111110894e+00,6.817461855623412611e-06,-2.200477000703965463e-05
2.811904761904761685e+00,4.906789058190714640e-06,-8.194450397786034310e-06
2.812698412698412920e+00,3.245269244742194309e-06,8.290529932770139530e-06
2.813492063492063711e+00,2.122009648313459393e-06,2.540587716682227894e-05
2.814285714285714501e+00,1.656120393542092913e-06,4.086564448894847883e-05
2.815079365079365292e+00,1.783161150172337989e-06,5.254373484757279464e-05
2.815873015873016083e+00,2.299395406012455217e-06,5.885163680018811800e-05
2.816666666666666874e+00,2.949185988929491669e-06,5.899996339954845297e-05
2.817460317460317665e+00,3.524191920372409031e-06,5.307968369456568812e-05
2.818253968253968456e+00,3.935883536579029472e-06,4.195145335679174240e-05
2.819047619047619246e+00,4.231620403986687361e-06,2.699038198007351169e-05
2.819841269841270037e+00,4.549002707634387612e-06,9.776471276939599993e-06
2.820634920634920828e+00,5.031961410593378603e-06,-8.170585185977787842e-06
2.821428571428571619e+00,5.748262751119392434e-06,-2.554395261363896828e-05
2.822222222222222410e+00,6.642699751830469636e-06,-4.127624163984063997e-05
2.823015873015873201e+00,7.539245451115442522e-06,-5.448007235461505671e-05
2.823809523809523991e+00,8.184107735061896003e-06,-6.437050304888638249e-05
2.824603174603174782e+00,8.311295894593436449e-06,-7.023150848243574858e-05
2.825396825396825573e+00,7.712700069588828515e-06,-7.145845441312605715e-05
2.826190476190476364e+00,6.298346661021399519e-06,-6.767130912387806202e-05
2.826984126984127155e+00,4.134683075812535096e-06,-5.886305169574274749e-05
2.827777777777777946e+00,1.450892576355339127e-06,-4.552962062284119510e-05
2.828571428571428736e+00,-1.391676002633757179e-06,-2.872259183690314179e-05
2.829365079365079527e+00,-3.963723266447092963e-06,-9.976584901585607750e-06
2.830158730158730318e+00,-5.853605028971938312e-06,8.904272106599738987e-06
2.830952380952381109e+00,-6.754686573863091202e-06,2.616437821144382113e-05
2.831746031746031900e+00,-6.531543020496250184e-06,4.043050693349563952e-05
2.832539682539682691e+00,-5.245763124356868838e-06,5.095151315410291709e-05
2.833333333333333481e+00,-3.133768045061259102e-06,5.766249220926210903e-05
2.834126984126984272e+00,-5.450401306996746889e-07,6.105940989840623226e-05
2.834920634920635063e+00,2.138115086785549154e-06,6.194266498151578611e-05
2.835714285714285854e+00,4.574788961641374930e-06,6.113131368781787606e-05
2.836507936507936645e+00,6.515503450273110678e-06,5.924753853703282948e-05
2.837301587301587436e+00,7.821137918331820153e-06,5.662949711959749694e-05
2.838095238095238226e+00,8.454189934228840774e-06,5.337239631482748251e-05
2.838888888888889017e+00,8.451993136748548653e-06,4.944996414324385326e-05
2.839682539682539808e+00,7.893502605948983449e-06,4.485018457192082274e-05
2.840476190476190599e+00,6.870232374168303547e-06,3.967075198517954762e-05
2.841269841269841390e+00,5.468497880789115552e-06,3.414644783860276456e-05
2.842063492063492181e+00,3.765018021794755339e-06,2.860648188964409771e-05
2.842857142857142971e+00,1.833046940586784069e-06,2.337887392700235462e-05
2.843650793650793762e+00,-2.465259756655407680e-07,1.867337207049355119e-05
2.844444444444444553e+00,-2.374938025617635348e-06,1.448432230028700141e-05
2.845238095238095344e+00,-4.430919266377736472e-06,1.055448532993212413e-05
2.846031746031746135e+00,-6.274823460372022395e-06,6.424783203617382027e-06
2.846825396825396925e+00,-7.762534181727675007e-06,1.566185484256144881e-06
2.847619047619047716e+00,-8.767351674949334985e-06,-4.440724161496712378e-06
2.848412698412698507e+00,-9.205281202297828621e-06,-1.173298711712792813e-05
2.849206349206349298e+00,-9.057363733175477629e-06,-2.005537666769851719e-05
2.850000000000000089e+00,-8.382589014737348287e-06,-2.875232557038082706e-05
2.850793650793650880e+00,-7.316750017676285753e-06,-3.687132806384322165e-05
2.851587301587301670e+00,-6.055918663195134740e-06,-4.335566497944344538e-05
2.852380952380952461e+00,-4.826783542772283889e-06,-4.727886415546492905e-05
2.853174603174603252e+00,-3.848529781761803657e-06,-4.806066265148303303e-05
2.853968253968254043e+00,-3.292020233254323348e-06,-4.560823380666389749e-05
2.854761904761904834e+00,-3.242680899048638487e-06,-4.034669372257881508e-05
2.855555555555555625e+00,-3.674348785935893013e-06,-3.313336550919714394e-05
2.856349206349206415e+00,-4.441682373652920609e-06,-2.508143585680776763e-05
2.857142857142857206e+00,-5.297100858164803820e-06,-1.734100380251014814e-05
2.857936507936507997e+00,-5.933936332315453841e-06,-1.089235493140087633e-05
2.858730158730158788e+00,-6.051476514535955580e-06,-6.396719000019768465e-06
2.859523809523809579e+00,-5.431687595650558592e-06,-4.129721455530190150e-06
2.860317460317460370e+00,-4.012962107108083339e-06,-4.000446853072951855e-06
2.861111111111111160e+00,-1.943596921095355648e-06,-5.639756868170515791e-06
2.861904761904761951e+00,4.026397389044852996e-07,-8.527645034232715510e-06
2.862698412698412742e+00,2.463031861520359260e-06,-1.212338597913094950e-05
2.863492063492063533e+00,3.579793454782029718e-06,-1.596621673835786132e-05
2.864285714285714324e+00,3.142400620580204334e-06,-1.972697669714152294e-05
2.865079365079365115e+00,7.531937349177893969e-07,-2.320676470686466560e-05
2.865873015873015905e+00,-3.622135124465652500e-06,-2.629061320975626518e-05
2.866666666666666696e+00,-9.562356471886455860e-06,-2.887010968258546929e-05
2.867460317460317487e+00,-1.619290588057088724e-05,-3.075290875884781534e-05
2.868253968253968278e+00,-2.229934032211076104e-05,-3.158549470745792442e-05
2.869047619047619069e+00,-2.654150402542814678e-05,-3.082716257942374105e-05
2.869841269841269860e+00,-2.772992122063485515e-05,-2.781424181631439034e-05
2.870634920634920650e+00,-2.510622900977089057e-05,-2.192957686833163332e-05
2.871428571428571441e+00,-1.856377892738875037e-05,-1.284674093858079633e-05
2.872222222222222232e+00,-8.753678048709302562e-06,-7.738976740909794328e-07
2.873015873015873023e+00,2.956878179741286975e-06,1.339813366149236894e-05
2.873809523809523814e+00,1.467699887165159203e-05,2.812463861917702783e-05
2.874603174603174605e+00,2.430614466187456174e-05,4.144586757641424739e-05
2.875396825396825395e+00,2.991580200753978712e-05,5.140020531158720550e-05
2.876190476190476186e+00,3.013334235020569737e-05,5.650868911967078649e-05
2.876984126984126977e+00,2.446346849750919558e-05,5.618765848780143187e-05
2.877777777777777768e+00,1.348904689934261712e-05,5.094693742830777946e-05
2.878571428571428559e+00,-1.099124093505339045e-06,4.227772724366057807e-05
2.879365079365079350e+00,-1.668116834225666728e-05,3.222778146043918666e-05
2.880158730158730140e+00,-3.010574709276261061e-05,2.277894124587537397e-05
2.880952380952380931e+00,-3.826872503922798308e-05,1.522857423283284080e-05
2.881746031746031722e+00,-3.877465976515519295e-05,9.781969372273979552e-06
2.882539682539682513e+00,-3.053342216305491463e-05,5.489261428853561406e-06
2.883333333333333304e+00,-1.413320068986701436e-05,5.530487901282411031e-07
2.884126984126984095e+00,8.129488912814130226e-06,-7.068394204566696061e-06
2.884920634920634885e+00,3.260253966265425594e-05,-1.891790519045297728e-05
2.885714285714285676e+00,5.495673189809993344e-05,-3.536120882581051447e-05
2.886507936507936467e+00,7.104513005276823212e-05,-5.517552620408806716e-05
2.887301587301587258e+00,7.774481775992198637e-05,-7.553884304783128661e-05
2.888095238095238049e+00,7.358124275508233806e-05,-9.244363675279703753e-05
2.888888888888888840e+00,5.899025620131773204e-05,-1.014532625097563158e-04
2.889682539682539630e+00,3.616892881709362094e-05,-9.864693236464401778e-05
2.890476190476190421e+00,8.574968173727652671e-06,-8.155700484845844565e-05
2.891269841269841212e+00,-1.977830525209934681e-05,-4.988591725149790160e-05
2.892063492063492003e+00,-4.504763221131533312e-05,-5.817774699191602487e-06
2.892857142857142794e+00,-6.414483956315932434e-05,4.617265772191931825e-05
2.893650793650793585e+00,-7.508555452905170922e-05,9.998068992270444451e-05
2.894444444444444375e+00,-7.708378179390673265e-05,1.488407488764836569e-04
2.895238095238095166e+00,-7.043708694464065876e-05,1.863638361328675782e-04
2.896031746031745957e+00,-5.628158908821453418e-05,2.074163293370749259e-04
2.896825396825396748e+00,-3.630250326972290538e-05,2.087219395373883285e-04
2.897619047619047539e+00,-1.247067199750689823e-05,1.892060488918821377e-04
2.898412698412698330e+00,1.315393718302396283e-05,1.501622946142111364e-04
2.899206349206349120e+00,3.854538293800977732e-05,9.526596150032165262e-05
2.899999999999999911e+00,6.178379854629556371e-05,3.036112410073145055e-05
2.900793650793650702e+00,8.111131121707126847e-05,-3.708278824296345637e-05
2.901587301587301493e+00,9.500230638108980610e-05,-9.887369131031124229e-05
2.902380952380952284e+00,1.022648509097446380e-04,-1.472500742155965874e-04
2.903174603174603075e+00,1.021736715773691407e-04,-1.760576707078025549e-04
2.903968253968253865e+00,9.461477157263552100e-05,-1.816900224619112680e-04
2.904761904761904656e+00,8.019910026309757048e-05,-1.636053457990819041e-04
2.905555555555555447e+00,6.029000404549903007e-05,-1.243646302127755375e-04
2.906349206349206238e+00,3.689986321692416979e-05,-6.925257719172619769e-05
2.907142857142857029e+00,1.244578055579676091e-05,-5.594189756089673104e-06
2.907936507936507819e+00,-1.060088035131022411e-05,5.812593090830128046e-05
2.908730158730158610e+00,-3.009876764837024666e-05,1.132547295487206261e-04
2.909523809523809401e+00,-4.456616847778935699e-05,1.519915673443437347e-04
2.910317460317460192e+00,-5.337831587142219495e-05,1.683548100452445125e-04
2.911111111111110983e+00,-5.678805643168908688e-05,1.590095030952319458e-04
2.911904761904761774e+00,-5.577047452206977310e-05,1.238668886191412251e-04
2.912698412698412564e+00,-5.173591435686780688e-05,6.635206393521738137e-05
2.913492063492063355e+00,-4.618736932832133364e-05,-6.763970787451121245e-06
2.914285714285714146e+00,-4.040869371214211598e-05,-8.602953135140616514e-05
2.915079365079364937e+00,-3.525579139235002256e-05,-1.604624000392693389e-04
2.915873015873015728e+00,-3.108832932703371309e-05,-2.190901641837401351e-04
2.916666666666666519e+00,-2.783711207555133175e-05,-2.526919492885034736e-04
2.917460317460317309e+00,-2.516694879380513514e-05,-2.554495638387390311e-04
2.918253968253968100e+00,-2.267632580777462705e-05,-2.261555232204920439e-04
2.919047619047618891e+00,-2.007458094560917917e-05,-1.686697457088716942e-04
2.919841269841269682e+00,-1.729062890831208117e-05,-9.146777874707386253e-05
2.920634920634920473e+00,-1.449040339913346735e-05,-6.319036117762698555e-06
2.921428571428571264e+00,-1.200835347459442875e-05,7.369279534445805709e-05
2.922222222222222054e+00,-1.022385962227781317e-05,1.364678999522907557e-04
2.923015873015872845e+00,-9.427411375705941837e-06,1.730831890601102147e-04
2.923809523809523636e+00,-9.719249796033006177e-06,1.794274288521912686e-04
2.924603174603174427e+00,-1.096773347572300067e-05,1.568961519651917698e-04
2.925396825396825218e+00,-1.283349450553641909e-05,1.119574134577349940e-04
2.926190476190476009e+00,-1.484593480839880988e-05,5.467638886809398545e-05
2.926984126984126799e+00,-1.650576664832167150e-05,-3.448606606265205948e-06
2.927777777777777590e+00,-1.738395621836575573e-05,-5.183073833393449502e-05
2.928571428571428381e+00,-1.719363912717847764e-05,-8.280815009836220344e-05
2.929365079365079172e+00,-1.582354061304913642e-05,-9.293147190836113813e-05
2.930158730158729963e+00,-1.333355445274859847e-05,-8.330409379390582960e-05
2.930952380952380754e+00,-9.921777149768485501e-06,-5.894433861763102910e-05
2.931746031746031544e+00,-5.876488763064148750e-06,-2.733530317392704559e-05
2.932539682539682335e+00,-1.526290660741235676e-06,3.487903695603039232e-06
2.933333333333333126e+00,2.802550293600968674e-06,2.683981081590194613e-05
2.934126984126983917e+00,6.818411641424974215e-06,3.879559279709591976e-05
2.934920634920634708e+00,1.028758914802513274e-05,3.877477966363317299e-05
2.935714285714285499e+00,1.305069749807392678e-05,2.921755909288027036e-05
2.936507936507936289e+00,1.503231454913321477e-05,1.454515652227362778e-05
2.937301587301587080e+00,1.624181143447333710e-05,-2.227422076286368111e-07
2.938095238095238315e+00,1.676321441252872903e-05,-1.078006874105042592e-05
2.938888888888889106e+00,1.673409018032173272e-05,-1.444887654143123991e-05
2.939682539682539897e+00,1.631670686447294456e-05,-1.053173030464490137e-05
2.940476190476190688e+00,1.566763173066602649e-05,-1.168326119310324533e-07
2.941269841269841478e+00,1.491295457710111124e-05,1.450621212150126345e-05
2.942063492063492269e+00,1.413464352113452149e-05,3.059083364539040025e-05
2.942857142857143060e+00,1.336988051896115999e-05,4.561516749587283300e-05
2.943650793650793851e+00,1.262129531485050697e-05,5.773965413134553629e-05
2.944444444444444642e+00,1.187317464774930242e-05,6.596710174425446079e-05
2.945238095238095433e+00,1.110767895032355521e-05,7.002533684967088604e-05
2.946031746031746223e+00,1.031624434470017642e-05,7.007537623354057434e-05
2.946825396825397014e+00,9.504330323568117479e-06,6.639660594996013641e-05
2.947619047619047805e+00,8.690790488269151587e-06,5.919156406080581097e-05
2.948412698412698596e+00,7.904287047259206470e-06,4.858682525467621934e-05
2.949206349206349387e+00,7.177991109238568068e-06,3.481452638223333590e-05
2.950000000000000178e+00,6.542329943528435809e-06,1.848095956613024130e-05
2.950793650793650968e+00,6.015888072642572117e-06,7.889629408430206740e-07
2.951587301587301759e+00,5.596546053506561059e-06,-1.641133931955583055e-05
2.952380952380952550e+00,5.256428067674771475e-06,-3.081555945747193540e-05
2.953174603174603341e+00,4.943638271591680469e-06,-4.009152543698812844e-05
2.953968253968254132e+00,4.591587750493544116e-06,-4.244445695081461176e-05
2.954761904761904923e+00,4.134558725000760073e-06,-3.716606380679457450e-05
2.955555555555555713e+00,3.526690373108633841e-06,-2.499696585104395892e-05
2.956349206349206504e+00,2.760286471135366254e-06,-8.167755861637828347e-06
2.957142857142857295e+00,1.878187066767250024e-06,9.938336743894105298e-06
2.957936507936508086e+00,9.748529618345340415e-07,2.545899495731382647e-05
2.958730158730158877e+00,1.825493786016383939e-07,3.491910776273347204e-05
2.959523809523809668e+00,-3.572524459512448679e-07,3.606902030952337365e-05
2.960317460317460458e+00,-5.316702657333355599e-07,2.845726077594631025e-05
2.961111111111111249e+00,-2.923595569172363444e-07,1.356433655026253162e-05
2.961904761904762040e+00,3.232595540458018980e-07,-5.552892033159050789e-06
2.962698412698412831e+00,1.194033756810012921e-06,-2.502100760383311405e-05
2.963492063492063622e+00,2.140156530517953375e-06,-4.111774764854551743e-05
2.964285714285714413e+00,2.962899217507388042e-06,-5.118932516569255634e-05
2.965079365079365203e+00,3.486970940823210851e-06,-5.426409888374540393e-05
2.965873015873015994e+00,3.594893741433913528e-06,-5.118800760256296648e-05
2.966666666666666785e+00,3.246808491586231476e-06,-4.424512394665293657e-05
2.967460317460317576e+00,2.482938499704653888e-06,-3.638679944093683706e-05
2.968253968253968367e+00,1.408513927778772424e-06,-3.031991678539536049e-05
2.969047619047619158e+00,1.635023928486528413e-07,-2.774391964525553251e-05
2.969841269841269948e+00,-1.116375711907483678e-06,-2.895745241273643830e-05
2.970634920634920739e+00,-2.335830528316152436e-06,-3.291331622045762353e-05
2.971428571428571530e+00,-3.459858989518156628e-06,-3.765191234422173900e-05
2.972222222222222321e+00,-4.508779081675050279e-06,-4.094310551127226306e-05
2.973015873015873112e+00,-5.531155644656400678e-06,-4.093469071077608206e-05
2.973809523809523903e+00,-6.568098233799703817e-06,-3.663507990274818618e-05
2.974603174603174693e+00,-7.625484022484345237e-06,-2.812737010017318500e-05
2.975396825396825484e+00,-8.664570891408508306e-06,-1.649571174878681075e-05
2.976190476190476275e+00,-9.611690452237035720e-06,-3.518606970271987520e-06
2.976984126984127066e+00,-1.038087786533078126e-05,8.769642161014671260e-06
2.977777777777777857e+00,-1.090096687661048038e-05,1.853413216133428771e-05
2.978571428571428648e+00,-1.113828082905743091e-05,2.450847851519277808e-05
2.979365079365079438e+00,-1.110652189535122539e-05,2.620426014567311224e-05
2.980158730158730229e+00,-1.085865931630208511e-05,2.392810471517676469e-05
2.980952380952381020e+00,-1.046229317869952746e-05,1.862378109757651924e-05
2.981746031746031811e+00,-9.967391250538938140e-06,1.160519444755542338e-05
2.982539682539682602e+00,-9.379542546083481565e-06,4.272998652309570406e-06
2.983333333333333393e+00,-8.650898948531560227e-06,-2.104459026703407658e-06
2.984126984126984183e+00,-7.695239811321589744e-06,-6.513992459603044768e-06
2.984920634920634974e+00,-6.425039275575226596e-06,-8.251332683937294646e-06
2.985714285714285765e+00,-4.799772329521689369e-06,-6.963093036046087934e-06
2.986507936507936556e+00,-2.869093557027626413e-06,-2.712725001932399300e-06
2.987301587301587347e+00,-7.943102734875595309e-07,3.951239005176749836e-06
2.988095238095238138e+00,1.162973783066101818e-06,1.199381304355304246e-05
2.988888888888888928e+00,2.686741324993759827e-06,2.002576021622167474e-05
2.989682539682539719e+00,3.478002122962193280e-06,2.657929855873708707e-05
2.990476190476190510e+00,3.334010767668308530e-06,3.045736301451471890e-05
2.991269841269841301e+00,2.213310767688192075e-06,3.103124515056154131e-05
2.992063492063492092e+00,2.668171097084397203e-07,2.836931673530193913e-05
2.992857142857142883e+00,-2.176339024444299616e-06,2.315223568423564147e-05
2.993650793650793673e+00,-4.666744761621505968e-06,1.642415128607322168e-05
2.994444444444444464e+00,-6.722222729857614464e-06,9.288377136078371666e-06
2.995238095238095255e+00,-7.922715194178195646e-06,2.655344000228012968e-06
2.996031746031746046e+00,-7.989653551695705100e-06,-2.892427062307596365e-06
2.996825396825396837e+00,-6.832896020463501308e-06,-7.107411902981188671e-06
2.997619047619047628e+00,-4.557828096365046708e-06,-9.987810779444695406e-06
2.998412698412698418e+00,-1.434771797146613869e-06,-1.164554059456916655e-05
2.999206349206349209e+00,2.159901678492672277e-06,-1.218586650074326940e-05
3.000000000000000000e+00,5.817203127752225382e-06,-1.163744771432968622e-05
3.000793650793650791e+00,9.168002758538202390e-06,-9.948287746991024653e-06
3.001587301587301582e+00,1.194004823267678152e-05,-7.040737608725584767e-06
3.002380952380952372e+00,1.398911022153599752e-05,-2.902290622773530191e-06
3.003174603174603163e+00,1.530057488203098259e-05,2.320774413868571423e-06
3.003968253968253954e+00,1.596549001005178489e-05,8.263094293732949546e-06
3.004761904761904745e+00,1.614112388975449383e-05,1.434433750771296016e-05
3.005555555555555536e+00,1.600801801997398806e-05,1.985230667295556002e-05
3.006349206349206327e+00,1.573278737986360813e-05,2.409316766654254346e-05
3.007142857142857117e+00,1.544099656792051982e-05,2.656985285468824794e-05
3.007936507936507908e+00,1.520086352082275892e-05,2.713461560798020576e-05
3.008730158730158699e+00,1.501777917313560761e-05,2.606560112300862099e-05
3.009523809523809490e+00,1.484009138089741540e-05,2.403635895583247693e-05
3.010317460317460281e+00,1.457581775891748036e-05,2.197124591858041803e-05
3.011111111111111072e+00,1.411747444920140146e-05,2.080158838436863830e-05
3.011904761904761862e+00,1.336996619242977443e-05,2.115852277368177202e-05
3.012698412698412653e+00,1.227613387347590592e-05,2.306279342872944948e-05
3.013492063492063444e+00,1.083543842893248725e-05,2.569617040248489727e-05
3.014285714285714235e+00,9.111914340149229296e-06,2.734987975100029519e-05
3.015079365079365026e+00,7.228140261244720231e-06,2.562755538467423823e-05
3.015873015873015817e+00,5.343888997280643606e-06,1.792896975016985335e-05
3.016666666666666607e+00,3.621625094577122884e-06,2.164761044813517275e-06
3.017460317460317398e+00,2.184914117352565924e-06,-2.243094162259324603e-05
3.018253968253968189e+00,1.078686869687784246e-06,-5.459209618643255923e-05
3.019047619047618980e+00,2.414006613102139518e-07,-9.065030914201884947e-05
3.019841269841269771e+00,-5.017365070667136647e-07,-1.247093409160219223e-04
3.020634920634920562e+00,-1.418135759163613559e-06,-1.494740002163826020e-04
3.021428571428571352e+00,-2.818364718119665964e-06,-1.576810836746857074e-04
3.022222222222222143e+00,-4.983601721550732160e-06,-1.438843667025407761e-04
3.023015873015872934e+00,-8.084267491045077147e-06,-1.061685619365927480e-04
3.023809523809523725e+00,-1.211115812027591071e-05,-4.727663613151881160e-05
3.024603174603174516e+00,-1.684207221271384852e-05,2.530222256861713073e-05
3.025396825396825307e+00,-2.185995167562918969e-05,1.004917491920808884e-04
3.026190476190476097e+00,-2.662290689043132262e-05,1.658640833598950192e-04
3.026984126984126888e+00,-3.056725287504231080e-05,2.103949432355590543e-04
3.027777777777777679e+00,-3.321092782766126781e-05,2.269482178196888093e-04
3.028571428571428470e+00,-3.422457381321781692e-05,2.137459529003077536e-04
3.029365079365079261e+00,-3.345248860775413478e-05,1.744272332270188630e-04
3.030158730158730052e+00,-3.088824199673340223e-05,1.168095919538328337e-04
3.030952380952380842e+00,-2.662845397254972056e-05,5.088772928389476439e-05
3.031746031746031633e+00,-2.083467212350378255e-05,-1.326243756853389776e-05
3.032539682539682424e+00,-1.372603246222365458e-05,-6.716525408273218772e-05
3.033333333333333215e+00,-5.608346623197747871e-06,-1.049916453362565583e-04
3.034126984126984006e+00,3.075538283191111480e-06,-1.239897484178230716e-04
3.034920634920634797e+00,1.170648178073141977e-05,-1.244304061239622590e-04
3.035714285714285587e+00,1.949833022362819880e-05,-1.091986524107111013e-04
3.036507936507936378e+00,2.557996069275765574e-05,-8.311666659383608693e-05
3.037301587301587169e+00,2.914553178174371088e-05,-5.205526300593906462e-05
3.038095238095237960e+00,2.963687458538467279e-05,-2.191552872835520887e-05
3.038888888888888751e+00,2.690302075319836068e-05,2.370150991785360875e-06
3.039682539682539542e+00,2.128352486218680316e-05,1.761386051180636482e-05
3.040476190476190332e+00,1.358280737396994268e-05,2.274450109219469966e-05
3.041269841269841123e+00,4.934602785514296793e-06,1.871095040680569686e-05
3.042063492063491914e+00,-3.411789591664294620e-06,7.993942817451547779e-06
3.042857142857142705e+00,-1.032967657857341835e-05,-6.103822186938190336e-06
3.043650793650793496e+00,-1.501952233134647433e-05,-2.020972036158106405e-05
3.044444444444444287e+00,-1.713457736133960744e-05,-3.153625959236599265e-05
3.045238095238095077e+00,-1.680492218402098676e-05,-3.834681499424669936e-05
3.046031746031745868e+00,-1.456191636618441405e-05,-4.017306851045334250e-05
3.046825396825396659e+00,-1.118656451502647983e-05,-3.775221738094384621e-05
3.047619047619047450e+00,-7.520806436805028695e-06,-3.269000310593760632e-05
3.048412698412698241e+00,-4.287486775599717135e-06,-2.691479876779466479e-05
3.049206349206349032e+00,-1.960124886317862184e-06,-2.206000698824218796e-05
3.049999999999999822e+00,-7.076608446984227798e-07,-1.896453868842175720e-05
3.050793650793650613e+00,-4.169404312215372338e-07,-1.746769455719547669e-05
3.051587301587301404e+00,-7.748922175752378830e-07,-1.657211098566447241e-05
3.052380952380952195e+00,-1.380080527765843264e-06,-1.489648316820160776e-05
3.053174603174602986e+00,-1.851838947030546903e-06,-1.122631652856488819e-05
3.053968253968253777e+00,-1.912185474888102311e-06,-4.958683087921333630e-06
3.054761904761904567e+00,-1.427192611274079168e-06,3.687257612518041768e-06
3.055555555555555358e+00,-4.069180570297395778e-07,1.372092642388207896e-05
3.056349206349206149e+00,1.026575875149359322e-06,2.364278226274533844e-05
3.057142857142856940e+00,2.687732685570368686e-06,3.182884708770531280e-05
3.057936507936507731e+00,4.376991377355135649e-06,3.693319385788248544e-05
3.058730158730158522e+00,5.920055934537279670e-06,3.820983639115580328e-05
3.059523809523809312e+00,7.191942976190906569e-06,3.568157949593570006e-05
3.060317460317460103e+00,8.126249599858385140e-06,3.012495386829473987e-05
3.061111111111110894e+00,8.713225454692940790e-06,2.288317487964795793e-05
3.061904761904761685e+00,8.990775612962240024e-06,1.555081541677507523e-05
3.062698412698412920e+00,9.031259100326777381e-06,9.593189586288367314e-06
3.063492063492063711e+00,8.925307500189552009e-06,5.976629863965870077e-06
3.064285714285714501e+00,8.763151099915808607e-06,4.897150573598055714e-06
3.065079365079365292e+00,8.614616168676912162e-06,5.698673462816099985e-06
3.065873015873016083e+00,8.510709202537550637e-06,7.051282217469267174e-06
3.066666666666666874e+00,8.431558206327941611e-06,7.397716571254354247e-06
3.067460317460317665e+00,8.306019528230606705e-06,5.573905510615905594e-06
3.068253968253968456e+00,8.026224396303836118e-06,1.399151297822375949e-06
3.069047619047619246e+00,7.475722618254269069e-06,-4.026034699781500396e-06
3.069841269841270037e+00,6.564478063295292776e-06,-8.515310286503200953e-06
3.070634920634920828e+00,5.260603780267967161e-06,-9.487620943105931493e-06
3.071428571428571619e+00,3.609379219778031331e-06,-4.907326792099116619e-06
3.072222222222222410e+00,1.734275811859820909e-06,5.913353940870259643e-06
3.073015873015873201e+00,-1.801710044486374794e-07,2.196662635673354852e-05
3.073809523809523991e+00,-1.920068214142308040e-06,4.074784142678181467e-05
3.074603174603174782e+00,-3.282696756332738277e-06,5.886420118016737126e-05
3.075396825396825573e+00,-4.118392020987505410e-06,7.280759130115332771e-05
3.076190476190476364e+00,-4.364753123854178952e-06,7.967272207204079647e-05
3.076984126984127155e+00,-4.063960181745214343e-06,7.769814712106701130e-05
3.077777777777777946e+00,-3.356485035979046417e-06,6.658757443725858856e-05
3.078571428571428736e+00,-2.449960901468876135e-06,4.758996255501674570e-05
3.079365079365079527e+00,-1.569200305756644676e-06,2.330583407542665702e-05
3.080158730158730318e+00,-8.998812516989652555e-07,-2.794148370222464289e-06
3.080952380952381109e+00,-5.415848077803118212e-07,-2.707650293485891314e-05
3.081746031746031900e+00,-4.841169736739251426e-07,-4.652124087456925024e-05
3.082539682539682691e+00,-6.148168151662129935e-07,-5.935871176409508076e-05
3.083333333333333481e+00,-7.560179428922216407e-07,-6.538393964697804533e-05
3.084126984126984272e+00,-7.237076602697019560e-07,-6.585894218981566076e-05
3.084920634920635063e+00,-3.925952668355830087e-07,-6.303872597239910057e-05
3.085714285714285854e+00,2.500519012537411663e-07,-5.946688117841959548e-05
3.086507936507936645e+00,1.078865457040222957e-06,-5.724418401622729402e-05
3.087301587301587436e+00,1.845128191859253100e-06,-5.746569847045398675e-05
3.088095238095238226e+00,2.233604067618583634e-06,-5.996195977492584632e-05
3.088888888888889017e+00,1.949715973488853175e-06,-6.339328840324819038e-05
3.089682539682539808e+00,8.134834705344620040e-07,-6.565655036937184479e-05
3.090476190476190599e+00,-1.168182674115025308e-06,-6.448933206200731141e-05
3.091269841269841390e+00,-3.774523054856512530e-06,-5.811311784212321648e-05
3.092063492063492181e+00,-6.600296619667602417e-06,-4.575408309996672313e-05
3.092857142857142971e+00,-9.136225208635659098e-06,-2.791580311332834575e-05
3.093650793650793762e+00,-1.088093323153307789e-05,-6.340974429251911232e-06
3.094444444444444553e+00,-1.145654751812971984e-05,1.632567860270910413e-05
3.095238095238095344e+00,-1.069950855158894964e-05,3.708830630528327639e-05
3.096031746031746135e+00,-8.704272617569964147e-06,5.322483916157692087e-05
3.096825396825396925e+00,-5.808326528396854871e-06,6.282654069179905711e-05
3.097619047619047716e+00,-2.520188297045133125e-06,6.512027490791712269e-05
3.098412698412698507e+00,5.940481503861750409e-07,6.051159232218879182e-05
3.099206349206349298e+00,3.038341810568974936e-06,5.037473257051508925e-05
3.100000000000000089e+00,4.495841847313184588e-06,3.668605889025995176e-05
3.100793650793650880e+00,4.891161548250378415e-06,2.162317349421717471e-05
3.101587301587301670e+00,4.390767962633478148e-06,7.229455317411257788e-06
3.102380952380952461e+00,3.344051953685958172e-06,-4.807746688759453656e-06
3.103174603174603252e+00,2.183389010982762222e-06,-1.326962965200776514e-05
3.103968253968254043e+00,1.311071368637782708e-06,-1.744588712053146318e-05
3.104761904761904834e+00,1.002679164162775130e-06,-1.714364904996330940e-05
3.105555555555555625e+00,1.350635116939531428e-06,-1.269004775056137897e-05
3.106349206349206415e+00,2.260130205664781903e-06,-4.927524356555562650e-06
3.107142857142857206e+00,3.495093127247284445e-06,4.819561998841219748e-06
3.107936507936507997e+00,4.757982952677971108e-06,1.483569812627809477e-05
3.108730158730158788e+00,5.777986661916223035e-06,2.318379012481428160e-05
3.109523809523809579e+00,6.381154820677572150e-06,2.795695958560512668e-05
3.110317460317460370e+00,6.523914887980071989e-06,2.759226413979791744e-05
3.111111111111111160e+00,6.284989402147588987e-06,2.120182002027648364e-05
3.111904761904761951e+00,5.823960395983396851e-06,8.857434412105492019e-06
3.112698412698412742e+00,5.322656370032904482e-06,-8.244437927296072998e-06
3.113492063492063533e+00,4.927335446808881173e-06,-2.780503821166472391e-05
3.114285714285714324e+00,4.707173785469147510e-06,-4.667593287347942226e-05
3.115079365079365115e+00,4.639291336198080887e-06,-6.133968189842816169e-05
3.115873015873015905e+00,4.622976028509485559e-06,-6.855643575099751265e-05
3.116666666666666696e+00,4.517246485527307327e-06,-6.605585197505394553e-05
3.117460317460317487e+00,4.188940919857226697e-06,-5.311770586140297811e-05
3.118253968253968278e+00,3.555352924503812016e-06,-3.088715387109979205e-05
3.119047619047619069e+00,2.607150065520433792e-06,-2.315556369747082981e-06
3.119841269841269860e+00,1.404007099938833156e-06,2.830330957922886644e-05
3.120634920634920650e+00,4.559585041800169882e-08,5.613437498476539489e-05
3.121428571428571441e+00,-1.369366600079202174e-06,7.677657540726400291e-05
3.122222222222222232e+00,-2.778013133408926346e-06,8.718198596665541113e-05
3.123015873015873023e+00,-4.166543281539404586e-06,8.628141084939222301e-05
3.123809523809523814e+00,-5.555552388465626175e-06,7.514977499646490627e-05
3.124603174603174605e+00,-6.963715110124253691e-06,5.667631393676801106e-05
3.125396825396825395e+00,-8.366116810200214054e-06,3.484681870780388766e-05
3.126190476190476186e+00,-9.666756003608914296e-06,1.384246439817334937e-05
3.126984126984126977e+00,-1.069958601534692077e-05,-2.816876841043957447e-06
3.127777777777777768e+00,-1.126102346140478998e-05,-1.289972151676894333e-05
3.128571428571428559e+00,-1.116423871127133441e-05,-1.575499060682946373e-05
3.129365079365079350e+00,-1.029747760857468662e-05,-1.225074326966587337e-05
3.130158730158730140e+00,-8.668216507057308688e-06,-4.416938658784840671e-06
3.130952380952380931e+00,-6.420787021245989205e-06,5.098182859261385397e-06
3.131746031746031722e+00,-3.823157008310038612e-06,1.362576456296559727e-05
3.132539682539682513e+00,-1.225771403612864658e-06,1.900260728335019246e-05
3.133333333333333304e+00,9.987866468958742650e-07,1.993158105008993919e-05
3.134126984126984095e+00,2.522224277366433698e-06,1.612811344940265552e-05
3.134920634920634885e+00,3.118783055280448106e-06,8.255392783587554097e-06
3.135714285714285676e+00,2.704282645478569518e-06,-2.307073130630788027e-06
3.136507936507936467e+00,1.351010326086849931e-06,-1.379294667752397916e-05
3.137301587301587258e+00,-7.212992188188206115e-07,-2.440267935129975088e-05
3.138095238095238049e+00,-3.175910146192949991e-06,-3.261532130887295289e-05
3.138888888888888840e+00,-5.608007400524725138e-06,-3.740948673710842989e-05
3.139682539682539630e+00,-7.607903447577472277e-06,-3.836805870660469790e-05
3.140476190476190421e+00,-8.831101159396152758e-06,-3.566727081880655798e-05
3.141269841269841212e+00,-9.063364819760311047e-06,-2.997195022345313625e-05
3.142063492063492003e+00,-8.265453144201657544e-06,-2.226994230246908890e-05
3.142857142857142794e+00,-6.582211416656188978e-06,-1.368163818830660522e-05
3.143650793650793585e+00,-4.306520027131122491e-06,-5.279520232963451416e-06
3.144444444444444375e+00,-1.800425849571985268e-06,2.051732056759833456e-06
3.145238095238095166e+00,6.092182136874232745e-07,7.694924058849186564e-06
3.146031746031745957e+00,2.730549419240533811e-06,1.131726525395763692e-05
3.146825396825396748e+00,4.567101410769640923e-06,1.283819590212388357e-05
3.147619047619047539e+00,6.310403766715539628e-06,1.236994204514647644e-05
3.148412698412698330e+00,8.253188301949530544e-06,1.015281482860549686e-05
3.149206349206349120e+00,1.063472995032210759e-05,6.503762182773389070e-06
3.149999999999999911e+00,1.345373243726234333e-05,1.790129294189169757e-06
3.150793650793650702e+00,1.630331670256410961e-05,-3.571015910743687407e-06
3.151587301587301493e+00,1.829141401304687969e-05,-9.101805481289299568e-06
3.152380952380952284e+00,1.810239993295944424e-05,-1.426337975054910871e-05
3.153174603174603075e+00,1.422842216069242564e-05,-1.848641306135041540e-05
3.153968253968253865e+00,5.353550594058279264e-06,-2.123901890818686631e-05
3.154761904761904656e+00,-9.179738878380259523e-06,-2.212247659477291329e-05
3.155555555555555447e+00,-2.893855313692444376e-05,-2.097306439316836294e-05
3.156349206349206238e+00,-5.214094803170569558e-05,-1.794277076262842984e-05
3.157142857142857029e+00,-7.569417044982391669e-05,-1.353178417408560216e-05
3.157936507936507819e+00,-9.559496556642460595e-05,-8.550598334906769966e-06
3.158730158730158610e+00,-1.076623515045717876e-04,-4.000491140172274335e-06
3.159523809523809401e+00,-1.084636312739839140e-04,-8.795538463146366215e-07
3.160317460317460192e+00,-9.620624863931012975e-05,5.406773871511665215e-08
3.161111111111110983e+00,-7.134093378760231392e-05,-1.493412018723304242e-06
3.161904761904761774e+00,-3.667630027123801507e-05,-5.204572225084106608e-06
3.162698412698412564e+00,3.070851688554596286e-06,-1.013283315876227290e-05
3.163492063492063355e+00,4.221045623168890660e-05,-1.482912262179652081e-05
3.164285714285714146e+00,7.528091207847298013e-05,-1.758997903797677152e-05
3.165079365079364937e+00,9.821599651470535588e-05,-1.678384084441864738e-05
3.165873015873015728e+00,1.091746355674749736e-04,-1.121701238803965297e-05
3.166666666666666519e+00,1.088163027353142032e-04,-5.088819052585880578e-07
3.167460317460317309e+00,9.995437994447046982e-05,1.457762442323650193e-05
3.168253968253968100e+00,8.669418042834710196e-05,3.196665160303033390e-05
3.169047619047618891e+00,7.330966970186957477e-05,4.842643052516375761e-05
3.169841269841269682e+00,6.318108154989844323e-05,6.017432590576653629e-05
3.170634920634920473e+00,5.807776461117581301e-05,6.388519080581933488e-05
3.171428571428571264e+00,5.794472762355948743e-05,5.783337729760934726e-05
3.172222222222222054e+00,6.118938908048575224e-05,4.274291383807567131e-05
3.173015873015872845e+00,6.532318951210022435e-05,2.194634370231034586e-05
3.173809523809523636e+00,6.773179430775056083e-05,6.815502781636940017e-07
3.174603174603174427e+00,6.634639712574991915e-05,-1.530867467664810271e-05
3.175396825396825218e+00,6.005860132406403540e-05,-2.142889274665935891e-05
3.176190476190476009e+00,4.882714265427819312e-05,-1.559321433537465545e-05
3.176984126984126799e+00,3.352142318053451887e-05,1.128370681179357447e-06
3.177777777777777590e+00,1.560430121433729805e-05,2.474782931465571771e-05
3.178571428571428381e+00,-3.230691672610750681e-06,4.936761794370994507e-05
3.179365079365079172e+00,-2.137348939078191078e-05,6.864173489324770533e-05
3.180158730158729963e+00,-3.750765842728228571e-05,7.728812274584575073e-05
3.180952380952380754e+00,-5.070373524151011610e-05,7.227635304630975388e-05
3.181746031746031544e+00,-6.041761998352507745e-05,5.341662324515754118e-05
3.182539682539682335e+00,-6.643553113225271836e-05,2.324111810178944957e-05
3.183333333333333126e+00,-6.880873178345208146e-05,-1.372559951670277633e-05
3.184126984126983917e+00,-6.780707819767241415e-05,-5.203489792140982337e-05
3.184920634920634708e+00,-6.389721997598385472e-05,-8.638928323756133701e-05
3.185714285714285499e+00,-5.772953102580377616e-05,-1.124714752965564268e-04
3.186507936507936289e+00,-5.010799537528313959e-05,-1.274280968730051827e-04
3.187301587301587080e+00,-4.192372737493029817e-05,-1.300451675142873459e-04
3.188095238095238315e+00,-3.405104903340192820e-05,-1.207145089835665399e-04
3.188888888888889106e+00,-2.722504054994066464e-05,-1.012746843538334693e-04
3.189682539682539897e+00,-2.193203738584618487e-05,-7.475085137941407231e-05
3.190476190476190688e+00,-1.834503545149712667e-05,-4.496225804859858301e-05
3.191269841269841478e+00,-1.632437774788718463e-05,-1.596061612266944058e-05
3.192063492063492269e+00,-1.548429141236955952e-05,8.667211665776589522e-06
3.192857142857143060e+00,-1.530512791408460805e-05,2.648044928130960507e-05
3.193650793650793851e+00,-1.525813032937512536e-05,3.661830207399717116e-05
3.194444444444444642e+00,-1.490946861875372340e-05,3.980026001890356937e-05
3.195238095238095433e+00,-1.398189495534526538e-05,3.787402156713424480e-05
3.196031746031746223e+00,-1.236963707927302969e-05,3.308098753318037410e-05
3.196825396825397014e+00,-1.011806297571066552e-05,2.730622335034574844e-05
3.197619047619047805e+00,-7.388210713688064398e-06,2.155074228163653905e-05
3.198412698412698596e+00,-4.423855499622505418e-06,1.575882964012538856e-05
3.199206349206349387e+00,-1.526878648834047923e-06,9.019169885820790068e-06
3.200000000000000178e+00,9.670857319172100887e-07,6.401922684979314801e-08
3.200793650793650968e+00,2.726905088926056807e-06,-1.208499385649349163e-05
3.201587301587301759e+00,3.485976250540976425e-06,-2.751968766761105843e-05
3.202380952380952550e+00,3.116426923646567217e-06,-4.507728800336843663e-05
3.203174603174603341e+00,1.694640297263064086e-06,-6.230945907806988648e-05
3.203968253968254132e+00,-4.703802785813096160e-07,-7.580441501419592307e-05
3.204761904761904923e+00,-2.866953495028817549e-06,-8.180303741139790261e-05
3.205555555555555713e+00,-4.873521205322088259e-06,-7.699518098501582355e-05
3.206349206349206504e+00,-5.899253945646676314e-06,-5.933644789642750943e-05
3.207142857142857295e+00,-5.539472513514009022e-06,-2.869476213788921295e-05
3.207936507936508086e+00,-3.700962226887362088e-06,1.285260891712476249e-05
3.208730158730158877e+00,-6.528720895377389755e-07,6.117774990499530625e-05
3.209523809523809668e+00,3.022679080142847246e-06,1.107029616015731333e-04
3.210317460317460458e+00,6.573483472939754268e-06,1.553075282117223090e-04
3.211111111111111249e+00,9.273327640574504442e-06,1.893231129385614738e-04
3.211904761904762040e+00,1.061183021159009502e-05,2.083930808877488324e-04
3.212698412698412831e+00,1.042140119117225903e-05,2.100438962928538004e-04
3.213492063492063622e+00,8.906876227675871794e-06,1.939278647215573407e-04
3.214285714285714413e+00,6.575042892776386053e-06,1.617718440081581559e-04
3.215079365079365203e+00,4.090584448635888572e-06,1.170750553633645680e-04
3.215873015873015994e+00,2.102955383399918625e-06,6.458815979352719114e-05
3.216666666666666785e+00,1.091897101307649827e-06,9.634055134460952678e-06
3.217460317460317576e+00,1.269520465759421677e-06,-4.260849156268752317e-05
3.218253968253968367e+00,2.558715693341034760e-06,-8.770468739905124000e-05
3.219047619047619158e+00,4.646054873274217140e-06,-1.223354518693316119e-04
3.219841269841269948e+00,7.087418743600803876e-06,-1.444342744452281331e-04
3.220634920634920739e+00,9.431776412415061010e-06,-1.531829119567071969e-04
3.221428571428571530e+00,1.132688328678204568e-05,-1.489820055414709866e-04
3.222222222222222321e+00,1.258019166526081246e-05,-1.334415032099855742e-04
3.223015873015873112e+00,1.316499412558209960e-05,-1.093318477312473289e-04
3.223809523809523903e+00,1.317980248184186901e-05,-8.038119752536317369e-05
3.224603174603174693e+00,1.278237622173086813e-05,-5.083207640049471960e-05
3.225396825396825484e+00,1.212448203264878125e-05,-2.476389242720267967e-05
3.226190476190476275e+00,1.130853460505559361e-05,-5.301756185929503874e-06
3.226984126984127066e+00,1.037585212225420709e-05,6.081360337454635968e-06
3.227777777777777857e+00,9.323628519898617873e-06,9.944741541010658714e-06
3.228571428571428648e+00,8.138443428185384454e-06,8.786033066634557821e-06
3.229365079365079438e+00,6.830630082036074227e-06,6.447420729271072999e-06
3.230158730158730229e+00,5.456318278833461982e-06,7.139994550105930960e-06
3.230952380952381020e+00,4.120593310814406579e-06,1.431465119995107828e-05
3.231746031746031811e+00,2.962697060616304087e-06,2.965387107243445765e-05
3.232539682539682602e+00,2.129437629783911963e-06,5.243360950054599224e-05
3.233333333333333393e+00,1.744520068701831531e-06,7.942562149986445046e-05
3.234126984126984183e+00,1.880124133402891421e-06,1.054033755445373151e-04
