Timestamp,Flexor carpi radialis,Extensor digitorum
2.000000000000000000e+00,-1.095494983478882152e-04,2.654589018566582179e-06
2.000793650793650791e+00,-8.099007901252258071e-05,-8.293072457267962040e-06
2.001587301587301582e+00,-4.759241664716470064e-05,-1.845914673552553209e-05
2.002380952380952372e+00,-1.405643726368538261e-05,-2.675152044289055419e-05
2.003174603174603163e+00,1.487673214648361319e-05,-3.250278235547931853e-05
2.003968253968253954e+00,3.516046622480957479e-05,-3.556186546865158652e-05
2.004761904761904745e+00,4.408437366886580139e-05,-3.627794992796033285e-05
2.005555555555555536e+00,4.073360207258949496e-05,-3.538362990784707073e-05
2.006349206349206327e+00,2.619411042371950522e-05,-3.380313485295705637e-05
2.007142857142857117e+00,3.455793356790421555e-06,-3.242772342500563630e-05
2.007936507936507908e+00,-2.300002969819234759e-05,-3.190921278504421204e-05
2.008730158730158699e+00,-4.789564983979657201e-05,-3.251857752776670133e-05
2.009523809523809490e+00,-6.604751557091999498e-05,-3.409840030848261500e-05
2.010317460317460281e+00,-7.331370665477945892e-05,-3.611155827853885657e-05
2.011111111111111072e+00,-6.742448930299978010e-05,-3.776459872236281163e-05
2.011904761904761862e+00,-4.851831571960093354e-05,-3.817162069211463982e-05
2.012698412698412653e+00,-1.924246172607726663e-05,-3.652473878404331173e-05
2.013492063492063444e+00,1.564679635649793909e-05,-3.224524499014398286e-05
2.014285714285714235e+00,5.014589869308785832e-05,-2.509841229391003413e-05
2.015079365079365026e+00,7.817595067858795180e-05,-1.526030718410147883e-05
2.015873015873015817e+00,9.481910109945227046e-05,-3.327470985642329651e-06
2.016666666666666607e+00,9.733258258021891182e-05,9.736161792938028374e-06
2.017460317460317398e+00,8.569039554280796745e-05,2.271258912586737472e-05
2.018253968253968189e+00,6.251597585944154700e-05,3.428891005226376615e-05
2.019047619047618980e+00,3.242777379629492248e-05,4.323774565756800521e-05
2.019841269841269771e+00,9.722020473600630098e-07,4.859051055784764802e-05
2.020634920634920562e+00,-2.658321874235023148e-05,4.977758224317086703e-05
2.021428571428571352e+00,-4.630251208494068631e-05,4.671504410345095565e-05
2.022222222222222143e+00,-5.623769547918025844e-05,3.982446426490158484e-05
2.023015873015872934e+00,-5.655508719732236383e-05,2.998043577722068575e-05
2.023809523809523725e+00,-4.913710004536861020e-05,1.839152828080178455e-05
2.024603174603174516e+00,-3.680096008141215102e-05,6.433238607415573478e-06
2.025396825396825307e+00,-2.237069169041227390e-05,-4.538057751762705273e-06
2.026190476190476097e+00,-7.869000982216753113e-06,-1.335918327619883912e-05
2.026984126984126888e+00,5.945866966811824252e-06,-1.919842818489365748e-05
2.027777777777777679e+00,1.957759082525086791e-05,-2.164396935981789514e-05
2.028571428571428470e+00,3.434142082565622524e-05,-2.073467444616466969e-05
2.029365079365079261e+00,5.161586700402139190e-05,-1.692924605253002179e-05
2.030158730158730052e+00,7.203525076429501410e-05,-1.101581562715108494e-05
2.030952380952380842e+00,9.488495684556318588e-05,-3.974322879584192579e-06
2.031746031746031633e+00,1.179099178516749256e-04,3.185289594961811384e-06
2.032539682539682424e+00,1.376293907085918969e-04,9.580103353034433335e-06
2.033333333333333215e+00,1.500957977509858948e-04,1.457926589898122591e-05
2.034126984126984006e+00,1.518895507634829929e-04,1.787790572410374415e-05
2.034920634920634797e+00,1.410583061959638242e-04,1.951064252515458353e-05
2.035714285714285587e+00,1.177220339458008098e-04,1.980381151070951848e-05
2.036507936507936378e+00,8.416879540431748176e-05,1.927321335274795436e-05
2.037301587301587169e+00,4.441874753354733827e-05,1.848359572001862549e-05
2.038095238095237960e+00,3.384660569668622795e-06,1.789715440991416416e-05
2.038888888888888751e+00,-3.413585595587585069e-05,1.774716483831234321e-05
2.039682539682539542e+00,-6.436841581747661982e-05,1.797309475335764849e-05
2.040476190476190332e+00,-8.515320655210222066e-05,1.824086138455982591e-05
2.041269841269841123e+00,-9.611491188468619131e-05,1.804835653741309549e-05
2.042063492063491914e+00,-9.843499373367783759e-05,1.688981493266107365e-05
2.042857142857142705e+00,-9.435109646044110741e-05,1.443190973592560383e-05
2.043650793650793496e+00,-8.655366209974320541e-05,1.064691146186959498e-05
2.044444444444444287e+00,-7.763356251593100477e-05,5.858612001251200248e-06
2.045238095238095077e+00,-6.967641162847428200e-05,6.836485435718679608e-07
2.046031746031745868e+00,-6.403320180618065477e-05,-4.115341813035842374e-06
2.046825396825396659e+00,-6.124813613835778270e-05,-7.820653829309910350e-06
2.047619047619047450e+00,-6.109860125343411538e-05,-9.937674914208736876e-06
2.048412698412698241e+00,-6.269459833997751948e-05,-1.030793659802315196e-05
2.049206349206349032e+00,-6.459440752626132473e-05,-9.124777401567013961e-06
2.049999999999999822e+00,-6.492327452688725420e-05,-6.849628968587521190e-06
2.050793650793650613e+00,-6.152767465902086509e-05,-4.058064551889682751e-06
2.051587301587301404e+00,-5.223399768064524432e-05,-1.265719036598791127e-06
2.052380952380952195e+00,-3.527031682875466457e-05,1.212225270475377751e-06
2.053174603174602986e+00,-9.834803569843084904e-06,3.327879459830613705e-06
2.053968253968253777e+00,2.331907132508213352e-05,5.277799808938957029e-06
2.054761904761904567e+00,6.149786253791213110e-05,7.400189678105571576e-06
2.055555555555555358e+00,1.001019159875894037e-04,1.002239291944285360e-05
2.056349206349206149e+00,1.331919908302013936e-04,1.330070292921304945e-05
2.057142857142856940e+00,1.545324672301446331e-04,1.709660144826579819e-05
2.057936507936507731e+00,1.588878578161937274e-04,2.092611048953713884e-05
2.058730158730158522e+00,1.432533267106774247e-04,2.400319731817451908e-05
2.059523809523809312e+00,1.077056279278859027e-04,2.537678354192385733e-05
2.060317460317460103e+00,5.565410614773211686e-05,2.413768100253758773e-05
2.061111111111110894e+00,-6.588606132421490919e-06,1.965134775341436440e-05
2.061904761904761685e+00,-7.084862789816164332e-05,1.176037102274091434e-05
2.062698412698412920e+00,-1.285452709001747528e-04,9.020773672928292089e-07
2.063492063492063711e+00,-1.722586070791470739e-04,-1.189729215817206641e-05
2.064285714285714501e+00,-1.970715405002448732e-04,-2.516326512659820944e-05
2.065079365079365292e+00,-2.013877677599829508e-04,-3.722711429640975379e-05
2.065873015873016083e+00,-1.870413270037239717e-04,-4.653950407147878089e-05
2.066666666666666874e+00,-1.586755957476893204e-04,-5.196910360514629576e-05
2.067460317460317665e+00,-1.225440489720817992e-04,-5.301121275062096474e-05
2.068253968253968456e+00,-8.502911639888456499e-05,-4.985407806979029113e-05
2.069047619047619246e+00,-5.124560031638166217e-05,-4.328830556974272973e-05
2.069841269841270037e+00,-2.406703326943302062e-05,-3.448531466110870536e-05
2.070634920634920828e+00,-3.794146794108772941e-06,-2.470289093142051510e-05
2.071428571428571619e+00,1.149136337486344687e-05,-1.499228959665235806e-05
2.072222222222222410e+00,2.502499177957243507e-05,-5.980144792647166621e-06
2.073015873015873201e+00,4.017793526054447777e-05,2.218187427863496326e-06
2.073809523809523991e+00,5.931569640381861505e-05,9.926929919929890970e-06
2.074603174603174782e+00,8.298740083792171640e-05,1.769353565721620955e-05
2.075396825396825573e+00,1.096410763399660625e-04,2.598586482099034283e-05
2.076190476190476364e+00,1.359188974295977390e-04,3.489425476726299921e-05
2.076984126984127155e+00,1.574342576315460312e-04,4.393526455581116914e-05
2.077777777777777946e+00,1.698145177809022306e-04,5.202600942709761803e-05
2.078571428571428736e+00,1.697411054027982787e-04,5.764734678845703293e-05
2.079365079365079527e+00,1.557383427003652292e-04,5.915946150063617563e-05
2.080158730158730318e+00,1.285412991938285408e-04,5.519086887704196208e-05
2.080952380952381109e+00,9.098669997365028982e-05,4.500152431897706828e-05
2.081746031746031900e+00,4.748614944395493137e-05,2.872710175440813690e-05
2.082539682539682691e+00,3.225748391622710436e-06,7.442878523482306115e-06
2.083333333333333481e+00,-3.672557569268474468e-05,-1.696719590106690565e-05
2.084126984126984272e+00,-6.822268660706955169e-05,-4.210264432755088593e-05
2.084920634920635063e+00,-8.862809387240063559e-05,-6.543170820074593527e-05
2.085714285714285854e+00,-9.709377185836156839e-05,-8.468796486167728748e-05
2.086507936507936645e+00,-9.452654780296036502e-05,-9.820245891183083779e-05
2.087301587301587436e+00,-8.327854920146450935e-05,-1.051144168456099470e-04
2.088095238095238226e+00,-6.663821325584196216e-05,-1.054292057671512661e-04
2.088888888888889017e+00,-4.821105700133892087e-05,-9.992074542645543070e-05
2.089682539682539808e+00,-3.128918812323592028e-05,-8.990482915001070678e-05
2.090476190476190599e+00,-1.832062074445849750e-05,-7.693565406356602475e-05
2.091269841269841390e+00,-1.058244289147114720e-05,-6.249318053006452977e-05
2.092063492063492181e+00,-8.113475274425967150e-06,-4.772709557435524585e-05
2.092857142857142971e+00,-9.886024635322312537e-06,-3.330401397550281436e-05
2.093650793650793762e+00,-1.413438451798318438e-05,-1.937722666496467471e-05
2.094444444444444553e+00,-1.873996051737765892e-05,-5.675558756597778489e-06
2.095238095238095344e+00,-2.159660907348677313e-05,8.305249689747497949e-06
2.096031746031746135e+00,-2.091964889429808711e-05,2.303627550154823525e-05
2.096825396825396925e+00,-1.549182566756815126e-05,3.866049800082427295e-05
2.097619047619047716e+00,-4.847525834136906014e-06,5.473891399479618563e-05
2.098412698412698507e+00,1.061235819899836683e-05,7.012028975024121511e-05
2.099206349206349298e+00,2.959498244439866604e-05,8.300530049882717885e-05
2.100000000000000089e+00,5.000470128128657908e-05,9.123572800678443021e-05
2.100793650793650880e+00,6.916592808179826770e-05,9.277698679115415454e-05
2.101587301587301670e+00,8.418091965271114554e-05,8.629064787109157512e-05
2.102380952380952461e+00,9.239247443004108948e-05,7.163681121247516723e-05
2.103174603174603252e+00,9.188016602085513900e-05,5.013607116098248422e-05
2.103968253968254043e+00,8.188248633432914487e-05,2.447703303604087570e-05
2.104761904761904834e+00,6.302859262246295058e-05,-1.736496461512842654e-06
2.105555555555555625e+00,3.729634468608522627e-05,-2.468931727513157574e-05
2.106349206349206415e+00,7.682722608280793963e-06,-4.112534101039231119e-05
2.107142857142857206e+00,-2.234379748785157997e-05,-4.898861324099860977e-05
2.107936507936507997e+00,-4.947032509404848867e-05,-4.778261236325792469e-05
2.108730158730158788e+00,-7.107818485629624472e-05,-3.857222886268786409e-05
2.109523809523809579e+00,-8.555089353033273772e-05,-2.364132851525304550e-05
2.110317460317460370e+00,-9.228729318664723430e-05,-5.904039005801889125e-06
2.111111111111111160e+00,-9.145936551674628469e-05,1.176912950862302195e-05
2.111904761904761951e+00,-8.364209057371462181e-05,2.713201570316340315e-05
2.112698412698412742e+00,-6.948003939668928564e-05,3.891157280234898316e-05
2.113492063492063533e+00,-4.953113975003505486e-05,4.686607119991637309e-05
2.114285714285714324e+00,-2.435436090601097626e-05,5.158051232944823835e-05
2.115079365079365115e+00,5.189969771516988255e-06,5.408951635874368951e-05
2.115873015873015905e+00,3.755128046497787519e-05,5.544575163600425950e-05
2.116666666666666696e+00,7.019336990523652455e-05,5.634965609531116253e-05
2.117460317460317487e+00,9.957299876417810688e-05,5.693151818708683476e-05
2.118253968253968278e+00,1.214994258140133051e-04,5.673484468698330514e-05
2.119047619047619069e+00,1.318494591487230747e-04,5.489568494183637108e-05
2.119841269841269860e+00,1.274687357143948897e-04,5.045741000465704451e-05
2.120634920634920650e+00,1.070004486447080801e-04,4.272113482035266944e-05
2.121428571428571441e+00,7.139048256523475311e-05,3.152344492156764952e-05
2.122222222222222232e+00,2.391519048495369129e-05,1.735937616500159074e-05
2.123015873015873023e+00,-3.028182535830954331e-05,1.319663413667813050e-06
2.123809523809523814e+00,-8.502903342630815074e-05,-1.513150974229050675e-05
2.124603174603174605e+00,-1.341454324251151761e-04,-3.046664819353969513e-05
2.125396825396825395e+00,-1.724103057460738149e-04,-4.339955276298325604e-05
2.126190476190476186e+00,-1.962695863352842808e-04,-5.309802708834763640e-05
2.126984126984126977e+00,-2.041285771397959232e-04,-5.925305098677562988e-05
2.127777777777777768e+00,-1.962066847240558683e-04,-6.200475675482202613e-05
2.128571428571428559e+00,-1.740869607862252102e-04,-6.177482078022690124e-05
2.129365079365079350e+00,-1.401999346103177170e-04,-5.908056657369994692e-05
2.130158730158730140e+00,-9.746150293369494199e-05,-5.439835438857220897e-05
2.130952380952380931e+00,-4.914264692654887523e-05,-4.810930189119465631e-05
2.131746031746031722e+00,1.123856444611294703e-06,-4.051778537702545676e-05
2.132539682539682513e+00,4.939142487390159986e-05,-3.190355923251502157e-05
2.133333333333333304e+00,9.166945863620608640e-05,-2.256403959660639887e-05
2.134126984126984095e+00,1.244607980287363387e-04,-1.282158380449563656e-05
2.134920634920634885e+00,1.454560217312696679e-04,-2.997356793394008977e-06
2.135714285714285676e+00,1.541513879834262247e-04,6.626240213536645611e-06
2.136507936507936467e+00,1.521279121776908058e-04,1.582627918488335232e-05
2.137301587301587258e+00,1.428131318555736495e-04,2.442245079288960034e-05
2.138095238095238049e+00,1.307118251275710217e-04,3.221909919998785528e-05
2.138888888888888840e+00,1.202703477093977993e-04,3.892356943253430794e-05
2.139682539682539630e+00,1.146648399274140636e-04,4.407609601536184926e-05
2.140476190476190421e+00,1.148379752042954350e-04,4.703332899934538764e-05
2.141269841269841212e+00,1.190536525754088581e-04,4.703830702751411605e-05
2.142063492063492003e+00,1.231217116281298663e-04,4.338480917209598312e-05
2.142857142857142794e+00,1.212909858871881707e-04,3.564974008689320825e-05
2.143650793650793585e+00,1.076385025380398699e-04,2.393351143060892840e-05
2.144444444444444375e+00,7.763292235900158599e-05,9.027242210097119273e-06
2.145238095238095166e+00,2.947917004788569158e-05,-7.571924639395085385e-06
2.146031746031745957e+00,-3.510030848108834276e-05,-2.384393757192273961e-05
2.146825396825396748e+00,-1.108339941668030540e-04,-3.761532248058270181e-05
2.147619047619047539e+00,-1.895986926540787023e-04,-4.703389914296346870e-05
2.148412698412698330e+00,-2.616517797599299169e-04,-5.101526563287668244e-05
2.149206349206349120e+00,-3.171242014230937073e-04,-4.951922813463583453e-05
2.149999999999999911e+00,-3.475167243387729059e-04,-4.356046169790460853e-05
2.150793650793650702e+00,-3.470075200774879452e-04,-3.494293024365981767e-05
2.151587301587301493e+00,-3.134346194843481721e-04,-2.579761202991252261e-05
2.152380952380952284e+00,-2.488356678294470015e-04,-1.806266851313127010e-05
2.153174603174603075e+00,-1.594329788657661544e-04,-1.305496702165014952e-05
2.153968253968253865e+00,-5.498727407043573292e-05,-1.124346723831042568e-05
2.154761904761904656e+00,5.247338550385986994e-05,-1.226552567923472406e-05
2.155555555555555447e+00,1.504249374638089143e-04,-1.515070530221963016e-05
2.156349206349206238e+00,2.278612340876115918e-04,-1.865762840214943969e-05
2.157142857142857029e+00,2.771722623089207952e-04,-2.160651042517028301e-05
2.157936507936507819e+00,2.954529944978283025e-04,-2.310945774210219263e-05
2.158730158730158610e+00,2.848771882459994126e-04,-2.265235660970280927e-05
2.159523809523809401e+00,2.519766098538255895e-04,-2.004357689229414942e-05
2.160317460317460192e+00,2.059574387292900600e-04,-1.529095483529890561e-05
2.161111111111110983e+00,1.564620294013844648e-04,-8.484290656480119672e-06
2.161904761904761774e+00,1.113451267794675787e-04,2.546379650653008790e-07
2.162698412698412564e+00,7.502469922992666400e-05,1.072858117647707053e-05
2.163492063492063355e+00,4.780336794947672379e-05,2.254532582559793912e-05
2.164285714285714146e+00,2.630234116323723452e-05,3.497770063011531981e-05
2.165079365079364937e+00,4.880065837368298114e-06,4.687903033023986207e-05
2.165873015873015728e+00,-2.232199992433791537e-05,5.672344219463937022e-05
2.166666666666666519e+00,-5.921756276186237127e-05,6.280488575422196631e-05
2.167460317460317309e+00,-1.060604113302356848e-04,6.357349892440017597e-05
2.168253968253968100e+00,-1.586730297231824828e-04,5.803195516314190626e-05
2.169047619047618891e+00,-2.089285139910857121e-04,4.607884794666365126e-05
2.169841269841269682e+00,-2.464991141905278145e-04,2.868602589895214805e-05
2.170634920634920473e+00,-2.615219378918925324e-04,7.835217826936237415e-06
2.171428571428571264e+00,-2.474934076961263674e-04,-1.379416759475497060e-05
2.172222222222222054e+00,-2.035226327194456376e-04,-3.332031558727813176e-05
2.173015873015872845e+00,-1.351705089552897733e-04,-4.821466833746078254e-05
2.173809523809523636e+00,-5.349531250592097048e-05,-5.677546424782309753e-05
2.174603174603174427e+00,2.750786365629646573e-05,-5.840233859881439286e-05
2.175396825396825218e+00,9.436040320304546643e-05,-5.361753880908977111e-05
2.176190476190476009e+00,1.374411090933806245e-04,-4.385451984976181328e-05
2.176984126984126799e+00,1.532494710615856762e-04,-3.109445436070885118e-05
2.177777777777777590e+00,1.449728836157593043e-04,-1.745563942155975914e-05
2.178571428571428381e+00,1.212623179407767391e-04,-4.827797800995627334e-06
2.179365079365079172e+00,9.363548943469601239e-05,5.391763035937619354e-06
2.180158730158729963e+00,7.327637579485383416e-05,1.243923028737787211e-05
2.180952380952380754e+00,6.811040435552716699e-05,1.620623301703136369e-05
2.181746031746031544e+00,8.090525285924252206e-05,1.715930803556558063e-05
2.182539682539682335e+00,1.088210597987990307e-04,1.618079908676227927e-05
2.183333333333333126e+00,1.443992313768525980e-04,1.436043419323146999e-05
2.184126984126983917e+00,1.775776954611915084e-04,1.277089704694060602e-05
2.184920634920634708e+00,1.980953880604915300e-04,1.226318271540122240e-05
2.185714285714285499e+00,1.976579157134503877e-04,1.331690401863610427e-05
2.186507936507936289e+00,1.714281565216889739e-04,1.597321189865320680e-05
2.187301587301587080e+00,1.186737386062589928e-04,1.986040096788722578e-05
2.188095238095238315e+00,4.264905229548463151e-05,2.429766662038314597e-05
2.188888888888889106e+00,-5.005421719726397753e-05,2.844148810677769756e-05
2.189682539682539897e+00,-1.504183514541288565e-04,3.143314110274666973e-05
2.190476190476190688e+00,-2.479785590642563588e-04,3.251798060425746301e-05
2.191269841269841478e+00,-3.318108843996391715e-04,3.112926448316370888e-05
2.192063492063492269e+00,-3.915847620097748292e-04,2.694761341424691591e-05
2.192857142857143060e+00,-4.187522758259862830e-04,1.995103954698340711e-05
2.193650793650793851e+00,-4.078381823571059178e-04,1.045842819884925441e-05
2.194444444444444642e+00,-3.576204552500642712e-04,-8.495704723650289760e-07
2.195238095238095433e+00,-2.718671838753061124e-04,-1.295932035916115269e-05
2.196031746031746223e+00,-1.593132606726593045e-04,-2.462211366151628397e-05
2.196825396825397014e+00,-3.271964585598108533e-05,-3.451690456541640581e-05
2.197619047619047805e+00,9.291414664229784466e-05,-4.144838696578230725e-05
2.198412698412698596e+00,2.026986593403536259e-04,-4.453859705691398608e-05
2.199206349206349387e+00,2.843243266636061826e-04,-4.337291012197792156e-05
2.200000000000000178e+00,3.301383158116122699e-04,-3.807222940096387291e-05
2.200793650793650968e+00,3.383396828158167472e-04,-2.927729791934039608e-05
2.201587301587301759e+00,3.129646631250921035e-04,-1.804797312518881684e-05
2.202380952380952550e+00,2.626371736148897982e-04,-5.698026794137237033e-06
2.203174603174603341e+00,1.984238769594280161e-04,6.401489043091337885e-06
2.203968253968254132e+00,1.314009981036031805e-04,1.701455087594452761e-05
2.204761904761904923e+00,7.058215246100182721e-05,2.519787051762125744e-05
2.205555555555555713e+00,2.166520841306428602e-05,3.040280273767749907e-05
2.206349206349206504e+00,-1.325742181767705223e-05,3.251020107817272688e-05
2.207142857142857295e+00,-3.517130164523340818e-05,3.179731549287386476e-05
2.207936507936508086e+00,-4.711358883513892706e-05,2.884623583451822600e-05
2.208730158730158877e+00,-5.300073408782885506e-05,2.441293340449605904e-05
2.209523809523809668e+00,-5.659455055793353990e-05,1.928327422951183840e-05
2.210317460317460458e+00,-6.077136232327335150e-05,1.414520122937711751e-05
2.211111111111111249e+00,-6.713919844513728476e-05,9.501791511733924866e-06
2.211904761904762040e+00,-7.596522962286157308e-05,5.637325233230748459e-06
2.212698412698412831e+00,-8.634197573927860562e-05,2.631805632473556682e-06
2.213492063492063622e+00,-9.652065910201008893e-05,4.060809181700177126e-07
2.214285714285714413e+00,-1.043447924572381112e-04,-1.224129288157426369e-06
2.215079365079365203e+00,-1.077085643023494835e-04,-2.500889492832115062e-06
2.215873015873015994e+00,-1.049507322548573658e-04,-3.687266123313873856e-06
2.216666666666666785e+00,-9.510331396036245588e-05,-5.034141028409531082e-06
2.217460317460317576e+00,-7.796377943942535470e-05,-6.740016967149320984e-06
2.218253968253968367e+00,-5.403240775957016188e-05,-8.900098023399331834e-06
2.219047619047619158e+00,-2.440833794106073230e-05,-1.145520137429109064e-05
2.219841269841269948e+00,9.269263330197676409e-06,-1.416367549135534530e-05
2.220634920634920739e+00,4.481786735986663649e-05,-1.662120246211570897e-05
2.221428571428571530e+00,7.951960877641157390e-05,-1.834041818905955701e-05
2.222222222222222321e+00,1.102585116873607365e-04,-1.887857709474069907e-05
2.223015873015873112e+00,1.338606928959351497e-04,-1.797741193491044217e-05
2.223809523809523903e+00,1.476033714999962958e-04,-1.566742065089627125e-05
2.224603174603174693e+00,1.497566473686747467e-04,-1.229645899145813294e-05
2.225396825396825484e+00,1.399846606558136997e-04,-8.466797745936614045e-06
2.226190476190476275e+00,1.194750989124528307e-04,-4.894514529615771753e-06
2.226984126984127066e+00,9.076160942920804696e-05,-2.228667481742630663e-06
2.227777777777777857e+00,5.730119803212511438e-05,-8.792822420787487087e-07
2.228571428571428648e+00,2.292282757470319533e-05,-9.018152257793238346e-07
2.229365079365079438e+00,-8.735872236871132892e-06,-1.971775644047976442e-06
2.230158730158730229e+00,-3.471642585836145752e-05,-3.458431278541539037e-06
2.230952380952381020e+00,-5.309605386688010100e-05,-4.577342069982603349e-06
2.231746031746031811e+00,-6.317858200085669856e-05,-4.578584385812712958e-06
2.232539682539682602e+00,-6.550131258550365957e-05,-2.920593103055842879e-06
2.233333333333333393e+00,-6.165954566624329671e-05,6.096519749536928417e-07
2.234126984126984183e+00,-5.397754953513093023e-05,5.848490724689453281e-06
2.234920634920634974e+00,-4.508234609186874571e-05,1.227805777808996185e-05
2.235714285714285765e+00,-3.745532828953728480e-05,1.910606563175620758e-05
2.236507936507936556e+00,-3.304068808784011265e-05,2.538603036219530583e-05
2.237301587301587347e+00,-3.297790496008585782e-05,3.016175610037116073e-05
2.238095238095238138e+00,-3.750068646025530797e-05,3.261959942371116158e-05
2.238888888888888928e+00,-4.601109919699349158e-05,3.222805457573214806e-05
2.239682539682539719e+00,-5.730006575143140279e-05,2.883925489807906357e-05
2.240476190476190510e+00,-6.985028304481497963e-05,2.272741240702368313e-05
2.241269841269841301e+00,-8.213405302462438787e-05,1.454906271355138702e-05
2.242063492063492092e+00,-9.281738867270241018e-05,5.227672250618707455e-06
2.242857142857142883e+00,-1.008119092839761380e-04,-4.214751820841861814e-06
2.243650793650793673e+00,-1.051770642258450736e-04,-1.284089359053824200e-05
2.244444444444444464e+00,-1.049498519501656211e-04,-1.995387192577366146e-05
2.245238095238095255e+00,-9.903443530392451260e-05,-2.519263846959343011e-05
2.246031746031746046e+00,-8.628517079749109108e-05,-2.855157464510814131e-05
2.246825396825396837e+00,-6.584590211127979169e-05,-3.032528716634450464e-05
2.247619047619047628e+00,-3.767968771080124567e-05,-3.099231132293733674e-05
2.248412698412698418e+00,-3.087388290493111617e-06,-3.106381232455964571e-05
2.249206349206349209e+00,3.505366670489470633e-05,-3.093548660658174436e-05
2.250000000000000000e+00,7.253890174344148907e-05,-3.078491596924184953e-05
2.250793650793650791e+00,1.045985119842817427e-04,-3.054473870873234488e-05
2.251587301587301582e+00,1.269737620835093136e-04,-2.995583762999219618e-05
2.252380952380952372e+00,1.369585016860369912e-04,-2.867576553815734663e-05
2.253174603174603163e+00,1.340573079591007464e-04,-2.639947777358616203e-05
2.253968253968253954e+00,1.200613394842108721e-04,-2.294991620427349357e-05
2.254761904761904745e+00,9.856087383342686020e-05,-1.831311448822995090e-05
2.255555555555555536e+00,7.409039388572445563e-05,-1.261666694353842231e-05
2.256349206349206327e+00,5.116873484343507981e-05,-6.071069429564627239e-06
2.257142857142857117e+00,3.345588701808022700e-05,1.095660144677959664e-06
2.257936507936507908e+00,2.315405132847723403e-05,8.680187882725724495e-06
2.258730158730158699e+00,2.069540836127221716e-05,1.650378437910264562e-05
2.259523809523809490e+00,2.471463103940011393e-05,2.436872840148640628e-05
2.260317460317460281e+00,3.229182915562299922e-05,3.198967317900199806e-05
2.261111111111111072e+00,3.944361159709971446e-05,3.893318900412819983e-05
2.261904761904761862e+00,4.181880536149268986e-05,4.460211099324746132e-05
2.262698412698412653e+00,3.552289263474643611e-05,4.829019655340427636e-05
2.263492063492063444e+00,1.796176606122456298e-05,4.930860004814149449e-05
2.264285714285714235e+00,-1.143101317396290848e-05,4.715597875713960414e-05
2.265079365079365026e+00,-5.073309138560338653e-05,4.168041635612457267e-05
2.265873015873015817e+00,-9.548000502411513064e-05,3.317566195819180651e-05
2.266666666666666607e+00,-1.391175728107070053e-04,2.237148451236203433e-05
2.267460317460317398e+00,-1.739694794188726302e-04,1.031291255113384251e-05
2.268253968253968189e+00,-1.926064823382075204e-04,-1.837326238944786545e-06
2.269047619047618980e+00,-1.893773778186535193e-04,-1.301062661579507857e-05
2.269841269841269771e+00,-1.617719104180404693e-04,-2.239254945714163201e-05
2.270634920634920562e+00,-1.112653971242812129e-04,-2.948982424827724827e-05
2.271428571428571352e+00,-4.336790014830517790e-05,-3.410453916642676670e-05
2.272222222222222143e+00,3.322369435822349656e-05,-3.625254826641009369e-05
2.273015873015872934e+00,1.082258032135510918e-04,-3.607761353540337704e-05
2.273809523809523725e+00,1.717427116452889318e-04,-3.380093102771715592e-05
2.274603174603174516e+00,2.161160235181302624e-04,-2.971665117968808430e-05
2.275396825396825307e+00,2.371903822202010707e-04,-2.421378761758833682e-05
2.276190476190476097e+00,2.347267500825032862e-04,-1.778870867764124170e-05
2.276984126984126888e+00,2.119623233667764178e-04,-1.101750980243066941e-05
2.277777777777777679e+00,1.745521014285185705e-04,-4.479655061869958744e-06
2.278571428571428470e+00,1.292374597096999770e-04,1.349416835719171130e-06
2.279365079365079261e+00,8.255892184096101942e-05,6.201595554015032946e-06
2.280158730158730052e+00,3.982947240757739267e-05,1.007821644486545619e-05
2.280952380952380842e+00,4.486053214232497869e-06,1.324577701443607557e-05
2.281746031746031633e+00,-2.213258416112181954e-05,1.615873636223581520e-05
2.282539682539682424e+00,-4.059058981016240320e-05,1.932108565909232759e-05
2.283333333333333215e+00,-5.281482864173969738e-05,2.311303020416197675e-05
2.284126984126984006e+00,-6.134508001162971679e-05,2.762108287120973037e-05
2.284920634920634797e+00,-6.854847436657067721e-05,3.251826449010622444e-05
2.285714285714285587e+00,-7.597191149309345424e-05,3.703995589175849051e-05
2.286507936507936378e+00,-8.396900797639280257e-05,4.008405449376434352e-05
2.287301587301587169e+00,-9.167405979091698557e-05,4.043252997440508173e-05
2.288095238095237960e+00,-9.731760600945601276e-05,3.705428456878741983e-05
2.288888888888888751e+00,-9.880052064754595302e-05,2.941799574495962061e-05
2.289682539682539542e+00,-9.438047449108071831e-05,1.772859687916655567e-05
2.290476190476190332e+00,-8.328991342852995233e-05,3.009950031669023133e-06
2.291269841269841123e+00,-6.611037038868139773e-05,-1.300892653007668059e-05
2.292063492063491914e+00,-4.478197041030077804e-05,-2.819360249727749794e-05
2.292857142857142705e+00,-2.222717444978988569e-05,-4.042384308491835478e-05
2.293650793650793496e+00,-1.689919215961864402e-06,-4.802720624508868813e-05
2.294444444444444287e+00,1.401262673015785356e-05,-5.011270325303650405e-05
2.295238095238095077e+00,2.310464475298734603e-05,-4.672087432973389787e-05
2.296031746031745868e+00,2.516936788927437836e-05,-3.876493782350491987e-05
2.296825396825396659e+00,2.111342353707640861e-05,-2.779864294483101560e-05
2.297619047619047450e+00,1.282946925537241552e-05,-1.568523352790526175e-05
2.298412698412698241e+00,2.682487736315915047e-06,-4.249547008189886137e-06
2.299206349206349032e+00,-7.031015562960981343e-06,5.020492552061147863e-06
2.299999999999999822e+00,-1.452308624033120426e-05,1.118186901780256307e-05
2.300793650793650613e+00,-1.877421712404956459e-05,1.393651686200431549e-05
2.301587301587301404e+00,-1.958881463903097919e-05,1.362329321326633460e-05
2.302380952380952195e+00,-1.747031836335662973e-05,1.111270286577067975e-05
2.303174603174602986e+00,-1.337388385833970476e-05,7.622668489802951899e-06
2.303968253968253777e+00,-8.410090654952270372e-06,4.480840031173107694e-06
2.304761904761904567e+00,-3.570788460699284395e-06,2.866681815377601158e-06
2.305555555555555358e+00,4.679552510105186084e-07,3.572646254070610542e-06
2.306349206349206149e+00,3.435150956991988792e-06,6.825113199404754917e-06
2.307142857142856940e+00,5.442631821166016248e-06,1.220109296379929750e-05
2.307936507936507731e+00,6.871658165109398082e-06,1.866607463403629366e-05
2.308730158730158522e+00,8.205874409253024297e-06,2.474157412689085753e-05
2.309523809523809312e+00,9.855146155438318926e-06,2.878740579332012003e-05
2.310317460317460103e+00,1.201132256533179138e-05,2.935561936723328838e-05
2.311111111111110894e+00,1.456544903610739522e-05,2.554722221931127548e-05
2.311904761904761685e+00,1.710104514955798256e-05,1.728882884559856758e-05
2.312698412698412920e+00,1.896413282088323205e-05,5.452036845013073310e-06
2.313492063492063711e+00,1.939934220968388088e-05,-8.233788457253344802e-06
2.314285714285714501e+00,1.773142006859506492e-05,-2.147810688232898972e-05
2.315079365079365292e+00,1.356138051612455315e-05,-3.188298132501163850e-05
2.315873015873016083e+00,6.937288151276554093e-06,-3.745482364319183474e-05
2.316666666666666874e+00,-1.545136252820366061e-06,-3.705332697509622879e-05
2.317460317460317665e+00,-1.075246758111042514e-05,-3.066972355268333825e-05
2.318253968253968456e+00,-1.915722552057445052e-05,-1.946828772638679777e-05
2.319047619047619246e+00,-2.510886419332177964e-05,-5.579788373446393555e-06
2.319841269841270037e+00,-2.719028682792971958e-05,8.311785503390931344e-06
2.320634920634920828e+00,-2.458602824865250308e-05,1.950597654876201471e-05
2.321428571428571619e+00,-1.736815635270074195e-05,2.583640687016703174e-05
2.322222222222222410e+00,-6.606298696848966827e-06,2.611937891664426885e-05
2.323015873015873201e+00,5.761460514775006706e-06,2.040218726241888134e-05
2.323809523809523991e+00,1.729743887105581677e-05,9.951678272730361680e-06
2.324603174603174782e+00,2.559512850175231085e-05,-3.022324272812933319e-06
2.325396825396825573e+00,2.883278890686236391e-05,-1.585380808227811991e-05
2.326190476190476364e+00,2.619737523170771184e-05,-2.600942249741099323e-05
2.326984126984127155e+00,1.806762599947773040e-05,-3.164205407152573957e-05
2.327777777777777946e+00,5.918714426821573889e-06,-3.197875761192196656e-05
2.328571428571428736e+00,-8.016833201353671512e-06,-2.745389880286778817e-05
2.329365079365079527e+00,-2.124550217620989771e-05,-1.955993967603328421e-05
2.330158730158730318e+00,-3.154849938670100838e-05,-1.045410657335118453e-05
2.330952380952381109e+00,-3.742481214202976703e-05,-2.416168057625595144e-06
2.331746031746031900e+00,-3.832145457247482353e-05,2.710575216936117758e-06
2.332539682539682691e+00,-3.458179135708273449e-05,3.956335728561401298e-06
2.333333333333333481e+00,-2.713317384567376684e-05,1.430352863870437635e-06
2.334126984126984272e+00,-1.703961642105445961e-05,-3.753620650627834049e-06
2.334920634920635063e+00,-5.116793310113416392e-06,-9.803850592515627688e-06
2.335714285714285854e+00,8.204594526432194349e-06,-1.473392443714455475e-05
2.336507936507936645e+00,2.269488642145127199e-05,-1.687120677589150900e-05
2.337301587301587436e+00,3.792400666805384316e-05,-1.526199044546575686e-05
2.338095238095238226e+00,5.288473249621202557e-05,-9.881991294502637368e-06
2.338888888888889017e+00,6.589149859977314603e-05,-1.616939608114878876e-06
2.339682539682539808e+00,7.486600971065456012e-05,7.964793637968669483e-06
2.340476190476190599e+00,7.791402165009977639e-05,1.698198561200740318e-05
2.341269841269841390e+00,7.394687320469558924e-05,2.366396174967546386e-05
2.342063492063492181e+00,6.308764711231516352e-05,2.673498625903424476e-05
2.342857142857142971e+00,4.671542816701893224e-05,2.567919466224179661e-05
2.343650793650793762e+00,2.716118787668653857e-05,2.083222645440913537e-05
2.344444444444444553e+00,7.187948548280104227e-06,1.328475834464448782e-05
2.345238095238095344e+00,-1.057374568598795011e-05,4.626819454112799331e-06
2.346031746031746135e+00,-2.409259803744203253e-05,-3.402347650746822036e-06
2.346825396825396925e+00,-3.222184286419361651e-05,-9.275979495282671462e-06
2.347619047619047716e+00,-3.477840323903298958e-05,-1.197344725246996891e-05
2.348412698412698507e+00,-3.243734676061103058e-05,-1.114903426626952408e-05
2.349206349206349298e+00,-2.649382633230575829e-05,-7.153147576162707367e-06
2.350000000000000089e+00,-1.856143008540520070e-05,-9.166031454136506726e-07
2.350793650793650880e+00,-1.027891806902198238e-05,6.267986668393829963e-06
2.351587301587301670e+00,-3.084845827247735533e-06,1.302114377276914118e-05
2.352380952380952461e+00,1.909215041325368758e-06,1.815557477725173878e-05
2.353174603174603252e+00,3.954632853898246110e-06,2.090617504319066547e-05
2.353968253968254043e+00,2.651275103876638792e-06,2.106326800777629562e-05
2.354761904761904834e+00,-2.066229241703605169e-06,1.897700949231380016e-05
2.355555555555555625e+00,-9.907264780956354967e-06,1.542833490540445658e-05
2.356349206349206415e+00,-2.017040354095605092e-05,1.139676847363181137e-05
2.357142857142857206e+00,-3.169355610036323704e-05,7.787368664816190798e-06
2.357936507936507997e+00,-4.286966335511761377e-05,5.195093686877292138e-06
2.358730158730158788e+00,-5.178446789263361144e-05,3.775386995288636044e-06
2.359523809523809579e+00,-5.650017426883391255e-05,3.254971810196723598e-06
2.360317460317460370e+00,-5.545417529579179956e-05,3.069411196686096851e-06
2.361111111111111160e+00,-4.788293328611483319e-05,2.573712926383935585e-06
2.361904761904761951e+00,-3.414254240658928119e-05,1.254667883133663594e-06
2.362698412698412742e+00,-1.580232653671089781e-05,-1.117524276771766940e-06
2.363492063492063533e+00,4.556225350555681085e-06,-4.432271484979901295e-06
2.364285714285714324e+00,2.381186054465705431e-05,-8.274354592931019184e-06
2.365079365079365115e+00,3.893301635837691444e-05,-1.202167542780040584e-05
2.365873015873015905e+00,4.759618779061075572e-05,-1.496426715175206614e-05
2.366666666666666696e+00,4.863061798981456853e-05,-1.641548523959709738e-05
2.367460317460317487e+00,4.219031075929195751e-05,-1.580894576527714436e-05
2.368253968253968278e+00,2.964799205186620872e-05,-1.279087057271700342e-05
2.369047619047619069e+00,1.328489846405286841e-05,-7.315418607512668946e-06
2.369841269841269860e+00,-4.118346951945485896e-06,2.674197254037819858e-07
2.370634920634920650e+00,-1.970190939771094724e-05,9.162650082894316378e-06
2.371428571428571441e+00,-3.091048774735674534e-05,1.816004376150585529e-05
2.372222222222222232e+00,-3.582615035754857448e-05,2.577134459247318568e-05
2.373015873015873023e+00,-3.344344289646633274e-05,3.047242109434889997e-05
2.373809523809523814e+00,-2.386342565135573696e-05,3.100914955905411356e-05
2.374603174603174605e+00,-8.359885453142738452e-06,2.669561502678299210e-05
2.375396825396825395e+00,1.073729648302573259e-05,1.762394028769318050e-05
2.376190476190476186e+00,3.037421134727402643e-05,4.720517884254980661e-06
2.376984126984126977e+00,4.729763497092448449e-05,-1.037944926223012813e-05
2.377777777777777768e+00,5.867821726648045127e-05,-2.561713427192726161e-05
2.378571428571428559e+00,6.268431381120434238e-05,-3.888645888297349667e-05
2.379365079365079350e+00,5.885327008269148886e-05,-4.840971472555065863e-05
2.380158730158730140e+00,4.815612926092566415e-05,-5.302915830278975081e-05
2.380952380952380931e+00,3.273583703975074843e-05,-5.236229470645732849e-05
2.381746031746031722e+00,1.538666026133135521e-05,-4.680411448539800344e-05
2.382539682539682513e+00,-1.094535039535327373e-06,-3.738950618021984066e-05
2.383333333333333304e+00,-1.453008498732546381e-05,-2.555292139997429878e-05
2.384126984126984095e+00,-2.381286573558436147e-05,-1.284030408370603097e-05
2.384920634920634885e+00,-2.908243218303385757e-05,-6.362968168350716154e-07
2.385714285714285676e+00,-3.158112118539478256e-05,1.003674446577630466e-05
2.386507936507936467e+00,-3.321831222497093392e-05,1.861206228580940134e-05
2.387301587301587258e+00,-3.594235961646352948e-05,2.495688179215159845e-05
2.388095238095238049e+00,-4.107276845202717909e-05,2.925651845023669316e-05
2.388888888888888840e+00,-4.876810258406653095e-05,3.184544052104291322e-05
2.389682539682539630e+00,-5.779004131544516565e-05,3.303653334141789144e-05
2.390476190476190421e+00,-6.566665374293990021e-05,3.299781035648209485e-05
2.391269841269841212e+00,-6.926228022461453798e-05,3.171117186289463147e-05
2.392063492063492003e+00,-6.564337315446515375e-05,2.902231156144219085e-05
2.392857142857142794e+00,-5.301789589564617967e-05,2.476100085988751140e-05
2.393650793650793585e+00,-3.146142033199793628e-05,1.888721837164878745e-05
2.394444444444444375e+00,-3.168930211785696604e-06,1.161018041462852272e-05
2.395238095238095166e+00,2.789617451580838858e-05,3.436899958329485789e-06
2.396031746031745957e+00,5.688173196080063192e-05,-4.869733500247177887e-06
2.396825396825396748e+00,7.918935092731273879e-05,-1.241402465079470782e-05
2.397619047619047539e+00,9.151964605891063620e-05,-1.833653704055755797e-05
2.398412698412698330e+00,9.250975041034524993e-05,-2.198094390204923730e-05
2.399206349206349120e+00,8.282454292849726369e-05,-2.301481871460677733e-05
2.399999999999999911e+00,6.477022696426670812e-05,-2.147877427283395807e-05
2.400793650793650702e+00,4.163993357542437662e-05,-1.776119974227931801e-05
2.401587301587301493e+00,1.702436248817958061e-05,-1.251433671083662223e-05
2.402380952380952284e+00,-5.752071805419823892e-06,-6.536962011634564679e-06
2.403174603174603075e+00,-2.401369075780597427e-05,-6.495482993019093960e-07
2.403968253968253865e+00,-3.595666912106681491e-05,4.417259331618407748e-06
2.404761904761904656e+00,-4.075994553814292053e-05,8.107020741281302406e-06
2.405555555555555447e+00,-3.861138095835974074e-05,1.008837651611712326e-05
2.406349206349206238e+00,-3.064177226481812078e-05,1.027343972787644403e-05
2.407142857142857029e+00,-1.874105096090865206e-05,8.809756615795078254e-06
2.407936507936507819e+00,-5.246522200667526904e-06,6.052041131537426365e-06
2.408730158730158610e+00,7.463290632268941516e-06,2.516028823588608889e-06
2.409523809523809401e+00,1.738910356090271465e-05,-1.186520968579937020e-06
2.410317460317460192e+00,2.324561687803609490e-05,-4.430850787305446537e-06
2.411111111111110983e+00,2.463032815531899521e-05,-6.671752033683420248e-06
2.411904761904761774e+00,2.199476692794122458e-05,-7.528004324583231080e-06
2.412698412698412564e+00,1.644093333594038605e-05,-6.837923335630144916e-06
2.413492063492063355e+00,9.407999609357764828e-06,-4.672660327445781518e-06
2.414285714285714146e+00,2.335541403758656357e-06,-1.308938171154886912e-06
2.415079365079364937e+00,-3.614646274506609580e-06,2.823452929017642827e-06
2.415873015873015728e+00,-7.724330737963599824e-06,7.199849429117560259e-06
2.416666666666666519e+00,-9.758813406730746534e-06,1.125141520619656910e-05
2.417460317460317309e+00,-9.902638300550230358e-06,1.440685213087058117e-05
2.418253968253968100e+00,-8.630601054997308254e-06,1.613348245491161908e-05
2.419047619047618891e+00,-6.554862990422523242e-06,1.598903125954811050e-05
2.419841269841269682e+00,-4.280754656495344446e-06,1.369005214422601936e-05
2.420634920634920473e+00,-2.293572753698638807e-06,9.191259009710234004e-06
2.421428571428571264e+00,-8.899913029029897987e-07,2.756457617654909026e-06
2.422222222222222054e+00,-1.604361462377728636e-07,-5.008222253728628656e-06
2.423015873015872845e+00,-2.086598660049063927e-08,-1.318855617258700915e-05
2.423809523809523636e+00,-2.827387154714093575e-07,-2.067982547797035138e-05
2.424603174603174427e+00,-7.404307653583118136e-07,-2.637647909498681665e-05
2.425396825396825218e+00,-1.250347834186690297e-06,-2.939232336426599656e-05
2.426190476190476009e+00,-1.778733879779192155e-06,-2.925219312366693743e-05
2.426984126984126799e+00,-2.405139494853077341e-06,-2.600116514581011698e-05
2.427777777777777590e+00,-3.281695151400332067e-06,-2.020183544884312401e-05
2.428571428571428381e+00,-4.560396017864027655e-06,-1.282175350532909517e-05
2.429365079365079172e+00,-6.308795313252513118e-06,-5.040158443552682816e-06
2.430158730158729963e+00,-8.437592843428325809e-06,1.980669798366937501e-06
2.430952380952380754e+00,-1.066127573105086099e-05,7.310584625120917727e-06
2.431746031746031544e+00,-1.250615516774669375e-05,1.041157949770474331e-05
2.432539682539682335e+00,-1.337125751402821470e-05,1.121458684773694110e-05
2.433333333333333126e+00,-1.263888228061135737e-05,1.010153161554660793e-05
2.434126984126983917e+00,-9.823645312817122835e-06,7.798795017838939346e-06
2.434920634920634708e+00,-4.740222684640489541e-06,5.205563555654818103e-06
2.435714285714285499e+00,2.340604689835866562e-06,3.194260974881460763e-06
2.436507936507936289e+00,1.058971918787092166e-05,2.426310435313183883e-06
2.437301587301587080e+00,1.861993660147240670e-05,3.222092192616828112e-06
2.438095238095238315e+00,2.462882713527175555e-05,5.509754326704086691e-06
2.438888888888889106e+00,2.669478124227236358e-05,8.858021188678277653e-06
2.439682539682539897e+00,2.319305908106181988e-05,1.257956594924918338e-05
2.440476190476190688e+00,1.325466836507427106e-05,1.587848531012240046e-05
2.441269841269841478e+00,-2.839136706209102801e-06,1.800957306062168112e-05
2.442063492063492269e+00,-2.344268579853875316e-05,1.841800517312998622e-05
2.442857142857143060e+00,-4.561191189302201792e-05,1.683459786718332729e-05
2.443650793650793851e+00,-6.550542017638897956e-05,1.331287674369633061e-05
2.444444444444444642e+00,-7.909846263830768917e-05,8.207988010656794788e-06
2.445238095238095433e+00,-8.308637201613424425e-05,2.109984671770512945e-06
2.446031746031746223e+00,-7.575738221902586576e-05,-4.249923741119630063e-06
2.446825396825397014e+00,-5.756932743737594357e-05,-1.010384393656488274e-05
2.447619047619047805e+00,-3.120947909412792116e-05,-1.475253697597157196e-05
2.448412698412698596e+00,-1.054447942564307400e-06,-1.766527146505980330e-05
2.449206349206349387e+00,2.786209103326484475e-05,-1.856437065241019977e-05
2.450000000000000178e+00,5.108826732672586271e-05,-1.747702345859192683e-05
2.450793650793650968e+00,6.582092587241386973e-05,-1.473360874192677104e-05
2.451587301587301759e+00,7.146447846626597549e-05,-1.090043842089123440e-05
2.452380952380952550e+00,6.951904016650533127e-05,-6.655160937930184798e-06
2.453174603174603341e+00,6.287107263993210271e-05,-2.635744988560863453e-06
2.453968253968254132e+00,5.476089693335707868e-05,6.929349951707441197e-07
2.454761904761904923e+00,4.779178818758556913e-05,3.114587844130737160e-06
2.455555555555555713e+00,4.329732478270109506e-05,4.658557981593929869e-06
2.456349206349206504e+00,4.122259400513440634e-05,5.525659908672737422e-06
2.457142857142857295e+00,4.047021743563283005e-05,5.973690278190668566e-06
2.457936507936508086e+00,3.950161222852765369e-05,6.203952544898583405e-06
2.458730158730158877e+00,3.693203674284200949e-05,6.285784009864478371e-06
2.459523809523809668e+00,3.192131896707121549e-05,6.141815958473044903e-06
2.460317460317460458e+00,2.428870384105119543e-05,5.598449630305278597e-06
2.461111111111111249e+00,1.439839361696284586e-05,4.487375642307417015e-06
2.461904761904762040e+00,2.926818041895418632e-06,2.767369162868679418e-06
2.462698412698412831e+00,-9.370925166675625194e-06,6.247337636622159713e-07
2.463492063492063622e+00,-2.181023910970933364e-05,-1.489896224145676519e-06
2.464285714285714413e+00,-3.380550566270482262e-05,-2.918228741451356579e-06
2.465079365079365203e+00,-4.479187558622289573e-05,-2.948987798028132556e-06
2.465873015873015994e+00,-5.409632768079622575e-05,-1.041402496098325751e-06
2.466666666666666785e+00,-6.083928742650627277e-05,2.944078507651297576e-06
2.467460317460317576e+00,-6.394826940858228071e-05,8.586760866049751137e-06
2.468253968253968367e+00,-6.233393152641413882e-05,1.488797686323409878e-05
2.469047619047619158e+00,-5.521856805817567222e-05,2.042717557780090743e-05
2.469841269841269948e+00,-4.253298407267208322e-05,2.367091578304270316e-05
2.470634920634920739e+00,-2.523905907320617246e-05,2.336204231927096922e-05
2.471428571428571530e+00,-5.423839461796844079e-06,1.888287471131653488e-05
2.472222222222222321e+00,1.393650481279870843e-05,1.048278116391742328e-05
2.473015873015873112e+00,2.953728447584838714e-05,-7.083435914919223302e-07
2.473809523809523903e+00,3.849884270807250950e-05,-1.289895465435338100e-05
2.474603174603174693e+00,3.909140298198892656e-05,-2.403358023211295865e-05
2.475396825396825484e+00,3.120522034277676323e-05,-3.225842883463252646e-05
2.476190476190476275e+00,1.642892046198880080e-05,-3.632410301476817014e-05
2.476984126984127066e+00,-2.267445358443891521e-06,-3.582037843058892085e-05
2.477777777777777857e+00,-2.113839514600794167e-05,-3.119686104609626422e-05
2.478571428571428648e+00,-3.640376798090124116e-05,-2.358981145496483417e-05
2.479365079365079438e+00,-4.497537137549067153e-05,-1.452432211812817301e-05
2.480158730158730229e+00,-4.504910212817353466e-05,-5.578763303619795427e-06
2.480952380952381020e+00,-3.646929420759447717e-05,1.912734526711753748e-06
2.481746031746031811e+00,-2.079407294689376249e-05,7.070641278676386865e-06
2.482539682539682602e+00,-1.022225224701225492e-06,9.571883616376411768e-06
2.483333333333333393e+00,1.899903333795316515e-05,9.642914301535388064e-06
2.484126984126984183e+00,3.538182620237142285e-05,7.957565938753165339e-06
2.484920634920634974e+00,4.503796413056241027e-05,5.463011096250630755e-06
2.485714285714285765e+00,4.633780681836466840e-05,3.165372898747129175e-06
2.486507936507936556e+00,3.941721783643007256e-05,1.913081621326945062e-06
2.487301587301587347e+00,2.606714840921081337e-05,2.218307841026834394e-06
2.488095238095238138e+00,9.259101621966417004e-06,4.151660983298542711e-06
2.488888888888888928e+00,-7.556465369166334020e-06,7.332009969823603500e-06
2.489682539682539719e+00,-2.121193927932324218e-05,1.101434445490814409e-05
2.490476190476190510e+00,-2.948907338798794915e-05,1.425849476727112351e-05
2.491269841269841301e+00,-3.156416828682598720e-05,1.614415325956245053e-05
2.492063492063492092e+00,-2.814182705043806018e-05,1.598596715878549304e-05
2.492857142857142883e+00,-2.123475701660215858e-05,1.349970605667079551e-05
2.493650793650793673e+00,-1.361488069815107843e-05,8.879260498484622610e-06
2.494444444444444464e+00,-8.045808107070678952e-06,2.763957249799086603e-06
2.495238095238095255e+00,-6.486704453498740659e-06,-3.897807992779484990e-06
2.496031746031746046e+00,-9.496398688501236557e-06,-1.005557774724008024e-05
2.496825396825396837e+00,-1.603131456246901509e-05,-1.478161109185423756e-05
2.497619047619047628e+00,-2.371979448729379201e-05,-1.745593742911716854e-05
2.498412698412698418e+00,-2.954806372580639619e-05,-1.786813533597069047e-05
2.499206349206349209e+00,-3.076370163651902993e-05,-1.621936779714650711e-05
2.500000000000000000e+00,-2.572795692845369247e-05,-1.303681209522731293e-05
2.500793650793650791e+00,-1.444712925009933085e-05,-9.032388496062088257e-06
2.501587301587301582e+00,1.402717345450531379e-06,-4.944571334114514242e-06
2.502380952380952372e+00,1.898234743591256169e-05,-1.398070234704403213e-06
2.503174603174603163e+00,3.516283941934140236e-05,1.194093806684501416e-06
2.503968253968253954e+00,4.746202571326779219e-05,2.674168218234514059e-06
2.504761904761904745e+00,5.471321709759885269e-05,3.129273033773153628e-06
2.505555555555555536e+00,5.723709751341031141e-05,2.837198099862392309e-06
2.506349206349206327e+00,5.647988002521692950e-05,2.184068320425705461e-06
2.507142857142857117e+00,5.428723017684174265e-05,1.571100709827168976e-06
2.507936507936507908e+00,5.211633693512410904e-05,1.327377261193190198e-06
2.508730158730158699e+00,5.048934561677225250e-05,1.644476170695596422e-06
2.509523809523809490e+00,4.886680394060487952e-05,2.545628154309170082e-06
2.510317460317460281e+00,4.593910865749166353e-05,3.895170586011192924e-06
2.511111111111111072e+00,4.018398566985323720e-05,5.444225365442343377e-06
2.511904761904761862e+00,3.047404781652006105e-05,6.899093107773300662e-06
2.512698412698412653e+00,1.654455216202066153e-05,7.993519235669882992e-06
2.513492063492063444e+00,-7.886622762564981136e-07,8.546348707421677984e-06
2.514285714285714235e+00,-1.968525697791653488e-05,8.491306831294750761e-06
2.515079365079365026e+00,-3.757342912273294743e-05,7.873843281181955051e-06
2.515873015873015817e+00,-5.161053839979348013e-05,6.819322162344958199e-06
2.516666666666666607e+00,-5.922819023648557055e-05,5.485298831188477025e-06
2.517460317460317398e+00,-5.867143951142071473e-05,4.015461937947708978e-06
2.518253968253968189e+00,-4.943526660074397356e-05,2.511562624409521968e-06
2.519047619047618980e+00,-3.250032090041907499e-05,1.032295134989997686e-06
2.519841269841269771e+00,-1.028787481409670036e-05,-3.822443270701223503e-07
2.520634920634920562e+00,1.369652498638394380e-05,-1.671192288272001509e-06
2.521428571428571352e+00,3.548187489763522960e-05,-2.714898993799913872e-06
2.522222222222222143e+00,5.137965621857334703e-05,-3.315079919447920267e-06
2.523015873015872934e+00,5.868030018214011155e-05,-3.205309108005953841e-06
2.523809523809523725e+00,5.613934756937417994e-05,-2.095531677847364263e-06
2.524603174603174516e+00,4.417370039664548527e-05,2.554269254049195153e-07
2.525396825396825307e+00,2.477484122528053932e-05,3.953939761409110224e-06
2.526190476190476097e+00,1.194785605321830127e-06,8.892765798070021281e-06
2.526984126984126888e+00,-2.253324429830326242e-05,1.470171296596820918e-05
2.527777777777777679e+00,-4.218676642363377178e-05,2.074655695960872696e-05
2.528571428571428470e+00,-5.400349476274823841e-05,2.618624097470585699e-05
2.529365079365079261e+00,-5.531407431279238273e-05,3.008667219710484247e-05
2.530158730158730052e+00,-4.506371500575645750e-05,3.157724251151152275e-05
2.530952380952380842e+00,-2.412581215657712500e-05,3.002512524290793777e-05
2.531746031746031633e+00,4.666718662266780516e-06,2.519399172138257051e-05
2.532539682539682424e+00,3.680455555471157065e-05,1.735039383362865759e-05
2.533333333333333215e+00,6.668349727368837101e-05,7.285004105546696756e-06
2.534126984126984006e+00,8.842602230024839587e-05,-3.771477315401387521e-06
2.534920634920634797e+00,9.684971951224720745e-05,-1.433649606484466633e-05
2.535714285714285587e+00,8.845476821037278703e-05,-2.293873367083115259e-05
2.536507936507936378e+00,6.226609358772908166e-05,-2.840028688525296933e-05
2.537301587301587169e+00,2.034312843099822250e-05,-3.006898323238476955e-05
2.538095238095237960e+00,-3.221280442749186547e-05,-2.794135791017855099e-05
2.538888888888888751e+00,-8.785093145637029404e-05,-2.264656973110463624e-05
2.539682539682539542e+00,-1.377395821148742381e-04,-1.529895494305640488e-05
2.540476190476190332e+00,-1.733441663504718623e-04,-7.258667249645935203e-06
2.541269841269841123e+00,-1.881204826726939493e-04,1.406535882547778998e-07
2.542063492063491914e+00,-1.789566878611272688e-04,5.832190693201978236e-06
2.542857142857142705e+00,-1.470110614317648458e-04,9.168124724873435652e-06
2.543650793650793496e+00,-9.770268636160803211e-05,9.953395992659069702e-06
2.544444444444444287e+00,-3.979653074223210140e-05,8.369106079626688100e-06
2.545238095238095077e+00,1.626177534174826902e-05,4.829651405227095793e-06
2.546031746031745868e+00,6.041531008920609283e-05,-1.660191194286889142e-07
2.546825396825396659e+00,8.501062760249585275e-05,-6.139165654453719709e-06
2.547619047619047450e+00,8.630990988557704234e-05,-1.267103400408127493e-05
2.548412698412698241e+00,6.518555282840897988e-05,-1.938699642843430451e-05
2.549206349206349032e+00,2.687949163250074642e-05,-2.591334759253782907e-05
2.549999999999999822e+00,-2.009824517428053549e-05,-3.183940897332480143e-05
2.550793650793650613e+00,-6.570245850831989609e-05,-3.671077711589965846e-05
2.551587301587301404e+00,-1.003731791973216231e-04,-4.006634213302506185e-05
2.552380952380952195e+00,-1.169342114787906448e-04,-4.151629837157204476e-05
2.553174603174602986e+00,-1.119698353182508601e-04,-4.084349286841783999e-05
2.553968253968253777e+00,-8.638232023596720689e-05,-3.809711502155692673e-05
2.554761904761904567e+00,-4.501691488372194647e-05,-3.363886675752450348e-05
2.555555555555555358e+00,4.539110574735872482e-06,-2.810552881400214237e-05
2.556349206349206149e+00,5.368312908684056252e-05,-2.227565640158804812e-05
2.557142857142856940e+00,9.463651073116583488e-05,-1.686759284661647372e-05
2.557936507936507731e+00,1.219797091319428151e-04,-1.233303497803099034e-05
2.558730158730158522e+00,1.335649487180096400e-04,-8.724117403971459294e-06
2.559523809523809312e+00,1.306553064008996086e-04,-5.691944716264374740e-06
2.560317460317460103e+00,1.173242819603070755e-04,-2.627044449539212905e-06
2.561111111111110894e+00,9.930496057952309266e-05,1.102561164337397557e-06
2.561904761904761685e+00,8.257030890161494376e-05,5.898272411964763650e-06
2.562698412698412920e+00,7.194842054560458919e-05,1.175124023734769304e-05
2.563492063492063711e+00,7.004155721931088342e-05,1.819667922385576194e-05
2.564285714285714501e+00,7.664629613858745904e-05,2.441437283927038628e-05
2.565079365079365292e+00,8.877970055218020208e-05,2.943872899281132545e-05
2.565873015873016083e+00,1.013098286097457881e-04,3.241006958586134783e-05
2.566666666666666874e+00,1.080748386442679588e-04,3.279325045844470372e-05
2.567460317460317665e+00,1.032717163307270836e-04,3.050791000834240083e-05
2.568253968253968456e+00,8.283016828013288881e-05,2.594538831981218463e-05
2.569047619047619246e+00,4.548102532146408285e-05,1.987786209789321818e-05
2.569841269841270037e+00,-6.712538768595832327e-06,1.328847466283099661e-05
2.570634920634920828e+00,-6.848111970307275487e-05,7.166264660793009634e-06
2.571428571428571619e+00,-1.321167223620495917e-04,2.316288323770657100e-06
2.572222222222222410e+00,-1.887390206290257195e-04,-7.691944711343894402e-07
2.573015873015873201e+00,-2.298244169486382950e-04,-1.950114678952386335e-06
2.573809523809523991e+00,-2.487158006673718599e-04,-1.386955270509960812e-06
2.574603174603174782e+00,-2.418333733543253478e-04,5.762678286834091249e-07
2.575396825396825573e+00,-2.093542129964468164e-04,3.549722393030820032e-06
2.576190476190476364e+00,-1.552164924953728655e-04,7.206841789496174162e-06
2.576984126984127155e+00,-8.643181977157604720e-05,1.132792723796455963e-05
2.577777777777777946e+00,-1.184321717048331931e-05,1.576784692785017768e-05
2.578571428571428736e+00,5.939499767275167115e-05,2.036768749136006468e-05
2.579365079365079527e+00,1.192751319654570614e-04,2.485267414674430659e-05
2.580158730158730318e+00,1.620354316501807575e-04,2.876634561108021290e-05
2.580952380952381109e+00,1.847316749310382131e-04,3.148196731921113991e-05
2.581746031746031900e+00,1.872578555223620457e-04,3.230722863950895145e-05
2.582539682539682691e+00,1.719032221010367780e-04,3.066227900996819074e-05
2.583333333333333481e+00,1.425985864002308015e-04,2.627662853031608481e-05
2.584126984126984272e+00,1.040442197581438607e-04,1.933431766439262881e-05
2.584920634920635063e+00,6.092746520715156336e-05,1.050945290356618125e-05
2.585714285714285854e+00,1.740485832069527811e-05,8.711308862824060029e-07
2.586507936507936645e+00,-2.307757244423860697e-05,-8.318931718154333802e-06
2.587301587301587436e+00,-5.769561217691158918e-05,-1.585953587004319893e-05
2.588095238095238226e+00,-8.407861907561176853e-05,-2.084571848740088629e-05
2.588888888888889017e+00,-1.002765350356811785e-04,-2.282855875626585415e-05
2.589682539682539808e+00,-1.049835904140434823e-04,-2.186483498526148799e-05
2.590476190476190599e+00,-9.796643973217027644e-05,-1.845313450025454587e-05
2.591269841269841390e+00,-8.048171232386650844e-05,-1.338279730064281156e-05
2.592063492063492181e+00,-5.541032299414048014e-05,-7.542867701118326124e-06
2.592857142857142971e+00,-2.692154500867968155e-05,-1.743880112156472825e-06
2.593650793650793762e+00,3.288632836571739456e-07,3.405244812571935654e-06
2.594444444444444553e+00,2.225059983860172425e-05,7.545152637572216726e-06
2.595238095238095344e+00,3.626867275148060784e-05,1.054443662133748839e-05
2.596031746031746135e+00,4.183226493263969152e-05,1.243342116765294092e-05
2.596825396825396925e+00,4.031758714594486047e-05,1.332484536637149374e-05
2.597619047619047716e+00,3.441368056264041970e-05,1.334718793323498138e-05
2.598412698412698507e+00,2.727793288440704552e-05,1.260490245659228421e-05
2.599206349206349298e+00,2.178791289860791745e-05,1.116899243172958197e-05
2.600000000000000089e+00,2.009730048794678846e-05,9.093425213220649461e-06
2.600793650793650880e+00,2.351379720849868822e-05,6.447546151169961304e-06
2.601587301587301670e+00,3.256306308277707280e-05,3.351652291858841723e-06
2.602380952380952461e+00,4.705112671261709096e-05,2.659137748621266199e-09
2.603174603174603252e+00,6.599763882970872172e-05,-3.320221944668994218e-06
2.603968253968254043e+00,8.744859828542698543e-05,-6.274161274745911530e-06
2.604761904761904834e+00,1.083220423524554159e-04,-8.493373232597341356e-06
2.605555555555555625e+00,1.245104480089841441e-04,-9.643829994596679717e-06
2.606349206349206415e+00,1.314027265768704733e-04,-9.481321975319870933e-06
2.607142857142857206e+00,1.248109807189011283e-04,-7.902767909874812573e-06
2.607936507936507997e+00,1.020768039713927319e-04,-4.983982186376213515e-06
2.608730158730158788e+00,6.299585636962584960e-05,-1.000954677177007703e-06
2.609523809523809579e+00,1.021210630720549033e-05,3.566925594530666125e-06
2.610317460317460370e+00,-5.110088199540080222e-05,8.056134764331484801e-06
2.611111111111111160e+00,-1.142044335907471480e-04,1.167005716777033965e-05
2.611904761904761951e+00,-1.721129426637902423e-04,1.357166879258982662e-05
2.612698412698412742e+00,-2.188664478421666862e-04,1.301877339744336387e-05
2.613492063492063533e+00,-2.504046741593109735e-04,9.525661434318394378e-06
2.614285714285714324e+00,-2.648602985347195773e-04,3.017292960249085899e-06
2.615079365079365115e+00,-2.623093456345186310e-04,-6.068397040351472569e-06
2.615873015873015905e+00,-2.441974353719177505e-04,-1.677218986241476236e-05
2.616666666666666696e+00,-2.127320084300203897e-04,-2.772379754577405713e-05
2.617460317460317487e+00,-1.704718028140816803e-04,-3.736428418374964933e-05
2.618253968253968278e+00,-1.201961275735044396e-04,-4.423856977268130533e-05
2.619047619047619069e+00,-6.497487113815192167e-05,-4.728820339028052763e-05
2.619841269841269860e+00,-8.258309915852839205e-06,-4.606801898866362142e-05
2.620634920634920650e+00,4.619295358760867789e-05,-4.083046694820494956e-05
2.621428571428571441e+00,9.461429317501201695e-05,-3.246096933647613531e-05
2.622222222222222232e+00,1.337087501366796482e-04,-2.228905935583304316e-05
2.623015873015873023e+00,1.611135788834982391e-04,-1.182709609360066064e-05
2.623809523809523814e+00,1.756968029935250866e-04,-2.495660434174352766e-06
2.624603174603174605e+00,1.776088674888533724e-04,4.612511927795177646e-06
2.625396825396825395e+00,1.681177912695836451e-04,8.892003618590072742e-06
2.626190476190476186e+00,1.493174568772562901e-04,1.028531248394087582e-05
2.626984126984126977e+00,1.238059865230841685e-04,9.239069007585814865e-06
2.627777777777777768e+00,9.439942994935399416e-05,6.567457173937243421e-06
2.628571428571428559e+00,6.389789658041922975e-05,3.250244859398043668e-06
2.629365079365079350e+00,3.488297710755411759e-05,2.062462947697047291e-07
2.630158730158730140e+00,9.518832723631604135e-06,-1.907528263517272943e-06
2.630952380952380931e+00,-1.064321206808024045e-05,-2.819983131411459389e-06
2.631746031746031722e+00,-2.481832534847712782e-05,-2.656289171928908510e-06
2.632539682539682513e+00,-3.304418167438155673e-05,-1.827675032566404311e-06
2.633333333333333304e+00,-3.610198984073585785e-05,-8.325140477141031942e-07
2.634126984126984095e+00,-3.530784051947260486e-05,-3.348791391723584911e-08
2.634920634920634885e+00,-3.221960710430534283e-05,5.109908163591026823e-07
2.635714285714285676e+00,-2.832372350762321742e-05,1.096329031364981788e-06
2.636507936507936467e+00,-2.476525796358467122e-05,2.275281606307328149e-06
2.637301587301587258e+00,-2.217331602112628281e-05,4.638772748977838752e-06
2.638095238095238049e+00,-2.061610138582238610e-05,8.543005155033119358e-06
2.638888888888888840e+00,-1.969394937966173782e-05,1.387624826995599769e-05
2.639682539682539630e+00,-1.874517763836125626e-05,1.995157464282296941e-05
2.640476190476190421e+00,-1.710740942785176732e-05,2.557450232569417268e-05
2.641269841269841212e+00,-1.435897231964845469e-05,2.928078944242942761e-05
2.642063492063492003e+00,-1.047064827896366109e-05,2.968891687266746434e-05
2.642857142857142794e+00,-5.828131127430516448e-06,2.587907316929857285e-05
2.643650793650793585e+00,-1.129704800812980746e-06,1.770140938731615664e-05
2.644444444444444375e+00,2.796711546501641714e-06,5.929030035547631478e-06
2.645238095238095166e+00,5.195736538479341296e-06,-7.798932002011577913e-06
2.646031746031745957e+00,5.554731451442687582e-06,-2.125422346861152194e-05
2.646825396825396748e+00,3.716162056586077017e-06,-3.206935320482873453e-05
2.647619047619047539e+00,-7.339414089392922442e-08,-3.825531090037959743e-05
2.648412698412698330e+00,-5.177255861570199121e-06,-3.864736381616589177e-05
2.649206349206349120e+00,-1.064594853757286045e-05,-3.315192491852832424e-05
2.649999999999999911e+00,-1.535243963691122445e-05,-2.272952936117551869e-05
2.650793650793650702e+00,-1.816655365076304799e-05,-9.134534256944005644e-06
2.651587301587301493e+00,-1.813775254947444003e-05,5.495726952893678310e-06
2.652380952380952284e+00,-1.465191727359500733e-05,1.907682804519957877e-05
2.653174603174603075e+00,-7.533286454960389390e-06,2.992397259083865750e-05
2.653968253968253865e+00,2.925048862733386065e-06,3.693904956558629503e-05
2.654761904761904656e+00,1.600291129731829415e-05,3.962520610765803440e-05
2.655555555555555447e+00,3.065322711997591545e-05,3.796982273240007242e-05
2.656349206349206238e+00,4.563777581476389589e-05,3.227235708059772798e-05
2.657142857142857029e+00,5.967291550901049417e-05,2.300202665181694418e-05
2.657936507936507819e+00,7.155914787072793423e-05,1.074890944948446175e-05
2.658730158730158610e+00,8.026720075516903541e-05,-3.713824214465911193e-06
2.659523809523809401e+00,8.495928333595453592e-05,-1.929416208998902942e-05
2.660317460317460192e+00,8.495055242462075536e-05,-3.445357168410040572e-05
2.661111111111110983e+00,7.965864781858270148e-05,-4.718388390992136328e-05
2.661904761904761774e+00,6.861827017452017943e-05,-5.516388879596458819e-05
2.662698412698412564e+00,5.162199230494869955e-05,-5.611795193047927188e-05
2.663492063492063355e+00,2.898596337822991682e-05,-4.832924709568010304e-05
2.664285714285714146e+00,1.859338001746634158e-06,-3.119494322917095678e-05
2.665079365079364937e+00,-2.756031178664558097e-05,-5.670747782010141189e-06
2.665873015873015728e+00,-5.604513712853871784e-05,2.554980907652696550e-05
2.666666666666666519e+00,-7.966591405775462031e-05,5.823520644426419750e-05
2.667460317460317309e+00,-9.440217489850126216e-05,8.722445691629076333e-05
2.668253968253968100e+00,-9.689733214018382296e-05,1.073577996119541057e-04
2.669047619047618891e+00,-8.516561623436339845e-05,1.145316679137356767e-04
2.669841269841269682e+00,-5.907771036175068124e-05,1.066231466000747027e-04
2.670634920634920473e+00,-2.053479651152553232e-05,8.405375360020590954e-05
2.671428571428571264e+00,2.666256801313893142e-05,4.985179722766679741e-05
2.672222222222222054e+00,7.718455114158169830e-05,9.185392561042713102e-06
2.673015873015872845e+00,1.247100500835890673e-04,-3.155681549437711227e-05
2.673809523809523636e+00,1.625894848997376432e-04,-6.597239961060542748e-05
2.674603174603174427e+00,1.846129105523365880e-04,-8.890634661277486452e-05
2.675396825396825218e+00,1.858594678889269813e-04,-9.749713490554653722e-05
2.676190476190476009e+00,1.635657990088460487e-04,-9.175521054487945527e-05
2.676984126984126799e+00,1.178836503197478911e-04,-7.450950471255744735e-05
2.677777777777777590e+00,5.232297232758225086e-05,-5.071029704027001285e-05
2.678571428571428381e+00,-2.635191468455568958e-05,-2.625302175802846834e-05
2.679365079365079172e+00,-1.089293189894654167e-04,-6.624419620615264477e-06
2.680158730158729963e+00,-1.852223505840047755e-04,4.283431188518825034e-06
2.680952380952380754e+00,-2.459226337287346719e-04,4.908691771583953847e-06
2.681746031746031544e+00,-2.843692136891035494e-04,-3.836387256153718437e-06
2.682539682539682335e+00,-2.977417370716920050e-04,-1.898926021572335578e-05
2.683333333333333126e+00,-2.873476771900010406e-04,-3.636778276169562305e-05
2.684126984126983917e+00,-2.579612757365060214e-04,-5.157273038510627771e-05
2.684920634920634708e+00,-2.164635171862050401e-04,-6.092273538816576472e-05
2.685714285714285499e+00,-1.702056289187226705e-04,-6.213341555008554894e-05
2.686507936507936289e+00,-1.255256990757635334e-04,-5.463349800138778470e-05
2.687301587301587080e+00,-8.672771103954850008e-05,-3.949785169964867846e-05
2.688095238095238315e+00,-5.566017657798109745e-05,-1.905546326641415535e-05
2.688888888888889106e+00,-3.187235866897151923e-05,3.709045660968252695e-06
2.689682539682539897e+00,-1.321591812535469543e-05,2.580691993880554220e-05
2.690476190476190688e+00,3.296538223200133520e-06,4.479703467002496000e-05
2.691269841269841478e+00,2.058153981681022494e-05,5.912605181381721658e-05
2.692063492063492269e+00,4.071542240757267762e-05,6.821546838172694120e-05
2.692857142857143060e+00,6.444957590784187486e-05,7.232771489745011724e-05
2.693650793650793851e+00,9.107554727046298780e-05,7.229355859970085837e-05
2.694444444444444642e+00,1.186191162863028633e-04,6.919793109490382293e-05
2.695238095238095433e+00,1.442774227045248399e-04,6.410652223935134515e-05
2.696031746031746223e+00,1.649837037870493118e-04,5.788456075314739048e-05
2.696825396825397014e+00,1.779858440404818727e-04,5.112473795835296807e-05
2.697619047619047805e+00,1.813427663303379179e-04,4.417154145734293190e-05
2.698412698412698596e+00,1.742637992520388961e-04,3.720839564673756060e-05
2.699206349206349387e+00,1.572390278916736611e-04,3.036371433306560326e-05
2.700000000000000178e+00,1.319406553390447634e-04,2.379372430247259017e-05
2.700793650793650968e+00,1.009199826150940558e-04,1.771378921760886918e-05
2.701587301587301759e+00,6.717248570552292034e-05,1.237205652122042405e-05
2.702380952380952550e+00,3.367674078967041075e-05,7.982316417010557787e-06
2.703174603174603341e+00,3.014068170871638852e-06,4.649353572669198002e-06
2.703968253968254132e+00,-2.286382486470027087e-05,2.323350065167423771e-06
2.704761904761904923e+00,-4.271878687287328994e-05,8.067785977282461268e-07
2.705555555555555713e+00,-5.601623234757428630e-05,-1.881896139079754776e-07
2.706349206349206504e+00,-6.288194960368725180e-05,-9.590036444500852847e-07
2.707142857142857295e+00,-6.404622854603653692e-05,-1.747263697337348349e-06
2.707936507936508086e+00,-6.074535585687286098e-05,-2.718014034634492415e-06
2.708730158730158877e+00,-5.452557473261718761e-05,-3.988887690767419544e-06
2.709523809523809668e+00,-4.691393450672478015e-05,-5.685873469046944534e-06
2.710317460317460458e+00,-3.898607018491533641e-05,-7.983464810779070331e-06
2.711111111111111249e+00,-3.095107841710955266e-05,-1.108823528490269876e-05
2.711904761904762040e+00,-2.193842196572252487e-05,-1.515084783342416280e-05
2.712698412698412831e+00,-1.015439613705863288e-05,-2.013315780898934808e-05
2.713492063492063622e+00,6.543423276917660298e-06,-2.569167839340706443e-05
2.714285714285714413e+00,2.977701415015730627e-05,-3.114365971846120548e-05
2.715079365079365203e+00,5.974153657257643280e-05,-3.555263099351746767e-05
2.715873015873015994e+00,9.455737583005510217e-05,-3.792284977269561079e-05
2.716666666666666785e+00,1.301214764245455901e-04,-3.745116514144864318e-05
2.717460317460317576e+00,1.605801406602779240e-04,-3.376657345026679296e-05
2.718253968253968367e+00,1.793871736257220985e-04,-2.709294930284828883e-05
2.719047619047619158e+00,1.807426349968213857e-04,-1.828966548121411471e-05
2.719841269841269948e+00,1.610711071168829261e-04,-8.749457351989720541e-06
2.720634920634920739e+00,1.201412247338751323e-04,-1.597873972415582167e-07
2.721428571428571530e+00,6.148638768345470254e-05,5.838129371609264004e-06
2.722222222222222321e+00,-8.036192438927330949e-06,8.032448540199665845e-06
2.723015873015873112e+00,-7.946201879439628881e-05,5.985666830988757109e-06
2.723809523809523903e+00,-1.433945596826463956e-04,2.516842226814582855e-07
2.724603174603174693e+00,-1.917014569090849890e-04,-7.616885309963615854e-06
2.725396825396825484e+00,-2.188266290256738421e-04,-1.532014716028125734e-05
2.726190476190476275e+00,-2.224716200261914320e-04,-2.031005671600735209e-05
2.726984126984127066e+00,-2.036050801385622490e-04,-2.044920394510120777e-05
2.727777777777777857e+00,-1.659314665816921403e-04,-1.467116979471417810e-05
2.728571428571428648e+00,-1.150437148870648858e-04,-3.450974985207805844e-06
2.729365079365079438e+00,-5.749403477710203091e-05,1.108071605501404546e-05
2.730158730158730229e+00,3.926775195046244771e-08,2.546056196621397419e-05
2.730952380952381020e+00,5.140287553859872736e-05,3.561160063717115252e-05
2.731746031746031811e+00,9.144330577434551231e-05,3.780003144535764041e-05
2.732539682539682602e+00,1.163690400069961392e-04,2.959721629450996313e-05
2.733333333333333393e+00,1.240648130422774208e-04,1.060168619359308047e-05
2.734126984126984183e+00,1.143700404384472729e-04,-1.727582750778792591e-05
2.734920634920634974e+00,8.925628858797991609e-05,-5.006156504638589538e-05
2.735714285714285765e+00,5.278275691094919814e-05,-8.246582796910932069e-05
2.736507936507936556e+00,1.070965727310083466e-05,-1.089568880586255567e-04
2.737301587301587347e+00,-3.028367268020394631e-05,-1.248990100841064130e-04
2.738095238095238138e+00,-6.371194316304031686e-05,-1.274796752718176875e-04
2.738888888888888928e+00,-8.453111305473379525e-05,-1.162202207690792824e-04
2.739682539682539719e+00,-9.022146939855320508e-05,-9.297946206049912071e-05
2.740476190476190510e+00,-8.139048382786581097e-05,-6.147835737122757784e-05
2.741269841269841301e+00,-6.167136587498887467e-05,-2.647214470936227394e-05
2.742063492063492092e+00,-3.687827291396211516e-05,7.233221240723690993e-06
2.742857142857142883e+00,-1.359867315492103880e-05,3.569313967103781589e-05
2.743650793650793673e+00,2.418387302545112605e-06,5.646331750480364903e-05
2.744444444444444464e+00,7.645014555506995843e-06,6.884506882678991186e-05
2.745238095238095255e+00,1.553146557293476388e-06,7.372615113207026984e-05
2.746031746031746046e+00,-1.340963227650003159e-05,7.310612935207298562e-05
2.746825396825396837e+00,-3.260777408116740511e-05,6.945792350372052663e-05
2.747619047619047628e+00,-5.051201398147573351e-05,6.509479537507688730e-05
2.748412698412698418e+00,-6.212089791808399729e-05,6.168751879503647903e-05
2.749206349206349209e+00,-6.413528367532118392e-05,6.001788559198765994e-05
2.750000000000000000e+00,-5.562340639199485722e-05,5.997983531798227415e-05
2.750793650793650791e+00,-3.807801293668190793e-05,6.077570268860164188e-05
2.751587301587301582e+00,-1.492385207182638636e-05,6.122377213363115506e-05
2.752380952380952372e+00,9.355667840727858241e-06,6.009502344949200884e-05
2.753174603174603163e+00,3.025156567648220715e-05,5.641509185096424064e-05
2.753968253968253954e+00,4.419964359697081712e-05,4.968604639029289120e-05
2.754761904761904745e+00,4.930007653464623426e-05,3.999813158449079986e-05
2.755555555555555536e+00,4.565435332580774618e-05,2.801928944785674240e-05
2.756349206349206327e+00,3.525738262710610395e-05,1.487218055847601693e-05
2.757142857142857117e+00,2.146340304682985641e-05,1.929144562388746572e-06
2.757936507936507908e+00,8.132723491336499779e-06,-9.431513458201520723e-06
2.758730158730158699e+00,-1.351449659656550830e-06,-1.806098167769886050e-05
2.759523809523809490e+00,-4.955258282447914290e-06,-2.322448454328530324e-05
2.760317460317460281e+00,-2.517371029884005164e-06,-2.470365933703563943e-05
2.761111111111111072e+00,4.247454354209195755e-06,-2.280348667759180342e-05
2.761904761904761862e+00,1.230762220699292505e-05,-1.827118216017838191e-05
2.762698412698412653e+00,1.831544107694208057e-05,-1.215125766995909932e-05
2.763492063492063444e+00,1.977096577313057133e-05,-5.608888482941841483e-06
2.764285714285714235e+00,1.597937520977879176e-05,2.472777027305567089e-07
2.765079365079365026e+00,8.454703907489062009e-06,4.517687301518874126e-06
2.765873015873015817e+00,5.728956350551159009e-07,6.621539476720712056e-06
2.766666666666666607e+00,-3.475861493949722153e-06,6.351919141261886485e-06
2.767460317460317398e+00,-1.207960382864584669e-07,3.872154049292552929e-06
2.768253968253968189e+00,1.225706125659357442e-05,-3.420053657771637916e-07
2.769047619047618980e+00,3.257096470213310659e-05,-5.600389856870997452e-06
2.769841269841269771e+00,5.712747298790433998e-05,-1.111589169668840750e-05
2.770634920634920562e+00,8.054501377914848547e-05,-1.612051388040756136e-05
2.771428571428571352e+00,9.718024585978375922e-05,-1.996560711824029360e-05
2.772222222222222143e+00,1.026074526518414942e-04,-2.219977086625948560e-05
2.773015873015872934e+00,9.472303852407289615e-05,-2.262057924195788952e-05
2.773809523809523725e+00,7.420810480722456323e-05,-2.129333770272309645e-05
2.774603174603174516e+00,4.429725023192393317e-05,-1.852837301173437752e-05
2.775396825396825307e+00,9.988733539295264227e-06,-1.481494203357921609e-05
2.776190476190476097e+00,-2.305838274705255622e-05,-1.072365601902068215e-05
2.776984126984126888e+00,-4.966911425915478546e-05,-6.801505260813571797e-06
2.777777777777777679e+00,-6.611180483221350658e-05,-3.485818563284260277e-06
2.778571428571428470e+00,-7.072270286497408609e-05,-1.054779311388269806e-06
2.779365079365079261e+00,-6.412155091259926323e-05,3.821731312600933405e-07
2.780158730158730052e+00,-4.899785123574980117e-05,8.638504519270035953e-07
2.780952380952380842e+00,-2.949825231261638496e-05,5.434563898944042716e-07
2.781746031746031633e+00,-1.031531001050016601e-05,-3.437064037366879801e-07
2.782539682539682424e+00,4.341911858432494510e-06,-1.505322918893143230e-06
2.783333333333333215e+00,1.166125895473136682e-05,-2.615370883827418126e-06
2.784126984126984006e+00,1.079930686364984124e-05,-3.346599000845640467e-06
2.784920634920634797e+00,2.967783956573200345e-06,-3.419246778609324460e-06
2.785714285714285587e+00,-8.975321174212846893e-06,-2.661917868690120833e-06
2.786507936507936378e+00,-2.130069465264641205e-05,-1.068672992943095484e-06
2.787301587301587169e+00,-3.032442752061725877e-05,1.169262998531506397e-06
2.788095238095237960e+00,-3.321984325274398691e-05,3.675077507659179264e-06
2.788888888888888751e+00,-2.853068557241544682e-05,5.947647717576572582e-06
2.789682539682539542e+00,-1.630379882918266897e-05,7.464153835310632366e-06
2.790476190476190332e+00,2.109005694581613645e-06,7.802306490315329471e-06
2.791269841269841123e+00,2.443620622142584533e-05,6.752259565114154092e-06
2.792063492063491914e+00,4.790001392874185959e-05,4.387642383315296409e-06
2.792857142857142705e+00,6.955465242264975093e-05,1.072983493893310045e-06
2.793650793650793496e+00,8.652519399581842178e-05,-2.600030422161655515e-06
2.794444444444444287e+00,9.617812569315823323e-05,-5.936260423687344716e-06
2.795238095238095077e+00,9.626925060724544144e-05,-8.292845094909717546e-06
2.796031746031745868e+00,8.510284345592671084e-05,-9.229289480507118460e-06
2.796825396825396659e+00,6.172347931719302416e-05,-8.613923542470208186e-06
2.797619047619047450e+00,2.615553714284305864e-05,-6.657814569185826994e-06
2.798412698412698241e+00,-2.031111292819690690e-05,-3.864396219095949090e-06
2.799206349206349032e+00,-7.483214412339929530e-05,-9.053644238737972353e-07
2.799999999999999822e+00,-1.328175543058711405e-04,1.545036847427872732e-06
2.800793650793650613e+00,-1.879854859714734545e-04,2.971945926624442666e-06
2.801587301587301404e+00,-2.328113294897673699e-04,3.133398684419919367e-06
2.802380952380952195e+00,-2.594613173773126376e-04,2.096138109285679011e-06
2.803174603174602986e+00,-2.611701702770110461e-04,1.889787593067080497e-07
2.803968253968253777e+00,-2.338415485523994807e-04,-2.106221631022970750e-06
2.804761904761904567e+00,-1.774700100155984241e-04,-4.289217341657220976e-06
2.805555555555555358e+00,-9.689409917131730108e-05,-5.960771094038704459e-06
2.806349206349206149e+00,-1.485146367711031363e-06,-6.894997391742138517e-06
2.807142857142856940e+00,9.632587990277379484e-05,-7.052284936643555094e-06
2.807936507936507731e+00,1.833863095499691626e-04,-6.542913676035482762e-06
2.808730158730158522e+00,2.484145140567164890e-04,-5.566703220065196793e-06
2.809523809523809312e+00,2.841432753593976031e-04,-4.354514079311035071e-06
2.810317460317460103e+00,2.884602256479023132e-04,-3.124389697488753998e-06
2.811111111111110894e+00,2.643161780534244976e-04,-2.048565432571430587e-06
2.811904761904761685e+00,2.185438249657986609e-04,-1.219880577630124450e-06
2.812698412698412920e+00,1.600135249306467757e-04,-6.134172363914748869e-07
2.813492063492063711e+00,9.766476090134313217e-05,-5.620725516713439069e-08
2.814285714285714501e+00,3.889004476581843457e-05,7.689018388558522079e-07
2.815079365079365292e+00,-1.142778584208535316e-05,2.261510158806292009e-06
2.815873015873016083e+00,-5.113909682899530143e-05,4.780034080768266439e-06
2.816666666666666874e+00,-8.041512392596311426e-05,8.480496774098741913e-06
2.817460317460317665e+00,-1.009211680124102230e-04,1.316650089241892419e-05
2.818253968253968456e+00,-1.148348941449412261e-04,1.820938542098303990e-05
2.819047619047619246e+00,-1.239530913710936853e-04,2.258814262958041253e-05
2.819841269841270037e+00,-1.290869844713396443e-04,2.506964810533834814e-05
2.820634920634920828e+00,-1.298787439528382363e-04,2.450720654810403364e-05
2.821428571428571619e+00,-1.250721867467402212e-04,2.019088787387756048e-05
2.822222222222222410e+00,-1.131493602446605016e-04,1.215112805894218983e-05
2.823015873015873201e+00,-9.313518747601447125e-05,1.311083923701624973e-06
2.823809523809523991e+00,-6.531143263704573473e-05,-1.058888861852321602e-05
2.824603174603174782e+00,-3.159386567411039191e-05,-2.131193240549458651e-05
2.825396825396825573e+00,4.579593429993645820e-06,-2.863196126761106719e-05
2.826190476190476364e+00,3.884567293538548677e-05,-3.090068839637851475e-05
2.826984126984127155e+00,6.682833855031625799e-05,-2.751283412942488428e-05
2.827777777777777946e+00,8.509381916873373392e-05,-1.912407382553831211e-05
2.828571428571428736e+00,9.187286398191021625e-05,-7.543210060198049550e-06
2.829365079365079527e+00,8.736294863404772020e-05,4.683571425466112422e-06
2.830158730158730318e+00,7.355493293594107308e-05,1.488731900764752088e-05
2.830952380952381109e+00,5.366066482957980042e-05,2.092546923374838104e-05
2.831746031746031900e+00,3.131879906316330751e-05,2.169515076199523898e-05
2.832539682539682691e+00,9.801227713311489074e-06,1.737951698872641673e-05
2.833333333333333481e+00,-8.579181534764665018e-06,9.367229317378171637e-06
2.834126984126984272e+00,-2.273542228328649924e-05,-1.293173481707473211e-07
2.834920634920635063e+00,-3.272510295899955078e-05,-8.652789661316976730e-06
2.835714285714285854e+00,-3.939189921678718865e-05,-1.412208755928934576e-05
2.836507936507936645e+00,-4.386197719120115199e-05,-1.533405029382728550e-05
2.837301587301587436e+00,-4.704766483477611119e-05,-1.222160595369533094e-05
2.838095238095238226e+00,-4.929319053446016831e-05,-5.814192198784520253e-06
2.838888888888889017e+00,-5.025298587245134935e-05,2.073489757388839936e-06
2.839682539682539808e+00,-4.903158930092229488e-05,9.330576335174080830e-06
2.840476190476190599e+00,-4.454363757819960378e-05,1.408495789581811533e-05
2.841269841269841390e+00,-3.598502306063533273e-05,1.515034703852485569e-05
2.842063492063492181e+00,-2.326267674412444902e-05,1.228319768632237889e-05
2.842857142857142971e+00,-7.232659132933450421e-06,6.200242496741808102e-06
2.843650793650793762e+00,1.034826168712211264e-05,-1.632492463159756042e-06
2.844444444444444553e+00,2.715969320025630294e-05,-9.376016293784267188e-06
2.845238095238095344e+00,4.084812349833411699e-05,-1.526382677843384162e-05
2.846031746031746135e+00,4.958858112009875132e-05,-1.801148852924446350e-05
2.846825396825396925e+00,5.250517832573815455e-05,-1.709920087399190925e-05
2.847619047619047716e+00,4.983204470645735386e-05,-1.286772229474955495e-05
2.848412698412698507e+00,4.279036692923608850e-05,-6.410987930689805161e-06
2.849206349206349298e+00,3.324645483423875354e-05,7.045436659364917907e-07
2.850000000000000089e+00,2.326322675490547881e-05,6.823038150187392748e-06
2.850793650793650880e+00,1.465943878123478034e-05,1.058957909292273840e-05
2.851587301587301670e+00,8.667472046727403996e-06,1.125176138311142951e-05
2.852380952380952461e+00,5.749435960339825768e-06,8.802076452001576006e-06
2.853174603174603252e+00,5.597137430581785207e-06,3.934776080723070153e-06
2.853968253968254043e+00,7.302974314545062312e-06,-2.159675881784556128e-06
2.854761904761904834e+00,9.649895851844392762e-06,-8.099339628094958188e-06
2.855555555555555625e+00,1.143979921968731468e-05,-1.263127332434164639e-05
2.856349206349206415e+00,1.177244496860857009e-05,-1.488833281027423331e-05
2.857142857142857206e+00,1.020640799762871562e-05,-1.452836769680530580e-05
2.857936507936507997e+00,6.775388719900777838e-06,-1.173891761567563203e-05
2.858730158730158788e+00,1.883537001163922598e-06,-7.125579871513354005e-06
2.859523809523809579e+00,-3.857552061132022560e-06,-1.525189231317556917e-06
2.860317460317460370e+00,-9.777630644847646178e-06,4.206108757904840993e-06
2.861111111111111160e+00,-1.523439311499752656e-05,9.381263578608543290e-06
2.861904761904761951e+00,-1.963567076669582649e-05,1.360712731080416026e-05
2.862698412698412742e+00,-2.243565861436904398e-05,1.681998244191061637e-05
2.863492063492063533e+00,-2.315552673790580640e-05,1.922525181155338290e-05
2.864285714285714324e+00,-2.145669512740997465e-05,2.115681048851317529e-05
2.865079365079365115e+00,-1.725454986668298636e-05,2.289318695000067247e-05
2.865873015873015905e+00,-1.082613593031539197e-05,2.448480519121631576e-05
2.866666666666666696e+00,-2.855382520827850535e-06,2.565095963960945243e-05
2.867460317460317487e+00,5.623303568937418391e-06,2.579082904382151698e-05
2.868253968253968278e+00,1.338756916067079195e-05,2.411980180739150897e-05
2.869047619047619069e+00,1.926346906701874908e-05,1.990112179196331944e-05
2.869841269841269860e+00,2.237741260001002147e-05,1.270889682265887654e-05
2.870634920634920650e+00,2.235649022891030957e-05,2.643462821661718124e-06
2.871428571428571441e+00,1.941883804316431290e-05,-9.571954105310025772e-06
2.872222222222222232e+00,1.432243884018880338e-05,-2.265482595569761861e-05
2.873015873015873023e+00,8.181881434779619879e-06,-3.498381172252055290e-05
2.873809523809523814e+00,2.204529132626683714e-06,-4.492441040453735914e-05
2.874603174603174605e+00,-2.579073856841129164e-06,-5.117191209339858591e-05
2.875396825396825395e+00,-5.520993231268101030e-06,-5.301415329284852554e-05
2.876190476190476186e+00,-6.455633842547263982e-06,-5.043993729213105785e-05
2.876984126984126977e+00,-5.685287085473621083e-06,-4.406920433488961973e-05
2.877777777777777768e+00,-3.871812119554126787e-06,-3.493961249548060239e-05
2.878571428571428559e+00,-1.871133141933487495e-06,-2.422797347145910283e-05
2.879365079365079350e+00,-5.499019804898305804e-07,-1.299773409897416063e-05
2.880158730158730140e+00,-6.153924634694474120e-07,-2.043289092369201561e-06
2.880952380952380931e+00,-2.477439502691249322e-06,8.140525733540043951e-06
2.881746031746031722e+00,-6.152954000829408098e-06,1.728180491628449625e-05
2.882539682539682513e+00,-1.122307218184587415e-05,2.519899466140873369e-05
2.883333333333333304e+00,-1.685757445134318465e-05,3.167392199492447891e-05
2.884126984126984095e+00,-2.192320214844573179e-05,3.638056537700872650e-05
2.884920634920634885e+00,-2.518341118913139512e-05,3.889489969435095204e-05
2.885714285714285676e+00,-2.557227245692305243e-05,3.878307968276342352e-05
2.886507936507936467e+00,-2.248884622334539654e-05,3.574165253967382766e-05
2.887301587301587258e+00,-1.602597379608018330e-05,2.974852658011431148e-05
2.888095238095238049e+00,-7.041256530894057993e-06,2.117823821134759920e-05
2.888888888888888840e+00,2.986257469112069114e-06,1.084001783506029009e-05
2.889682539682539630e+00,1.229799209318460135e-05,-8.686066358596624366e-08
2.890476190476190421e+00,1.930165614991669491e-05,-1.021961446400714166e-05
2.891269841269841212e+00,2.297829220245699986e-05,-1.820886276993315608e-05
2.892063492063492003e+00,2.311505224323349021e-05,-2.299071167741643598e-05
2.892857142857142794e+00,2.028881099470414813e-05,-2.399222824797177559e-05
2.893650793650793585e+00,1.561472833709155871e-05,-2.124122397268452390e-05
2.894444444444444375e+00,1.035427632330633782e-05,-1.535723995607961241e-05
2.895238095238095166e+00,5.518103687702217504e-06,-7.430254260291435582e-06
2.896031746031745957e+00,1.590319267880252260e-06,1.182034001870845438e-06
2.896825396825396748e+00,-1.546963371942249379e-06,9.093875077907704636e-06
2.897619047619047539e+00,-4.476340362061888790e-06,1.512156796176910202e-05
2.898412698412698330e+00,-7.946845846943190197e-06,1.846496910322634210e-05
2.899206349206349120e+00,-1.251151286496023006e-05,1.881550687204292259e-05
2.899999999999999911e+00,-1.821332688850652135e-05,1.638219354331665100e-05
2.900793650793650702e+00,-2.441738609974995012e-05,1.184043916223535036e-05
2.901587301587301493e+00,-2.984842707938242440e-05,6.215672279038410800e-06
2.902380952380952284e+00,-3.284080896992707472e-05,7.166685352184725121e-07
2.903174603174603075e+00,-3.175370591096805892e-05,-3.463465391281024237e-06
2.903968253968253865e+00,-2.545848992926818806e-05,-5.355056228701977515e-06
2.904761904761904656e+00,-1.377784236265068877e-05,-4.398136211147378268e-06
2.905555555555555447e+00,2.246665758455067714e-06,-5.731184434135024823e-07
2.906349206349206238e+00,2.035696394735653634e-05,5.555824488222608011e-06
2.907142857142857029e+00,3.739520812675833071e-05,1.290529318383709754e-05
2.907936507936507819e+00,4.990041878187619485e-05,2.004561371417107817e-05
2.908730158730158610e+00,5.486700885931049693e-05,2.545727370867789836e-05
2.909523809523809401e+00,5.048969623036972702e-05,2.782262537961672306e-05
2.910317460317460192e+00,3.670989361114256543e-05,2.629123547171644543e-05
2.911111111111110983e+00,1.541736501285822787e-05,2.065839162937432025e-05
2.911904761904761774e+00,-9.767409351943704399e-06,1.141341277520428162e-05
2.912698412698412564e+00,-3.411727417831527710e-05,-3.542026338181218640e-07
2.913492063492063355e+00,-5.272687741812328817e-05,-1.316490266210160972e-05
2.914285714285714146e+00,-6.156555156441180347e-05,-2.541949111800574168e-05
2.915079365079364937e+00,-5.842103439496550176e-05,-3.566455460478203750e-05
2.915873015873015728e+00,-4.348901909785822647e-05,-4.280104776029951876e-05
2.916666666666666519e+00,-1.941605272844691571e-05,-4.620939913105886245e-05
2.917460317460317309e+00,9.268363081948287555e-06,-4.578706736192980289e-05
2.918253968253968100e+00,3.721432570123440152e-05,-4.190704788205735880e-05
2.919047619047618891e+00,5.952490636029917893e-05,-3.531138181355800539e-05
2.919841269841269682e+00,7.287377792628550082e-05,-2.695970893408797538e-05
2.920634920634920473e+00,7.614241909676196403e-05,-1.786212320767206437e-05
2.921428571428571264e+00,7.040969261104080906e-05,-8.932104113377174019e-06
2.922222222222222054e+00,5.834437778392326035e-05,-8.900783743334764127e-07
2.923015873015872845e+00,4.324334005395842048e-05,5.770862889169685732e-06
2.923809523809523636e+00,2.804756885077654970e-05,1.076981340647760495e-05
2.924603174603174427e+00,1.463204732001778046e-05,1.400257488728479243e-05
2.925396825396825218e+00,3.539011517860805783e-06,1.551513032295702229e-05
2.926190476190476009e+00,-5.831884479932786711e-06,1.550029705821592710e-05
2.926984126984126799e+00,-1.469615052759929932e-05,1.431031267195611971e-05
2.927777777777777590e+00,-2.421745967881043632e-05,1.246143437135668820e-05
2.928571428571428381e+00,-3.491168662480614371e-05,1.060270747104887617e-05
2.929365079365079172e+00,-4.629089670582457587e-05,9.431237227602496287e-06
2.930158730158729963e+00,-5.684134699937702688e-05,9.555871548660438346e-06
2.930952380952380754e+00,-6.434237070565916432e-05,1.133282556082760849e-05
2.931746031746031544e+00,-6.644875744558665113e-05,1.471404096432634571e-05
2.932539682539682335e+00,-6.139064043667930883e-05,1.915769268434575431e-05
2.933333333333333126e+00,-4.860533185293584374e-05,2.364683793246456143e-05
2.934126984126983917e+00,-2.911803838131687072e-05,2.684337992625728092e-05
2.934920634920634708e+00,-5.540323849555467830e-06,2.736958695437458124e-05
2.935714285714285499e+00,1.834962927906065312e-05,2.416502355205357713e-05
2.936507936507936289e+00,3.836563795227977111e-05,1.682787123571545846e-05
2.937301587301587080e+00,5.082923990998581605e-05,5.833967004504174040e-06
2.938095238095238315e+00,5.340264855202706614e-05,-7.453401440263504969e-06
2.938888888888889106e+00,4.560902531341187878e-05,-2.101493285901667304e-05
2.939682539682539897e+00,2.889604659739517171e-05,-3.260456265886911022e-05
2.940476190476190688e+00,6.239165458494179534e-06,-4.026340187720828001e-05
2.941269841269841478e+00,-1.857643652270097806e-05,-4.276955156329058838e-05
2.942063492063492269e+00,-4.176981289522696094e-05,-3.989168493012218935e-05
2.942857142857143060e+00,-6.024934081200275662e-05,-3.238071148898584217e-05
2.943650793650793851e+00,-7.202099607300808330e-05,-2.172325134930367025e-05
2.944444444444444642e+00,-7.628275907379671083e-05,-9.754244393460101653e-06
2.945238095238095433e+00,-7.326350781043234185e-05,1.745403246058932921e-06
2.946031746031746223e+00,-6.391494111375540577e-05,1.136098893766228505e-05
2.946825396825397014e+00,-4.957109406266279342e-05,1.821213050695437912e-05
2.947619047619047805e+00,-3.166936214378795745e-05,2.197743760146722865e-05
2.948412698412698596e+00,-1.159331272502033379e-05,2.281334667519927952e-05
2.949206349206349387e+00,9.344644746784958741e-06,2.121725183600005538e-05
2.950000000000000178e+00,2.981210569373315592e-05,1.787819714758147723e-05
2.950793650793650968e+00,4.833741399597658742e-05,1.354290288062917844e-05
2.951587301587301759e+00,6.326945866891822863e-05,8.910124904090381125e-06
2.952380952380952550e+00,7.290078216170406736e-05,4.556465670166748282e-06
2.953174603174603341e+00,7.576156883183583681e-05,8.917941932215155105e-07
2.953968253968254132e+00,7.099981115976204281e-05,-1.858870096051746354e-06
2.954761904761904923e+00,5.871187202704501609e-05,-3.649287092849734263e-06
2.955555555555555713e+00,4.010456660727080766e-05,-4.583110913785400599e-06
2.956349206349206504e+00,1.743249051591136845e-05,-4.864787336098529631e-06
2.957142857142857295e+00,-6.279841052098681715e-06,-4.736872125889534430e-06
2.957936507936508086e+00,-2.767719067229698155e-05,-4.415923623063209171e-06
2.958730158730158877e+00,-4.359696385776004520e-05,-4.043313334235421145e-06
2.959523809523809668e+00,-5.158901586395965176e-05,-3.666876369406127874e-06
2.960317460317460458e+00,-5.034445480074999606e-05,-3.262015915977017870e-06
2.961111111111111249e+00,-3.995761436741708517e-05,-2.787159892843241161e-06
2.961904761904762040e+00,-2.196458542332775676e-05,-2.252590906252033046e-06
2.962698412698412831e+00,8.722478276355677284e-07,-1.771078422186067669e-06
2.963492063492063622e+00,2.502205387288550440e-05,-1.561024066708393364e-06
2.964285714285714413e+00,4.681191562477623092e-05,-1.890580737217793829e-06
2.965079365079365203e+00,6.308762405701475113e-05,-2.978212226636739455e-06
2.965873015873015994e+00,7.175433448836879714e-05,-4.888115742683627141e-06
2.966666666666666785e+00,7.207876017256191156e-05,-7.464858283817335828e-06
2.967460317460317576e+00,6.470686855182628612e-05,-1.033635801814166182e-05
2.968253968253968367e+00,5.142268802642880894e-05,-1.298616041674845679e-05
2.969047619047619158e+00,3.472274572006760283e-05,-1.486980518982439303e-05
2.969841269841269948e+00,1.730570382557506588e-05,-1.553703213294163610e-05
2.970634920634920739e+00,1.582864146201003121e-06,-1.472348256870006512e-05
2.971428571428571530e+00,-1.069746211644236452e-05,-1.238879390231046127e-05
2.972222222222222321e+00,-1.865039480513479501e-05,-8.697716144652363468e-06
2.973015873015873112e+00,-2.226239316940732774e-05,-3.960632479243876465e-06
2.973809523809523903e+00,-2.223350357685899314e-05,1.438227363184987865e-06
2.974603174603174693e+00,-1.971369953999822319e-05,7.097786377091306835e-06
2.975396825396825484e+00,-1.600686698303538754e-05,1.262836959827746101e-05
2.976190476190476275e+00,-1.230883739155046258e-05,1.765488351709265817e-05
2.976984126984127066e+00,-9.523127058021850947e-06,2.181149887300975435e-05
2.977777777777777857e+00,-8.169837422405360023e-06,2.474720213417225294e-05
2.978571428571428648e+00,-8.379255186705439782e-06,2.615484829096505716e-05
2.979365079365079438e+00,-9.947653041636068250e-06,2.582389694679014953e-05
2.980158730158730229e+00,-1.242929293644532455e-05,2.370323422147148549e-05
2.980952380952381020e+00,-1.524275917418407753e-05,1.995037949346179523e-05
2.981746031746031811e+00,-1.777705125783433774e-05,1.494210405879624798e-05
2.982539682539682602e+00,-1.948903064793172183e-05,9.231302784743566990e-06
2.983333333333333393e+00,-1.998597171504889894e-05,3.452949706614188359e-06
2.984126984126984183e+00,-1.908503237452982264e-05,-1.798518585389897514e-06
2.984920634920634974e+00,-1.683878022163472305e-05,-6.084710463065091836e-06
2.985714285714285765e+00,-1.351751200341698859e-05,-9.195558428507532894e-06
2.986507936507936556e+00,-9.547613197798632834e-06,-1.115676259928511978e-05
2.987301587301587347e+00,-5.418167734642295888e-06,-1.217378705271945905e-05
2.988095238095238138e+00,-1.579681263212023355e-06,-1.253380013660223347e-05
2.988888888888888928e+00,1.636484467192003527e-06,-1.249713764915312900e-05
2.989682539682539719e+00,4.055210203964237322e-06,-1.221100412726571243e-05
2.990476190476190510e+00,5.644606688049051507e-06,-1.167177888300457350e-05
2.991269841269841301e+00,6.466003829936011882e-06,-1.074766663110921325e-05
2.992063492063492092e+00,6.613286540249924426e-06,-9.252629210509946884e-06
2.992857142857142883e+00,6.168592527189485721e-06,-7.043095384184138763e-06
2.993650793650793673e+00,5.191227088383387821e-06,-4.099581966183865135e-06
2.994444444444444464e+00,3.741427771901523768e-06,-5.615933629691792353e-07
2.995238095238095255e+00,1.925768447810206333e-06,3.294928078881956533e-06
2.996031746031746046e+00,-5.904719422841332810e-08,7.122570662027017689e-06
2.996825396825396837e+00,-1.909084665452659728e-06,1.057844219595977650e-05
2.997619047619047628e+00,-3.240554866987818624e-06,1.338100579514327841e-05
2.998412698412698418e+00,-3.665453874356416708e-06,1.533327532077645864e-05
2.999206349206349209e+00,-2.903146190920498917e-06,1.631741072991685059e-05
3.000000000000000000e+00,-9.019797631172078347e-07,1.627807924979051939e-05
3.000793650793650791e+00,2.062962959669321602e-06,1.521152078945868771e-05
3.001587301587301582e+00,5.350940088808386677e-06,1.316678932552589566e-05
3.002380952380952372e+00,8.004082933377789375e-06,1.025360825554374131e-05
3.003174603174603163e+00,8.897697984665280693e-06,6.645635862046776780e-06
3.003968253968253954e+00,6.984236233354608243e-06,2.570998646402413487e-06
3.004761904761904745e+00,1.594614511948048576e-06,-1.710110519078713377e-06
3.005555555555555536e+00,-7.267633901704181408e-06,-5.934132041403519870e-06
3.006349206349206327e+00,-1.872369032138691694e-05,-9.860156586834470510e-06
3.007142857142857117e+00,-3.099498198624155029e-05,-1.328603889832743309e-05
3.007936507936507908e+00,-4.162145443261191548e-05,-1.605139776236022225e-05
3.008730158730158699e+00,-4.793726641017672751e-05,-1.802923368897473282e-05
3.009523809523809490e+00,-4.774441550011313196e-05,-1.911254577681967590e-05
3.010317460317460281e+00,-4.003952057417489323e-05,-1.920479639272432748e-05
3.011111111111111072e+00,-2.557993492748927486e-05,-1.822179632649003332e-05
3.011904761904761862e+00,-7.061391319684881424e-06,-1.610800730545858142e-05
3.012698412698412653e+00,1.124869076081752478e-05,-1.286502841318557995e-05
3.013492063492063444e+00,2.442491064429794023e-05,-8.586821569195342201e-06
3.014285714285714235e+00,2.816096491608697464e-05,-3.494918605384924626e-06
3.015079365079365026e+00,2.007697443445408464e-05,2.035205259069882473e-06
3.015873015873015817e+00,6.704183262564834356e-07,7.469424179536742488e-06
3.016666666666666607e+00,-2.640968251928847271e-05,1.214762558856966653e-05
3.017460317460317398e+00,-5.491939917505072775e-05,1.536560396780000694e-05
3.018253968253968189e+00,-7.734434344614353756e-05,1.650417408456301507e-05
3.019047619047618980e+00,-8.671339223413991051e-05,1.518240639719203160e-05
3.019841269841269771e+00,-7.845522317336477798e-05,1.139279642929929578e-05
3.020634920634920562e+00,-5.178134205063197036e-05,5.570246542139345498e-06
3.021428571428571352e+00,-1.015639718743673096e-05,-1.439914115224374613e-06
3.022222222222222143e+00,3.934957443576441659e-05,-8.520335020910940692e-06
3.023015873015872934e+00,8.770094812387795578e-05,-1.449798976219506985e-05
3.023809523809523725e+00,1.260867004998947425e-04,-1.838444725791107829e-05
3.024603174603174516e+00,1.480395551932267161e-04,-1.957733459717883384e-05
3.025396825396825307e+00,1.508933097227660501e-04,-1.797033798356043253e-05
3.026190476190476097e+00,1.362155595352776177e-04,-1.394517012845116868e-05
3.026984126984126888e+00,1.091761699347290078e-04,-8.253553829607243180e-06
3.027777777777777679e+00,7.709958508891990117e-05,-1.828454696777869246e-06
3.028571428571428470e+00,4.761883734788647393e-05,4.419933127890769726e-06
3.029365079365079261e+00,2.688848988101372550e-05,9.770784452811486829e-06
3.030158730158730052e+00,1.825026380973076402e-05,1.378704896632023462e-05
3.030952380952380842e+00,2.161466457423312840e-05,1.632800855626822601e-05
3.031746031746031633e+00,3.365573013497253756e-05,1.749458956296031620e-05
3.032539682539682424e+00,4.873958395866861358e-05,1.753794783292748934e-05
3.033333333333333215e+00,6.034882234871459506e-05,1.676460733819897282e-05
3.034126984126984006e+00,6.265932031682151305e-05,1.546227233103747344e-05
3.034920634920634797e+00,5.190362505897998556e-05,1.385621253835909533e-05
3.035714285714285587e+00,2.722166665876355504e-05,1.209430758114195071e-05
3.036507936507936378e+00,-9.166522081131783271e-06,1.025301659231800409e-05
3.037301587301587169e+00,-5.246907796749371674e-05,8.355768828219176241e-06
3.038095238095237960e+00,-9.636527774929249497e-05,6.396197323771964213e-06
3.038888888888888751e+00,-1.343309605000561960e-04,4.358820893710507297e-06
3.039682539682539542e+00,-1.609479243479569437e-04,2.230159044692199910e-06
3.040476190476190332e+00,-1.729189941711189776e-04,-3.153369739081757472e-09
3.041269841269841123e+00,-1.695928560071883486e-04,-2.365094976320621461e-06
3.042063492063491914e+00,-1.529263636244537685e-04,-4.897654897078914567e-06
3.042857142857142705e+00,-1.269395726640879830e-04,-7.650038813468292858e-06
3.043650793650793496e+00,-9.680968543663270572e-05,-1.064151125723688056e-05
3.044444444444444287e+00,-6.778457532025542538e-05,-1.380491283510281014e-05
3.045238095238095077e+00,-4.409395802136574890e-05,-1.693464871895897719e-05
3.046031746031745868e+00,-2.803737394530326669e-05,-1.967076657007673637e-05
3.046825396825396659e+00,-1.944450369074440598e-05,-2.154207245702523089e-05
3.047619047619047450e+00,-1.569271775910026779e-05,-2.206732122639182406e-05
3.048412698412698241e+00,-1.237370998895607661e-05,-2.088552543245959003e-05
3.049206349206349032e+00,-4.519719962985485032e-06,-1.787021460262796889e-05
3.049999999999999822e+00,1.190569583102899480e-05,-1.318811599890826814e-05
3.050793650793650613e+00,3.867700073260884106e-05,-7.286097561737211256e-06
3.051587301587301404e+00,7.453876041336623644e-05,-8.163926542310154902e-07
3.052380952380952195e+00,1.152278049498896208e-04,5.474000881199252365e-06
3.053174603174602986e+00,1.542609759869674631e-04,1.086155113945181352e-05
3.053968253968253777e+00,1.842460937302317983e-04,1.475061245419657298e-05
3.054761904761904567e+00,1.983715163562166026e-04,1.675171511356793658e-05
3.055555555555555358e+00,1.917537805758490394e-04,1.672794682144952873e-05
3.056349206349206149e+00,1.624205554926472488e-04,1.480652940277061296e-05
3.057142857142856940e+00,1.118127665230719505e-04,1.135412995926101934e-05
3.057936507936507731e+00,4.477193831285371429e-05,6.917065648389717451e-06
3.058730158730158522e+00,-3.096716175146542216e-05,2.132415809334193220e-06
3.059523809523809312e+00,-1.057261290331081564e-04,-2.377281304817824321e-06
3.060317460317460103e+00,-1.691976849357046430e-04,-6.106418658692154897e-06
3.061111111111110894e+00,-2.120092461688322626e-04,-8.743291876812752219e-06
3.061904761904761685e+00,-2.273487910764156292e-04,-1.020284299740820378e-05
3.062698412698412920e+00,-2.123758439038120913e-04,-1.060715784701577084e-05
3.063492063492063711e+00,-1.690746836081517628e-04,-1.021996446366519354e-05
3.064285714285714501e+00,-1.042309544867536965e-04,-9.354233827792539233e-06
3.065079365079365292e+00,-2.837180009805493106e-05,-8.279474366920964171e-06
3.065873015873016083e+00,4.621108297311723654e-05,-7.154783967462161139e-06
3.066666666666666874e+00,1.079244131220089247e-04,-6.004588221372395086e-06
3.067460317460317665e+00,1.481842900875257943e-04,-4.739352663169166683e-06
3.068253968253968456e+00,1.629539205012167776e-04,-3.209674620035856808e-06
3.069047619047619246e+00,1.531418110669343475e-04,-1.274487767328253668e-06
3.069841269841270037e+00,1.238684631476992158e-04,1.136352544913680515e-06
3.070634920634920828e+00,8.292971374116633995e-05,3.980628854063525256e-06
3.071428571428571619e+00,3.893796456885935213e-05,7.092543239530143633e-06
3.072222222222222410e+00,-3.975759098557177615e-07,1.020321353078823080e-05
3.073015873015873201e+00,-2.952159603137118432e-05,1.298702670655305197e-05
3.073809523809523991e+00,-4.565445228274044829e-05,1.512287512551046775e-05
3.074603174603174782e+00,-4.878387350258642165e-05,1.635718161792200170e-05
3.075396825396825573e+00,-4.114607501625309918e-05,1.655551295641164713e-05
3.076190476190476364e+00,-2.638808645256152208e-05,1.573109726703778315e-05
3.076984126984127155e+00,-8.627578165445199334e-06,1.404305678919223086e-05
3.077777777777777946e+00,8.389854983785781234e-06,1.176495647830068728e-05
3.078571428571428736e+00,2.188321608462326831e-05,9.232318125737054291e-06
3.079365079365079527e+00,3.029416094807137332e-05,6.782103408877909326e-06
3.080158730158730318e+00,3.320656079638953725e-05,4.696572013041453022e-06
3.080952380952381109e+00,3.100312386226354588e-05,3.160101968281480456e-06
3.081746031746031900e+00,2.439657833761541941e-05,2.233432451196565171e-06
3.082539682539682691e+00,1.399973199677855245e-05,1.847666627178795388e-06
3.083333333333333481e+00,7.974044970718543749e-08,1.820105324355619149e-06
3.084126984126984272e+00,-1.742009515036681595e-05,1.892710712661180579e-06
3.084920634920635063e+00,-3.859479614399973548e-05,1.789339269967929750e-06
3.085714285714285854e+00,-6.311757441817422579e-05,1.281323471774017046e-06
3.086507936507936645e+00,-8.975423022542084849e-05,2.468590670488884971e-07
3.087301587301587436e+00,-1.160249148462137438e-04,-1.289164079512838756e-06
3.088095238095238226e+00,-1.381728929828417965e-04,-3.142897814981013995e-06
3.088888888888889017e+00,-1.515486359284351210e-04,-4.988795708651363770e-06
3.089682539682539808e+00,-1.514223367623957893e-04,-6.403967559828696129e-06
3.090476190476190599e+00,-1.341022490042913999e-04,-6.934445617252679916e-06
3.091269841269841390e+00,-9.809325995451925241e-05,-6.176142413796306314e-06
3.092063492063492181e+00,-4.494339159054307268e-05,-3.861474347898284807e-06
3.092857142857142971e+00,2.054178220288732971e-05,5.949625552885526847e-08
3.093650793650793762e+00,9.086989928508418441e-05,5.357720229025495664e-06
3.094444444444444553e+00,1.571247883191292894e-04,1.150127420017001466e-05
3.095238095238095344e+00,2.106054049198140894e-04,1.768649332267195135e-05
3.096031746031746135e+00,2.444150945159785366e-04,2.293428539054539149e-05
3.096825396825396925e+00,2.546151385888911507e-04,2.624627685748672374e-05
3.097619047619047716e+00,2.407152516603459794e-04,2.679518551152958636e-05
3.098412698412698507e+00,2.054769975956660774e-04,2.410564206746949458e-05
3.099206349206349298e+00,1.541727868492079150e-04,1.817456405284310108e-05
3.100000000000000089e+00,9.352806962535031518e-05,9.491208046169077555e-06
3.100793650793650880e+00,3.058473660814458114e-05,-1.054591114682168559e-06
3.101587301587301670e+00,-2.830798329484772796e-05,-1.235216606984624915e-05
3.102380952380952461e+00,-7.822298066026274986e-05,-2.328633876517131754e-05
3.103174603174603252e+00,-1.160280559478070776e-04,-3.293005194598958826e-05
3.103968253968254043e+00,-1.404135387085036807e-04,-4.066484786264971328e-05
3.104761904761904834e+00,-1.516603064840076011e-04,-4.620600379653557306e-05
3.105555555555555625e+00,-1.512638618873700456e-04,-4.953780504309271204e-05
3.106349206349206415e+00,-1.415126757576395120e-04,-5.079023065147957126e-05
3.107142857142857206e+00,-1.250787738840821806e-04,-5.010714214336227954e-05
3.107936507936507997e+00,-1.046457629692269396e-04,-4.756046946127580815e-05
3.108730158730158788e+00,-8.258873940958933184e-05,-4.314726464162547980e-05
3.109523809523809579e+00,-6.072705350231298219e-05,-3.686955766862903751e-05
3.110317460317460370e+00,-4.017932388898975488e-05,-2.885734248687175699e-05
3.111111111111111160e+00,-2.134574791621128665e-05,-1.947335893574500231e-05
3.111904761904761951e+00,-4.021175085658698425e-06,-9.344835966300891623e-06
3.112698412698412742e+00,1.238680279623898538e-05,7.034541868686378529e-07
3.113492063492063533e+00,2.858076415566549992e-05,9.803068418773868569e-06
3.114285714285714324e+00,4.508617823396108648e-05,1.723919238359569291e-05
3.115079365079365115e+00,6.199570597642629021e-05,2.263106301795089108e-05
3.115873015873015905e+00,7.878472100679216291e-05,2.603771826583112169e-05
3.116666666666666696e+00,9.424379362087321370e-05,2.795175327025614179e-05
3.117460317460317487e+00,1.065728055960036245e-04,2.917485815321357862e-05
3.118253968253968278e+00,1.136540415498602115e-04,3.060073866004822581e-05
3.119047619047619069e+00,1.134681363817176920e-04,3.295575193290361577e-05
3.119841269841269860e+00,1.045603370384055820e-04,3.656045229953631406e-05
3.120634920634920650e+00,8.643382011410266359e-05,4.117336910260588806e-05
3.121428571428571441e+00,5.975849297357932260e-05,4.596175530115862860e-05
3.122222222222222232e+00,2.633649571761262906e-05,4.961704096510463624e-05
3.123015873015873023e+00,-1.115937974869089688e-05,5.060187030438082753e-05
3.123809523809523814e+00,-4.959090638236570510e-05,4.748650431446869752e-05
3.124603174603174605e+00,-8.578710090550245658e-05,3.930899737881784470e-05
3.125396825396825395e+00,-1.169002915597420702e-04,2.587962330020591686e-05
3.126190476190476186e+00,-1.406299200604340608e-04,7.950316963784729172e-06
3.126984126984126977e+00,-1.553214031451162068e-04,-1.281001467382372465e-05
3.127777777777777768e+00,-1.599968309215562287e-04,-3.405115075760771498e-05
3.128571428571428559e+00,-1.543857157531624343e-04,-5.314790289416797801e-05
3.129365079365079350e+00,-1.389914667671378649e-04,-6.768408603937527493e-05
3.130158730158730140e+00,-1.151730658179277850e-04,-7.589489408165054154e-05
3.130952380952380931e+00,-8.517489852490168025e-05,-7.696086302126112580e-05
3.131746031746031722e+00,-5.202394202489920091e-05,-7.109213525321878414e-05
3.132539682539682513e+00,-1.923676204444793659e-05,-5.940192373130434762e-05
3.133333333333333304e+00,9.667920334889663770e-06,-4.362180095106740036e-05
3.134126984126984095e+00,3.178497439686420618e-05,-2.574338091479848344e-05
3.134920634920634885e+00,4.543480216499687450e-05,-7.675385664475932470e-06
3.135714285714285676e+00,5.060422022090654549e-05,9.013906770390236545e-06
3.136507936507936467e+00,4.906379767316322045e-05,2.323101743974623630e-05
3.137301587301587258e+00,4.407638232902529420e-05,3.436583324884030837e-05
3.138095238095238049e+00,3.971690291736922621e-05,4.220288545720418118e-05
3.138888888888888840e+00,3.993720868687746493e-05,4.678455260642762917e-05
3.139682539682539630e+00,4.759164528810533800e-05,4.827990297112788576e-05
3.140476190476190421e+00,6.365735157108855680e-05,4.689993880591774976e-05
3.141269841269841212e+00,8.683455067826141593e-05,4.287575534110402078e-05
3.142063492063492003e+00,1.136213999875098447e-04,3.649079281062459580e-05
3.142857142857142794e+00,1.388571854364262670e-04,2.814038255806103000e-05
3.143650793650793585e+00,1.566364173371123875e-04,1.838504491530588788e-05
3.144444444444444375e+00,1.614234177112323053e-04,7.968329061900380643e-06
3.145238095238095166e+00,1.491544159538906096e-04,-2.217694583494194070e-06
3.146031746031745957e+00,1.181189045089320105e-04,-1.122077565285394006e-05
3.146825396825396748e+00,6.946590064108184139e-05,-1.815799765145723738e-05
3.147619047619047539e+00,7.257958298125047404e-06,-2.236270611989668862e-05
3.148412698412698330e+00,-6.193704447663214837e-05,-2.351758867353098784e-05
3.149206349206349120e+00,-1.298782837475426525e-04,-2.174032700698965800e-05
3.149999999999999911e+00,-1.878247220558398520e-04,-1.759333439629117394e-05
3.150793650793650702e+00,-2.279061978020842513e-04,-1.200290979830816929e-05
3.151587301587301493e+00,-2.444870905461487502e-04,-6.095078875349556962e-06
3.152380952380952284e+00,-2.352684856593380606e-04,-9.805949612477539784e-07
3.153174603174603075e+00,-2.018654802370784223e-04,2.460095037267442668e-06
3.153968253968253865e+00,-1.496511829065648067e-04,3.739354052792374246e-06
3.154761904761904656e+00,-8.679745650425739901e-05,2.835690714311069672e-06
3.155555555555555447e+00,-2.265222824952182483e-05,1.668853862456724558e-07
3.156349206349206238e+00,3.418813039021008197e-05,-3.522858480778129702e-06
3.157142857142857029e+00,7.761826786310904128e-05,-7.328762838566772733e-06
3.157936507936507819e+00,1.051051261800740839e-04,-1.036201667662327140e-05
3.158730158730158610e+00,1.178292717541271761e-04,-1.189658018372737129e-05
3.159523809523809401e+00,1.198887297729341956e-04,-1.145910054542065422e-05
3.160317460317460192e+00,1.168378820619019596e-04,-8.855815696421622676e-06
3.161111111111110983e+00,1.139983982539122178e-04,-4.151281787396923520e-06
3.161904761904761774e+00,1.150018492928466944e-04,2.374175855859529483e-06
3.162698412698412564e+00,1.209211713242179314e-04,1.026295091034417220e-05
3.163492063492063355e+00,1.301653431203948200e-04,1.890195291963885473e-05
3.164285714285714146e+00,1.391015932633134298e-04,2.753152137573591058e-05
3.165079365079364937e+00,1.431859273567022721e-04,3.525853193097800461e-05
3.165873015873015728e+00,1.382722672580692386e-04,4.109700092999347818e-05
3.166666666666666519e+00,1.217558005493929462e-04,4.405635386199841885e-05
3.167460317460317309e+00,9.327917860726560035e-05,4.328358852782194095e-05
3.168253968253968100e+00,5.486387747000288733e-05,3.824309240263695352e-05
3.169047619047618891e+00,1.048676152751903892e-05,2.889488383805807102e-05
3.169841269841269682e+00,-3.474188756443197620e-05,1.581904440813924355e-05
3.170634920634920473e+00,-7.556994597590696312e-05,2.373899436818032512e-07
3.171428571428571264e+00,-1.075403781816373092e-04,-1.609786881006088029e-05
3.172222222222222054e+00,-1.277074085953823165e-04,-3.114913735440085944e-05
3.173015873015872845e+00,-1.350365843084321232e-04,-4.293703399297049938e-05
3.173809523809523636e+00,-1.304516442919670155e-04,-4.991280300111450134e-05
3.174603174603174427e+00,-1.165383430766424679e-04,-5.126897337746967489e-05
3.175396825396825218e+00,-9.696162762196417449e-05,-4.710384804916196760e-05
3.176190476190476009e+00,-7.569847902149296935e-05,-3.839067125650993397e-05
3.176984126984126799e+00,-5.622680383985326219e-05,-2.675419426737683486e-05
3.177777777777777590e+00,-4.083229013088185525e-05,-1.410744218874451397e-05
3.178571428571428381e+00,-3.018986606980965766e-05,-2.236179440233134632e-06
3.179365079365079172e+00,-2.333290748977787630e-05,7.568349604241683882e-06
3.180158730158729963e+00,-1.803870444105141246e-05,1.473827717612202716e-05
3.180952380952380754e+00,-1.154912826335946281e-05,1.946249059552731134e-05
3.181746031746031544e+00,-1.445497375029623998e-06,2.251782063190620390e-05
3.182539682539682335e+00,1.355515581534250938e-05,2.494744072933423331e-05
3.183333333333333126e+00,3.309797097223729701e-05,2.768044853131730457e-05
3.184126984126983917e+00,5.512096502383144193e-05,3.120255605951592777e-05
3.184920634920634708e+00,7.624708113873226556e-05,3.536848467779953351e-05
3.185714285714285499e+00,9.254437248695406894e-05,3.940127264753180074e-05
3.186507936507936289e+00,1.004504479142794942e-04,4.207121723381312939e-05
3.187301587301587080e+00,9.759861393473700175e-05,4.200407125502510724e-05
3.188095238095238315e+00,8.331634624316484937e-05,3.804162924931957181e-05
3.188888888888889106e+00,5.868635442259723475e-05,2.956837633085285545e-05
3.189682539682539897e+00,2.620764742833606891e-05,1.672490047660909142e-05
3.190476190476190688e+00,-1.079743924085261679e-05,4.532448796255990705e-07
3.191269841269841478e+00,-4.884049121656343752e-05,-1.763965247434211834e-05
3.192063492063492269e+00,-8.480962827331859093e-05,-3.556574010670336965e-05
3.192857142857143060e+00,-1.162708064292383112e-04,-5.131350354862287142e-05
3.193650793650793851e+00,-1.414864203078577119e-04,-6.319303249751648092e-05
3.194444444444444642e+00,-1.592083255377654025e-04,-7.009595780686046166e-05
3.195238095238095433e+00,-1.683804735654402366e-04,-7.162645556735766357e-05
3.196031746031746223e+00,-1.679138946436984823e-04,-6.808983652862800231e-05
3.196825396825397014e+00,-1.566634825035830415e-04,-6.035142483172685712e-05
3.197619047619047805e+00,-1.336565752529120731e-04,-4.960073575160092659e-05
3.198412698412698596e+00,-9.852860291784365076e-05,-3.707539277736866042e-05
3.199206349206349387e+00,-5.204096496722389364e-05,-2.381315700671560924e-05
3.200000000000000178e+00,3.488656653233673455e-06,-1.050109237157894585e-05
3.200793650793650968e+00,6.400930734441446178e-05,2.529794152503826073e-06
3.201587301587301759e+00,1.239232554828006451e-04,1.515834944050954789e-05
3.202380952380952550e+00,1.766576226370267211e-04,2.722275885656959439e-05
3.203174603174603341e+00,2.155532140596989497e-04,3.825915697910670950e-05
3.203968253968254132e+00,2.349331194510004099e-04,4.734105845272700610e-05
3.204761904761904923e+00,2.311644509835727903e-04,5.310721799267978670e-05
3.205555555555555713e+00,2.034936690515036094e-04,5.400252223864704387e-05
3.206349206349206504e+00,1.544355686565202770e-04,4.867925674271773585e-05
3.207142857142857295e+00,8.956245530146079319e-05,3.644765824935452446e-05
3.207936507936508086e+00,1.668443004401373719e-05,1.764563694910126213e-05
3.208730158730158877e+00,-5.541410128283190878e-05,-6.183940306856956450e-06
3.209523809523809668e+00,-1.183946623678737436e-04,-3.237852284481019247e-05
3.210317460317460458e+00,-1.656351707498768255e-04,-5.751931914294818922e-05
3.211111111111111249e+00,-1.931145871317383909e-04,-7.802215681256159923e-05
3.211904761904762040e+00,-1.997890056700017615e-04,-9.083325976472133244e-05
3.212698412698412831e+00,-1.874510753756799457e-04,-9.405565797458226903e-05
3.213492063492063622e+00,-1.601578159343741475e-04,-8.733346240297932227e-05
3.214285714285714413e+00,-1.233725616341557242e-04,-7.188741402457803369e-05
3.215079365079365203e+00,-8.299063142053458159e-05,-5.020014050413576523e-05
3.215873015873015994e+00,-4.440921844659387698e-05,-2.544850582277604704e-05
3.216666666666666785e+00,-1.177143176466646595e-05,-8.389705300416114113e-07
3.217460317460317576e+00,1.252501680982904433e-05,2.099106103238570128e-05
3.218253968253968367e+00,2.800604982952981429e-05,3.837947931150603265e-05
3.219047619047619158e+00,3.598202893656048628e-05,5.078791588187200505e-05
3.219841269841269948e+00,3.913020842439596020e-05,5.869118789284476743e-05
3.220634920634920739e+00,4.087289342798504046e-05,6.326018102040800110e-05
3.221428571428571530e+00,4.464476140926390747e-05,6.592926362440862408e-05
3.222222222222222321e+00,5.314791914992077790e-05,6.795928656403781660e-05
3.223015873015873112e+00,6.769520868176260653e-05,7.010132151879249114e-05
3.223809523809523903e+00,8.775191069258977408e-05,7.243147731854140676e-05
3.224603174603174693e+00,1.107967941259206223e-04,7.437420287779829080e-05
3.225396825396825484e+00,1.326072365406990282e-04,7.488247420751982855e-05
3.226190476190476275e+00,1.480005162557327628e-04,7.271609329729163140e-05
3.226984126984127066e+00,1.519341987009503866e-04,6.675537534997728949e-05
3.227777777777777857e+00,1.407274087205193666e-04,5.629438963670521103e-05
3.228571428571428648e+00,1.130830209227214560e-04,4.126336784990168360e-05
3.229365079365079438e+00,7.061845642293049067e-05,2.233399742469112715e-05
3.230158730158730229e+00,1.774345990461026761e-05,8.756503332162430376e-07
3.230952380952381020e+00,-3.909286413288879129e-05,-2.123704814927083220e-05
3.231746031746031811e+00,-9.258751407127170261e-05,-4.192351503851383634e-05
3.232539682539682602e+00,-1.358943361683871373e-04,-5.923103901596954847e-05
3.233333333333333393e+00,-1.637531255652690003e-04,-7.162501111242161741e-05
3.234126984126984183e+00,-1.732334184030808041e-04,-7.817632390127321213e-05
3.234920634920634974e+00,-1.640320312823531092e-04,-7.862108902840178896e-05
