Timestamp,Flexor carpi radialis,Extensor digitorum
2.000000000000000000e+00,7.197811330864501259e-07,-6.790874882995826109e-05
2.000793650793650791e+00,5.440151807849363356e-06,-5.880382026313193944e-05
2.001587301587301582e+00,1.026450393634129544e-05,-4.521680912063778162e-05
2.002380952380952372e+00,1.490448225216946395e-05,-2.862975743797704442e-05
2.003174603174603163e+00,1.897176380711438744e-05,-1.074317564580956991e-05
2.003968253968253954e+00,2.207694560279279102e-05,6.624067670764054702e-06
2.004761904761904745e+00,2.393985506655560148e-05,2.169702205756552052e-05
2.005555555555555536e+00,2.446855945802491031e-05,3.294200437352785013e-05
2.006349206349206327e+00,2.377283861436823079e-05,3.924587111127096129e-05
2.007142857142857117e+00,2.210308633232002106e-05,4.003856836490556022e-05
2.007936507936507908e+00,1.973775366798457236e-05,3.535100617667558625e-05
2.008730158730158699e+00,1.686631613649784348e-05,2.582068142212877581e-05
2.009523809523809490e+00,1.351898063785803467e-05,1.265743383144056528e-05
2.010317460317460281e+00,9.577458519409859101e-06,-2.434836320170277341e-06
2.011111111111111072e+00,4.869610428654186479e-06,-1.740314057741109685e-05
2.011904761904761862e+00,-6.846088060916814140e-07,-3.007798594975918336e-05
2.012698412698412653e+00,-6.934002427434943406e-06,-3.848069518050745635e-05
2.013492063492063444e+00,-1.342505742901467829e-05,-4.114435029136469902e-05
2.014285714285714235e+00,-1.943761209579796388e-05,-3.736248413866208838e-05
2.015079365079365026e+00,-2.412653110269561788e-05,-2.730282985995200715e-05
2.015873015873015817e+00,-2.672888657873675458e-05,-1.198141799808778187e-05
2.016666666666666607e+00,-2.677106583781117366e-05,6.857712838597540862e-06
2.017460317460317398e+00,-2.420714972195146800e-05,2.690695922210199943e-05
2.018253968253968189e+00,-1.943847408157987008e-05,4.549030355009384705e-05
2.019047619047618980e+00,-1.320057474005368297e-05,5.981349083128696236e-05
2.019841269841269771e+00,-6.350371339051057994e-06,6.729438122088424298e-05
2.020634920634920562e+00,3.717534409054617713e-07,6.596004870815199881e-05
2.021428571428571352e+00,6.514402439974249567e-06,5.484678403225204765e-05
2.022222222222222143e+00,1.195465798516294503e-05,3.430883116909244597e-05
2.023015873015872934e+00,1.679180953098663705e-05,6.146408771876199555e-06
2.023809523809523725e+00,2.114320887077769616e-05,-2.650549652333758662e-05
2.024603174603174516e+00,2.492881339426761939e-05,-5.954639170233932163e-05
2.025396825396825307e+00,2.773328684815187366e-05,-8.850969691165169457e-05
2.026190476190476097e+00,2.880595426206231652e-05,-1.093014893727202604e-04
2.026984126984126888e+00,2.721603773452231932e-05,-1.189234372520818993e-04
2.027777777777777679e+00,2.213619611744658216e-05,-1.160043266185397190e-04
2.028571428571428470e+00,1.318629819723285061e-05,-1.010173137249411116e-04
2.029365079365079261e+00,7.378559537500015657e-07,-7.616110608525777069e-05
2.030158730158730052e+00,-1.392936245093785599e-05,-4.497377259954734490e-05
2.030952380952380842e+00,-2.870220640617357651e-05,-1.178483658042079024e-05
2.031746031746031633e+00,-4.096679014789238101e-05,1.890429418137204266e-05
2.032539682539682424e+00,-4.814897975850404365e-05,4.305411731372099150e-05
2.033333333333333215e+00,-4.833844127046061181e-05,5.768908400206223982e-05
2.034126984126984006e+00,-4.082364769208845790e-05,6.140149420737919350e-05
2.034920634920634797e+00,-2.636693844688853909e-05,5.466144692942859624e-05
2.035714285714285587e+00,-7.113432831134347609e-06,3.983442027897799971e-05
2.036507936507936378e+00,1.385846616808259212e-05,2.085014972148792900e-05
2.037301587301587169e+00,3.321807148426400997e-05,2.540301537855928507e-06
2.038095238095237960e+00,4.809590596876151078e-05,-1.026158738864002882e-05
2.038888888888888751e+00,5.663343296437574158e-05,-1.370697305938020515e-05
2.039682539682539542e+00,5.823981854811733787e-05,-5.818710828829658371e-06
2.040476190476190332e+00,5.352381180404110645e-05,1.292537884029105265e-05
2.041269841269841123e+00,4.396243267455807104e-05,3.949271230356877664e-05
2.042063492063491914e+00,3.143453724459019594e-05,6.877917842711143753e-05
2.042857142857142705e+00,1.777064507920686270e-05,9.463062084818195385e-05
2.043650793650793496e+00,4.443355402835191740e-06,1.111913478494257229e-04
2.044444444444444287e+00,-7.544624090089255756e-06,1.142479241227302493e-04
2.045238095238095077e+00,-1.759648908730080926e-05,1.022180772491449499e-04
2.046031746031745868e+00,-2.536078510065554599e-05,7.652858172461610598e-05
2.046825396825396659e+00,-3.057256827308725599e-05,4.129423003484570609e-05
2.047619047619047450e+00,-3.297544838449702073e-05,2.390750256148857166e-06
2.048412698412698241e+00,-3.235917087624386580e-05,-3.384547053657865272e-05
2.049206349206349032e+00,-2.869435180647339143e-05,-6.198453741673320722e-05
2.049999999999999822e+00,-2.230191198855138769e-05,-7.862512652148073819e-05
2.050793650793650613e+00,-1.397455000167228010e-05,-8.301622586461542832e-05
2.051587301587301404e+00,-4.978368911695060033e-06,-7.703830656559867507e-05
2.052380952380952195e+00,3.099587084584290620e-06,-6.455963702263555848e-05
2.053174603174602986e+00,8.641004585080022538e-06,-5.033668273990505779e-05
2.053968253968253777e+00,1.035861827943091122e-05,-3.873100036772417421e-05
2.054761904761904567e+00,7.637478957303105596e-06,-3.255252749404304328e-05
2.055555555555555358e+00,7.600849621248612468e-07,-3.231865512601882055e-05
2.056349206349206149e+00,-9.053803938955694701e-06,-3.613882783636006871e-05
2.057142857142856940e+00,-1.981884979563342414e-05,-4.028818036528403955e-05
2.057936507936507731e+00,-2.914610687946602016e-05,-4.034340554731835962e-05
2.058730158730158522e+00,-3.472950946981567881e-05,-3.257983330708530298e-05
2.059523809523809312e+00,-3.485359456361172994e-05,-1.523383002991639238e-05
2.060317460317460103e+00,-2.879885866508250945e-05,1.074588090843514506e-05
2.061111111111110894e+00,-1.703373839746144864e-05,4.169934398580564826e-05
2.061904761904761685e+00,-1.135370467285077285e-06,7.203209951045292834e-05
2.062698412698412920e+00,1.653903476686819572e-05,9.555612442397099534e-05
2.063492063492063711e+00,3.333559130016206450e-05,1.070154959222270082e-04
2.064285714285714501e+00,4.681316866007586235e-05,1.033747264664487816e-04
2.065079365079365292e+00,5.516326509350990827e-05,8.453754634595368777e-05
2.065873015873016083e+00,5.746889172065458459e-05,5.334397653774572808e-05
2.066666666666666874e+00,5.378079456323712180e-05,1.489611690377032437e-05
2.067460317460317665e+00,4.502650748597605883e-05,-2.457573122038603377e-05
2.068253968253968456e+00,3.278826962455832166e-05,-5.900965634945663389e-05
2.069047619047619246e+00,1.899571583800954537e-05,-8.366649682146928119e-05
2.069841269841270037e+00,5.584676399493045720e-06,-9.589439260854006638e-05
2.070634920634920828e+00,-5.823799832240605072e-06,-9.536656917152736804e-05
2.071428571428571619e+00,-1.417074165784531636e-05,-8.379937010698140028e-05
2.072222222222222410e+00,-1.908634393564288142e-05,-6.429753950769162530e-05
2.073015873015873201e+00,-2.086886171381209932e-05,-4.056121255813228933e-05
2.073809523809523991e+00,-2.032038394686819721e-05,-1.618711700725898706e-05
2.074603174603174782e+00,-1.848523629903807257e-05,5.792617081676792716e-06
2.075396825396825573e+00,-1.636799064368511992e-05,2.311777193117395252e-05
2.076190476190476364e+00,-1.471252009986628550e-05,3.433489797719239451e-05
2.076984126984127155e+00,-1.389646672747149577e-05,3.876777366371993811e-05
2.077777777777777946e+00,-1.394911937612262239e-05,3.649346371174045826e-05
2.078571428571428736e+00,-1.465687263104165850e-05,2.833290630302657642e-05
2.079365079365079527e+00,-1.569801838146431377e-05,1.582402719102908763e-05
2.080158730158730318e+00,-1.675366342632555403e-05,1.136944135177034524e-06
2.080952380952381109e+00,-1.756557136018600281e-05,-1.310352730612658033e-05
2.081746031746031900e+00,-1.793971860986605266e-05,-2.411767503152870026e-05
2.082539682539682691e+00,-1.771539970154737504e-05,-2.940555911519468816e-05
2.083333333333333481e+00,-1.672966105496516065e-05,-2.728058697087678680e-05
2.084126984126984272e+00,-1.480497159349261520e-05,-1.739108669790896688e-05
2.084920634920635063e+00,-1.177606439663412001e-05,-1.054057099406792988e-06
2.085714285714285854e+00,-7.554745318597675896e-06,1.878050286159901335e-05
2.086507936507936645e+00,-2.215003004094327137e-06,3.803227947838483625e-05
2.087301587301587436e+00,3.931264704534551299e-06,5.240010700536898181e-05
2.088095238095238226e+00,1.030258910033416985e-05,5.845004496225689037e-05
2.088888888888889017e+00,1.608969543210403834e-05,5.455471857603388057e-05
2.089682539682539808e+00,2.038225935118677257e-05,4.137810550718274571e-05
2.090476190476190599e+00,2.236438594514405644e-05,2.174086359110010514e-05
2.091269841269841390e+00,2.153248640678527844e-05,-9.582201467731874639e-08
2.092063492063492181e+00,1.786852009420958088e-05,-1.951082969160762486e-05
2.092857142857142971e+00,1.190220762873250423e-05,-3.266027446945969507e-05
2.093650793650793762e+00,4.623837606820198026e-06,-3.737302909433658904e-05
2.094444444444444553e+00,-2.741593504677861283e-06,-3.359172101632209759e-05
2.095238095238095344e+00,-9.036026005614356983e-06,-2.327655978454783620e-05
2.096031746031746135e+00,-1.344975607315593089e-05,-9.832455782816761888e-06
2.096825396825396925e+00,-1.568926224749215984e-05,2.765344085393480851e-06
2.097619047619047716e+00,-1.597957709511088582e-05,1.092178657614642806e-05
2.098412698412698507e+00,-1.491330655837835551e-05,1.224136742916687028e-05
2.099206349206349298e+00,-1.321433353102051305e-05,6.064470288166507116e-06
2.100000000000000089e+00,-1.150612646602579715e-05,-6.370797297165618546e-06
2.100793650793650880e+00,-1.015696877344743290e-05,-2.217620848083070534e-05
2.101587301587301670e+00,-9.232524450148033916e-06,-3.744146481656063078e-05
2.102380952380952461e+00,-8.543581891962607509e-06,-4.813298060403343169e-05
2.103174603174603252e+00,-7.751692980134524278e-06,-5.106748694280068804e-05
2.103968253968254043e+00,-6.492129209040958737e-06,-4.470833064720718434e-05
2.104761904761904834e+00,-4.484041122747186884e-06,-2.954825582947772175e-05
2.105555555555555625e+00,-1.610169031317410407e-06,-7.950464964728494826e-06
2.106349206349206415e+00,2.043783360925439412e-06,1.650255109463163842e-05
2.107142857142857206e+00,6.195894254175996461e-06,3.992329226038310086e-05
2.107936507936507997e+00,1.042120232017330570e-05,5.897820031714818070e-05
2.108730158730158788e+00,1.424182189093763006e-05,7.143520185093900864e-05
2.109523809523809579e+00,1.723270904208662412e-05,7.632520061099070849e-05
2.110317460317460370e+00,1.911426709718216764e-05,7.382127371758709909e-05
2.111111111111111160e+00,1.980525211192677809e-05,6.500096662715418208e-05
2.111904761904761951e+00,1.942221949846083118e-05,5.159491189193507829e-05
2.112698412698412742e+00,1.823015011153799334e-05,3.572944927599604106e-05
2.113492063492063533e+00,1.656481181430212148e-05,1.963207896924093755e-05
2.114285714285714324e+00,1.475321738633234842e-05,5.301113142595694954e-06
2.115079365079365115e+00,1.305156202559351038e-05,-5.804448958818864653e-06
2.115873015873015905e+00,1.160615591116673906e-05,-1.297427308718543321e-05
2.116666666666666696e+00,1.043344160482554591e-05,-1.629564168572248078e-05
2.117460317460317487e+00,9.416525169510947744e-06,-1.653114501974122576e-05
2.118253968253968278e+00,8.322716179031437931e-06,-1.486368635335409326e-05
2.119047619047619069e+00,6.849288533232950600e-06,-1.257922605157569816e-05
2.119841269841269860e+00,4.698316468927210967e-06,-1.076775643194471245e-05
2.120634920634920650e+00,1.668968861735538681e-06,-1.011370815602824578e-05
2.121428571428571441e+00,-2.256544545854726155e-06,-1.081998997939876355e-05
2.122222222222222232e+00,-6.862818946784963724e-06,-1.266941244810778201e-05
2.123015873015873023e+00,-1.171090131808810994e-05,-1.518629066934317170e-05
2.123809523809523814e+00,-1.621411150293270177e-05,-1.783640556663722976e-05
2.124603174603174605e+00,-1.976134168668071869e-05,-2.020324712251294326e-05
2.125396825396825395e+00,-2.184853895002891787e-05,-2.209643188390755984e-05
2.126190476190476186e+00,-2.217639620371764005e-05,-2.357175072883957586e-05
2.126984126984126977e+00,-2.069067811343473846e-05,-2.486321398572005216e-05
2.127777777777777768e+00,-1.756866412686754948e-05,-2.624559849865104326e-05
2.128571428571428559e+00,-1.317304826206883823e-05,-2.786426043949238315e-05
2.129365079365079350e+00,-7.995365731792512850e-06,-2.958537066230941117e-05
2.130158730158730140e+00,-2.600436911583451834e-06,-3.092590749044769638e-05
2.130952380952380931e+00,2.428037631968995644e-06,-3.111035129328255466e-05
2.131746031746031722e+00,6.546187896912693492e-06,-2.926764095604001624e-05
2.132539682539682513e+00,9.316361198453540751e-06,-2.473260647020124754e-05
2.133333333333333304e+00,1.047597024533601427e-05,-1.736421481574635268e-05
2.134126984126984095e+00,9.993721842452443451e-06,-7.760307882372186758e-06
2.134920634920634885e+00,8.094355215008055093e-06,2.742021534771910592e-06
2.135714285714285676e+00,5.238376315830643978e-06,1.232976676301984081e-05
2.136507936507936467e+00,2.054151947535569221e-06,1.919177412232377891e-05
2.137301587301587258e+00,-7.690529841740795570e-07,2.206505074208308813e-05
2.138095238095238049e+00,-2.609050632496297987e-06,2.065620136855892951e-05
2.138888888888888840e+00,-3.034520050123439395e-06,1.577557192526944955e-05
2.139682539682539630e+00,-1.896620202647737944e-06,9.123640577789623071e-06
2.140476190476190421e+00,6.352050649523863988e-07,2.798231475084489512e-06
2.141269841269841212e+00,4.104803778720905516e-06,-1.310594965546053179e-06
2.142063492063492003e+00,7.863063141056044107e-06,-2.042976453832795797e-06
2.142857142857142794e+00,1.120251597973059677e-05,7.432111844370147405e-07
2.143650793650793585e+00,1.350158480976572275e-05,6.187165399065129402e-06
2.144444444444444375e+00,1.434614791066009543e-05,1.271626285010969610e-05
2.145238095238095166e+00,1.360263775530967086e-05,1.851012224298312830e-05
2.146031746031745957e+00,1.142875245148741934e-05,2.199299286057944942e-05
2.146825396825396748e+00,8.223298224545867014e-06,2.221634435219811864e-05
2.147619047619047539e+00,4.531683957617081600e-06,1.904241195795815527e-05
2.148412698412698330e+00,9.318332973546142565e-07,1.310904650068330136e-05
2.149206349206349120e+00,-2.075539821118973190e-06,5.620311790935140462e-06
2.149999999999999911e+00,-4.153432448543928860e-06,-1.954188059936074167e-06
2.150793650793650702e+00,-5.177074741877249697e-06,-8.183078141074490470e-06
2.151587301587301493e+00,-5.233952454754221741e-06,-1.191454506209822893e-05
2.152380952380952284e+00,-4.573867963488238569e-06,-1.242625474552725216e-05
2.153174603174603075e+00,-3.522011273206820917e-06,-9.489603698431258594e-06
2.153968253968253865e+00,-2.381554254372603507e-06,-3.373742281526253043e-06
2.154761904761904656e+00,-1.356834971553500655e-06,5.186872736308980297e-06
2.155555555555555447e+00,-5.208262270040421578e-07,1.505608949907929823e-05
2.156349206349206238e+00,1.651288795535038772e-07,2.480589104511262021e-05
2.157142857142857029e+00,7.897156690847876995e-07,3.289225018422737570e-05
2.157936507936507819e+00,1.414490127378360134e-06,3.789736288543775662e-05
2.158730158730158610e+00,2.014869578940147220e-06,3.880243719565651411e-05
2.159523809523809401e+00,2.466314419104176479e-06,3.522179951490038435e-05
2.160317460317460192e+00,2.582626569768154890e-06,2.751909141687218545e-05
2.161111111111110983e+00,2.188765868506059805e-06,1.675126741096180863e-05
2.161904761904761774e+00,1.194349082470619026e-06,4.439995717175234469e-06
2.162698412698412564e+00,-3.649390877953142877e-07,-7.771058313575668889e-06
2.163492063492063355e+00,-2.332634732532547517e-06,-1.847837611041845961e-05
2.164285714285714146e+00,-4.473559295360798000e-06,-2.680407690442716869e-05
2.165079365079364937e+00,-6.526909500503037916e-06,-3.253403872154623025e-05
2.165873015873015728e+00,-8.246094731553981749e-06,-3.607466767982733406e-05
2.166666666666666519e+00,-9.416336451035107121e-06,-3.823466372168113819e-05
2.167460317460317309e+00,-9.858685697739102573e-06,-3.988276999466769211e-05
2.168253968253968100e+00,-9.437767769110052402e-06,-4.157787694408544854e-05
2.169047619047618891e+00,-8.085554454870506229e-06,-4.329626132438004323e-05
2.169841269841269682e+00,-5.839072913497089781e-06,-4.436692363635345767e-05
2.170634920634920473e+00,-2.875617170899809739e-06,-4.365797480248272421e-05
2.171428571428571264e+00,4.772523507885975372e-07,-3.995605373111018644e-05
2.172222222222222054e+00,3.774373596249470006e-06,-3.239875893607945830e-05
2.173015873015872845e+00,6.530328432625506496e-06,-2.080585728880611807e-05
2.173809523809523636e+00,8.324490765745303384e-06,-5.814675474160722138e-06
2.174603174603174427e+00,8.903413687670846233e-06,1.118417236016848936e-05
2.175396825396825218e+00,8.248123750650678673e-06,2.824976814727813587e-05
2.176190476190476009e+00,6.583010766072155980e-06,4.316178829549882558e-05
2.176984126984126799e+00,4.319984575058057955e-06,5.372009578716385270e-05
2.177777777777777590e+00,1.951690417428865651e-06,5.806844963428782415e-05
2.178571428571428381e+00,-7.550647842614288601e-08,5.504163211478298564e-05
2.179365079365079172e+00,-1.471031550927887187e-06,4.450090673873599280e-05
2.180158730158729963e+00,-2.160955094663732993e-06,2.757281516446888106e-05
2.180952380952380754e+00,-2.286807951880012181e-06,6.677883787035634463e-06
2.181746031746031544e+00,-2.149517659665013745e-06,-1.474286569073350318e-05
2.182539682539682335e+00,-2.119701572372846956e-06,-3.281903066096195434e-05
2.183333333333333126e+00,-2.539398729374273932e-06,-4.406381293865370527e-05
2.184126984126983917e+00,-3.636712809175293082e-06,-4.621034835375536695e-05
2.184920634920634708e+00,-5.468610597946767522e-06,-3.882647544336598937e-05
2.185714285714285499e+00,-7.900732237667778285e-06,-2.350165939470969301e-05
2.186507936507936289e+00,-1.062636867668712319e-05,-3.518186660212299002e-06
2.187301587301587080e+00,-1.321955832255701039e-05,1.692081528992787180e-05
2.188095238095238315e+00,-1.521101365109030917e-05,3.369080721106385126e-05
2.188888888888889106e+00,-1.617265036235969371e-05,4.368932853395750672e-05
2.189682539682539897e+00,-1.579773182484385297e-05,4.547351860772476747e-05
2.190476190476190688e+00,-1.396713077306489479e-05,3.945358453889956672e-05
2.191269841269841478e+00,-1.079477790525876875e-05,2.764270288471870442e-05
2.192063492063492269e+00,-6.645290169161909449e-06,1.307927776354662444e-05
2.192857142857143060e+00,-2.115013331143881514e-06,-9.003905149677870126e-07
2.193650793650793851e+00,2.032289660218066283e-06,-1.136057959205612673e-05
2.194444444444444642e+00,4.978133340838881163e-06,-1.630615845347714869e-05
2.195238095238095433e+00,6.001191160786865171e-06,-1.500197279963807056e-05
2.196031746031746223e+00,4.644735154527617686e-06,-8.060539497290292348e-06
2.196825396825397014e+00,8.651383750440582712e-07,2.693415596610918860e-06
2.197619047619047805e+00,-4.877528844368932311e-06,1.456863966791752022e-05
2.198412698412698596e+00,-1.162311847498692005e-05,2.453273497387871229e-05
2.199206349206349387e+00,-1.803330601084683494e-05,2.984657738890288584e-05
2.200000000000000178e+00,-2.263063549342983672e-05,2.869129973884437131e-05
2.200793650793650968e+00,-2.411753321206611738e-05,2.064522900039063072e-05
2.201587301587301759e+00,-2.170318112283132803e-05,6.878035305480035278e-06
2.202380952380952550e+00,-1.534912850825217081e-05,-1.002102383292580565e-05
2.203174603174603341e+00,-5.855962952869821306e-06,-2.657929448251383124e-05
2.203968253968254132e+00,5.249758524645759297e-06,-3.923458819241102096e-05
2.204761904761904923e+00,1.602066808458612609e-05,-4.518534993213119979e-05
2.205555555555555713e+00,2.453221139528562658e-05,-4.305669762319212670e-05
2.206349206349206504e+00,2.937301832163620528e-05,-3.318934081228734433e-05
2.207142857142857295e+00,3.006135945119519393e-05,-1.748116922960171071e-05
2.207936507936508086e+00,2.725683862278134066e-05,1.141774711016829991e-06
2.208730158730158877e+00,2.266340159011693775e-05,1.943810475876555852e-05
2.209523809523809668e+00,1.859507148424177154e-05,3.452652492650516421e-05
2.210317460317460458e+00,1.728741860202545101e-05,4.434627652724007642e-05
2.211111111111111249e+00,2.014640952999489026e-05,4.781856941260782606e-05
2.211904761904762040e+00,2.717932952562318694e-05,4.473365252970198453e-05
2.212698412698412831e+00,3.681357036399195219e-05,3.548313515699991650e-05
2.213492063492063622e+00,4.618646698981402775e-05,2.080711038980476569e-05
2.214285714285714413e+00,5.183545303075241215e-05,1.699192685742507397e-06
2.215079365079365203e+00,5.059557497611846051e-05,-2.048914675409522433e-05
2.215873015873015994e+00,4.045845913383863939e-05,-4.383039641389417467e-05
2.216666666666666785e+00,2.116615523900898855e-05,-6.566089340120944860e-05
2.217460317460317576e+00,-5.613103420011506739e-06,-8.265948339015461441e-05
2.218253968253968367e+00,-3.657540622254518641e-05,-9.127570406549016346e-05
2.219047619047619158e+00,-6.747112823024093797e-05,-8.849035743994966975e-05
2.219841269841269948e+00,-9.402190681126836838e-05,-7.274012380509972870e-05
2.220634920634920739e+00,-1.128191178295758949e-04,-4.471428761046089811e-05
2.221428571428571530e+00,-1.219466291096851779e-04,-7.698604605336492254e-06
2.222222222222222321e+00,-1.211440878609529738e-04,3.275636860083396061e-05
2.223015873015873112e+00,-1.114805931544351114e-04,6.984413215075368239e-05
2.223809523809523903e+00,-9.469066824346402550e-05,9.693890237572305290e-05
2.224603174603174693e+00,-7.245276604139335385e-05,1.090462841461649975e-04
2.225396825396825484e+00,-4.590108890416883018e-05,1.038530828424728413e-04
2.226190476190476275e+00,-1.555040679829971891e-05,8.211644474215529189e-05
2.226984126984127066e+00,1.836317062053239530e-05,4.736058035086945333e-05
2.227777777777777857e+00,5.528557402293875699e-05,5.047442595877135422e-06
2.228571428571428648e+00,9.374297357197596502e-05,-3.850567944496114780e-05
2.229365079365079438e+00,1.309891294063100515e-04,-7.717880342303519827e-05
2.230158730158730229e+00,1.630898797278890297e-04,-1.058544569989307971e-04
2.230952380952381020e+00,1.855121494198446971e-04,-1.208740994460594958e-04
2.231746031746031811e+00,1.941209574973852439e-04,-1.201788441327506651e-04
2.232539682539682602e+00,1.863171728589446045e-04,-1.032691786871359327e-04
2.233333333333333393e+00,1.619435593825017223e-04,-7.114166309946600396e-05
2.234126984126984183e+00,1.236157819423029961e-04,-2.630035109796206654e-05
2.234920634920634974e+00,7.631019659585235612e-05,2.716443577996695142e-05
2.235714285714285765e+00,2.629794348346659456e-05,8.353504535828400190e-05
2.236507936507936556e+00,-2.025239055513288676e-05,1.356244933137520589e-04
2.237301587301587347e+00,-5.856919887512630887e-05,1.753008197310221619e-04
2.238095238095238138e+00,-8.608355918237181592e-05,1.944944490716866276e-04
2.238888888888888928e+00,-1.025426149502326850e-04,1.866797430035346806e-04
2.239682539682539719e+00,-1.094686095602487693e-04,1.486217888233472577e-04
2.240476190476190510e+00,-1.092144277644169074e-04,8.196095750113842977e-05
2.241269841269841301e+00,-1.039805364682153138e-04,-5.927366828309946870e-06
2.242063492063492092e+00,-9.514099208793192083e-05,-1.023103585863930970e-04
2.242857142857142883e+00,-8.308815777977194216e-05,-1.909422837831581757e-04
2.243650793650793673e+00,-6.759525472971478503e-05,-2.551543443549612162e-04
2.244444444444444464e+00,-4.848941727460448682e-05,-2.815215747007703342e-04
2.245238095238095255e+00,-2.631040086250643133e-05,-2.631751773081617376e-04
2.246031746031746046e+00,-2.655317159110450027e-06,-2.018318290725624195e-04
2.246825396825396837e+00,1.993818755954356416e-05,-1.078782143233225844e-04
2.247619047619047628e+00,3.851993947210909054e-05,1.662841292812499051e-06
2.248412698412698418e+00,5.046461969987697474e-05,1.068522874610930824e-04
2.249206349206349209e+00,5.416226038854104536e-05,1.892777280791669539e-04
2.250000000000000000e+00,4.944470257070459934e-05,2.360141950504740028e-04
2.250793650793650791e+00,3.762958699026468522e-05,2.420605948687078375e-04
2.251587301587301582e+00,2.118428604377989549e-05,2.107286605685087795e-04
2.252380952380952372e+00,3.123033982414522068e-06,1.521277451873484889e-04
2.253174603174603163e+00,-1.367859508700416429e-05,8.041565186615078835e-05
2.253968253968253954e+00,-2.705969268256481661e-05,1.066382684380197285e-05
2.254761904761904745e+00,-3.590386136579156476e-05,-4.398182373688718416e-05
2.255555555555555536e+00,-4.017785247033351168e-05,-7.447541575017990972e-05
2.256349206349206327e+00,-4.072042692321799933e-05,-7.724020042988528000e-05
2.257142857142857117e+00,-3.887373790572271640e-05,-5.464950039257448794e-05
2.257936507936507908e+00,-3.606097103628904614e-05,-1.450972386634114690e-05
2.258730158730158699e+00,-3.340366955310830166e-05,3.152546756509391556e-05
2.259523809523809490e+00,-3.145686069388285559e-05,7.048808572664090784e-05
2.260317460317460281e+00,-3.011857863258556015e-05,9.113570975589815187e-05
2.261111111111111072e+00,-2.873153551629918198e-05,8.674843210650008023e-05
2.261904761904761862e+00,-2.634051126760942745e-05,5.682918059332959815e-05
2.262698412698412653e+00,-2.202220293855987110e-05,7.109485234538116518e-06
2.263492063492063444e+00,-1.518915193312847224e-05,-5.216309531337163803e-05
2.264285714285714235e+00,-5.789913085515146979e-06,-1.090544999928999098e-04
2.265079365079365026e+00,5.632175714347545072e-06,-1.529310840597540610e-04
2.265873015873015817e+00,1.801866124654990245e-05,-1.767012828746476164e-04
2.266666666666666607e+00,2.998131249705885556e-05,-1.777971739349303070e-04
2.267460317460317398e+00,4.004422033121766500e-05,-1.578824572719611042e-04
2.268253968253968189e+00,4.688948169406584456e-05,-1.216728455616883315e-04
2.269047619047618980e+00,4.955879851173602415e-05,-7.542553434020690499e-05
2.269841269841269771e+00,4.757828191350482630e-05,-2.558675041846389527e-05
2.270634920634920562e+00,4.099655219737266478e-05,2.213073204616864778e-05
2.271428571428571352e+00,3.035045128721104016e-05,6.320682696105947617e-05
2.272222222222222143e+00,1.658876620996062263e-05,9.443965371570661575e-05
2.273015873015872934e+00,9.847065640206419392e-07,1.139205244891601315e-04
2.273809523809523725e+00,-1.494834079975672819e-05,1.210031286436826273e-04
2.274603174603174516e+00,-2.954765543855947580e-05,1.163184094688133279e-04
2.275396825396825307e+00,-4.112615150718641391e-05,1.017797689920843274e-04
2.276190476190476097e+00,-4.815672623104353414e-05,8.044885403717442172e-05
2.276984126984126888e+00,-4.951534867937859254e-05,5.613698866363762415e-05
2.277777777777777679e+00,-4.474077629526309306e-05,3.271975575995522429e-05
2.278571428571428470e+00,-3.423092714929978068e-05,1.330215856775106966e-05
2.279365079365079261e+00,-1.928715626913692652e-05,-4.982288278117700278e-07
2.280158730158730052e+00,-1.953993845002820898e-06,-8.864484239606039900e-06
2.280952380952380842e+00,1.532795442834328795e-05,-1.352448050670058526e-05
2.281746031746031633e+00,3.016996181404998654e-05,-1.697575693020198813e-05
2.282539682539682424e+00,4.066591050729627925e-05,-2.145734173346230638e-05
2.283333333333333215e+00,4.570188025468634998e-05,-2.805272140127790554e-05
2.284126984126984006e+00,4.508642919724823903e-05,-3.627080555972838271e-05
2.284920634920634797e+00,3.949672385453185231e-05,-4.426862326288121652e-05
2.285714285714285587e+00,3.027808920346325053e-05,-4.962216535401542633e-05
2.286507936507936378e+00,1.915820865094747374e-05,-5.032976969714601085e-05
2.287301587301587169e+00,7.941628145413637783e-06,-4.564785633855120866e-05
2.288095238095237960e+00,-1.761288424955204049e-06,-3.645026947536794871e-05
2.288888888888888751e+00,-8.736987453596513283e-06,-2.501542933562670912e-05
2.289682539682539542e+00,-1.228780755851409310e-05,-1.436269694130995345e-05
2.290476190476190332e+00,-1.226382290753399116e-05,-7.380168497174043721e-06
2.291269841269841123e+00,-9.011627360010717906e-06,-5.992821363324610262e-06
2.292063492063491914e+00,-3.257133693519809984e-06,-1.056999268323220672e-05
2.292857142857142705e+00,4.043302461745256256e-06,-1.972195520743276359e-05
2.293650793650793496e+00,1.184213482988157803e-05,-3.058064903052608210e-05
2.294444444444444287e+00,1.910462005904131830e-05,-3.955089198252427290e-05
2.295238095238095077e+00,2.488194517641519027e-05,-4.334837112173737822e-05
2.296031746031745868e+00,2.837838035908766247e-05,-3.998882707640977787e-05
2.296825396825396659e+00,2.903217005179530331e-05,-2.937094743304553214e-05
2.297619047619047450e+00,2.660441118361005705e-05,-1.324404541689780257e-05
2.298412698412698241e+00,2.124449167250106480e-05,5.404664837710836330e-06
2.299206349206349032e+00,1.349358686746699274e-05,2.329681709194221121e-05
2.299999999999999822e+00,4.205169025451265873e-06,3.780161684403597985e-05
2.300793650793650613e+00,-5.605614066967498131e-06,4.755903463933718500e-05
2.301587301587301404e+00,-1.494142703131179210e-05,5.261957615000462335e-05
2.302380952380952195e+00,-2.297734484260147560e-05,5.412507943001076716e-05
2.303174603174602986e+00,-2.915017416106633686e-05,5.372362940106255964e-05
2.303968253968253777e+00,-3.317302304652820956e-05,5.298642346904587793e-05
2.304761904761904567e+00,-3.499726474505608187e-05,5.304199202376410174e-05
2.305555555555555358e+00,-3.475863748426360046e-05,5.448565654410480579e-05
2.306349206349206149e+00,-3.273459929814469499e-05,5.745277644043248144e-05
2.307142857142856940e+00,-2.931570603923838213e-05,6.168470331935754769e-05
2.307936507936507731e+00,-2.497371625810066792e-05,6.650318574454600214e-05
2.308730158730158522e+00,-2.020757759522387209e-05,7.074969669181806989e-05
2.309523809523809312e+00,-1.546589596478537042e-05,7.281970860784652184e-05
2.310317460317460103e+00,-1.106797740048281378e-05,7.089029208183092402e-05
2.311111111111110894e+00,-7.156964254568444206e-06,6.334276431410356181e-05
2.311904761904761685e+00,-3.707812674713321086e-06,4.927520545773620401e-05
2.312698412698412920e+00,-5.865046924211530310e-07,2.892588860456933326e-05
2.313492063492063711e+00,2.366357253449611186e-06,3.823889669254056139e-06
2.314285714285714501e+00,5.259778900789203605e-06,-2.343510798850796233e-05
2.315079365079365292e+00,8.105212529931487159e-06,-4.974489729700708564e-05
2.315873015873016083e+00,1.080344126495052635e-05,-7.219320614094667035e-05
2.316666666666666874e+00,1.316267162775530169e-05,-8.867207303309204626e-05
2.317460317460317665e+00,1.494459855837949288e-05,-9.820729878830211396e-05
2.318253968253968456e+00,1.593376753865638913e-05,-1.009517238442793726e-04
2.319047619047619246e+00,1.601350840385861121e-05,-9.791551102473904534e-05
2.319841269841270037e+00,1.521376262294411909e-05,-9.057201964008984693e-05
2.320634920634920828e+00,1.369375560531532397e-05,-8.047166796900355077e-05
2.321428571428571619e+00,1.165187395350899401e-05,-6.894951606019818929e-05
2.322222222222222410e+00,9.204231025302074076e-06,-5.696582677960429362e-05
2.323015873015873201e+00,6.307688677170326556e-06,-4.509335977842606234e-05
2.323809523809523991e+00,2.793515392593902184e-06,-3.364599922216379263e-05
2.324603174603174782e+00,-1.476654068323368609e-06,-2.290190939105964799e-05
2.325396825396825573e+00,-6.391675575223721895e-06,-1.331594479771152931e-05
2.326190476190476364e+00,-1.141391525677527355e-05,-5.590932605259734736e-06
2.326984126984127155e+00,-1.554503533473594192e-05,-5.297166833889627632e-07
2.327777777777777946e+00,-1.748447190669221438e-05,1.296208216443570533e-06
2.328571428571428736e+00,-1.596149895400053088e-05,-8.372665964690524016e-08
2.329365079365079527e+00,-1.015883893018833737e-05,-3.820362724275276999e-06
2.330158730158730318e+00,-9.976624750308328524e-08,-8.325763613753545933e-06
2.330952380952381109e+00,1.314648953242459387e-05,-1.169413206999661701e-05
2.331746031746031900e+00,2.755316146086311414e-05,-1.235340080985995871e-05
2.332539682539682691e+00,4.053835574846817680e-05,-9.697386808569023292e-06
2.333333333333333481e+00,4.958090056252291330e-05,-4.396324888998612265e-06
2.334126984126984272e+00,5.285896623697223612e-05,1.815099883190698556e-06
2.334920634920635063e+00,4.970822970048718636e-05,6.843293272334563965e-06
2.335714285714285854e+00,4.076342312460639987e-05,9.167134872645883953e-06
2.336507936507936645e+00,2.775648203100529381e-05,8.609238006600813701e-06
2.337301587301587436e+00,1.304920541273536613e-05,6.619179806717728174e-06
2.338095238095238226e+00,-9.545949884057564843e-07,5.939998138733537845e-06
2.338888888888889017e+00,-1.235526966822049430e-05,9.771619978865904007e-06
2.339682539682539808e+00,-2.012709842474403815e-05,2.071865002653407474e-05
2.340476190476190599e+00,-2.423363339222428623e-05,3.985527827040336680e-05
2.341269841269841390e+00,-2.547910194932338776e-05,6.617748875170878270e-05
2.342063492063492181e+00,-2.515184970229541924e-05,9.659282660796739042e-05
2.342857142857142971e+00,-2.456629609554229218e-05,1.264486053239583364e-04
2.343650793650793762e+00,-2.463556674360730932e-05,1.504459083504614176e-04
2.344444444444444553e+00,-2.560069450660427048e-05,1.636832056991155079e-04
2.345238095238095344e+00,-2.699957949050511174e-05,1.625728882860500368e-04
2.346031746031746135e+00,-2.788240929631907467e-05,1.454753719478337241e-04
2.346825396825396925e+00,-2.719119398662640523e-05,1.130296185667442447e-04
2.347619047619047716e+00,-2.416025942774749561e-05,6.822744759452581062e-05
2.348412698412698507e+00,-1.859612915871244854e-05,1.623078227906459418e-05
2.349206349206349298e+00,-1.095608364742517633e-05,-3.617249473388971828e-05
2.350000000000000089e+00,-2.227000504495434387e-06,-8.159250544020031442e-05
2.350793650793650880e+00,6.330590417373131005e-06,-1.134920503536666203e-04
2.351587301587301670e+00,1.348202221629095662e-05,-1.277484482633878184e-04
2.352380952380952461e+00,1.827727739569543158e-05,-1.238145419601351940e-04
2.353174603174603252e+00,2.021274158977888621e-05,-1.050248616385411453e-04
2.353968253968254043e+00,1.927657036915023887e-05,-7.786732214735588833e-05
2.354761904761904834e+00,1.589179171521032564e-05,-5.038958801959876691e-05
2.355555555555555625e+00,1.079063038628997196e-05,-3.017994801522974401e-05
2.356349206349206415e+00,4.857045477402982645e-06,-2.247306848517667324e-05
2.357142857142857206e+00,-1.030738967528260927e-06,-2.887144839128087372e-05
2.357936507936507997e+00,-6.133274838071526634e-06,-4.698590641495427491e-05
2.358730158730158788e+00,-9.942238884981736058e-06,-7.105653769320245444e-05
2.359523809523809579e+00,-1.222447967710418112e-05,-9.338852567510360617e-05
2.360317460317460370e+00,-1.301747845488875299e-05,-1.062632707674527797e-04
2.361111111111111160e+00,-1.258147592750190532e-05,-1.038847123971898065e-04
2.361904761904761951e+00,-1.131888874519033031e-05,-8.391247174570599465e-05
2.362698412698412742e+00,-9.677419576990144829e-06,-4.821899445822665448e-05
2.363492063492063533e+00,-8.057236209615195870e-06,-2.659783857565054964e-06
2.364285714285714324e+00,-6.741779214978916576e-06,4.416144007200909974e-05
2.365079365079365115e+00,-5.865203861531567074e-06,8.291673096784844192e-05
2.365873015873015905e+00,-5.418907112976747019e-06,1.058916485004613047e-04
2.366666666666666696e+00,-5.288472823782814771e-06,1.089717204590390638e-04
2.367460317460317487e+00,-5.304546581149816499e-06,9.264087550342573222e-05
2.368253968253968278e+00,-5.289510194292199530e-06,6.166938813808294851e-05
2.369047619047619069e+00,-5.087000838152645110e-06,2.364883969837743477e-05
2.369841269841269860e+00,-4.571232178377636938e-06,-1.307457401409525066e-05
2.370634920634920650e+00,-3.643516494893609428e-06,-4.139866699641046779e-05
2.371428571428571441e+00,-2.229445708263384462e-06,-5.687727343094785065e-05
2.372222222222222232e+00,-2.882525101050844457e-07,-5.830156371361427687e-05
2.373015873015873023e+00,2.164006596286147370e-06,-4.746367119210883928e-05
2.373809523809523814e+00,5.028349040222046097e-06,-2.829681804996180041e-05
2.374603174603174605e+00,8.111373630639325452e-06,-5.689227439974058029e-06
2.375396825396825395e+00,1.114092345360369539e-05,1.570396048478024369e-05
2.376190476190476186e+00,1.380763527289122074e-05,3.238026678057333204e-05
2.376984126984126977e+00,1.581812225436815509e-05,4.248800293104452362e-05
2.377777777777777768e+00,1.694190348127630699e-05,4.588264278215136360e-05
2.378571428571428559e+00,1.704083665409606682e-05,4.382198633528057370e-05
2.379365079365079350e+00,1.608059730259092109e-05,3.843983786145134404e-05
2.380158730158730140e+00,1.413083683659895360e-05,3.216728452238880917e-05
2.380952380952380931e+00,1.135983558020739259e-05,2.726173501957686871e-05
2.381746031746031722e+00,8.022836007137396726e-06,2.552990597018623670e-05
2.382539682539682513e+00,4.437844743652171627e-06,2.820484633308194109e-05
2.383333333333333304e+00,9.448446275895271340e-07,3.584225042321181681e-05
2.384126984126984095e+00,-2.146371905666711859e-06,4.812720402358067884e-05
2.384920634920634885e+00,-4.605127092455196125e-06,6.362514510139119040e-05
2.385714285714285676e+00,-6.308677890826367353e-06,7.965942000763463293e-05
2.386507936507936467e+00,-7.241255190924496546e-06,9.252855943217834934e-05
2.387301587301587258e+00,-7.466482801560780045e-06,9.815345727874924292e-05
2.388095238095238049e+00,-7.087484429552028802e-06,9.303799549616440813e-05
2.388888888888888840e+00,-6.212287279491639866e-06,7.525266402873762581e-05
2.389682539682539630e+00,-4.936851905190130555e-06,4.510096390447911421e-05
2.390476190476190421e+00,-3.348501129111324236e-06,5.231157761284929578e-06
2.391269841269841212e+00,-1.543554301312711500e-06,-3.983404748318577094e-05
2.392063492063492003e+00,3.527590694268820544e-07,-8.456541401010878945e-05
2.392857142857142794e+00,2.176876085065061694e-06,-1.234032609420470067e-04
2.393650793650793585e+00,3.735463391954286732e-06,-1.515908216938931068e-04
2.394444444444444375e+00,4.829873073653333625e-06,-1.657428216196540395e-04
2.395238095238095166e+00,5.286200399601642167e-06,-1.641592562311094754e-04
2.396031746031745957e+00,4.979445678664101805e-06,-1.469636335913840114e-04
2.396825396825396748e+00,3.846863732592782147e-06,-1.161254146236436363e-04
2.397619047619047539e+00,1.895155148143664000e-06,-7.534468982018941645e-05
2.398412698412698330e+00,-7.885492682619222231e-07,-2.971211262112794139e-05
2.399206349206349120e+00,-4.016186946249008686e-06,1.491810403798997450e-05
2.399999999999999911e+00,-7.476627916338343670e-06,5.279662869124078468e-05
2.400793650793650702e+00,-1.073559283135114440e-05,7.923095889278547184e-05
2.401587301587301493e+00,-1.328617198421165995e-05,9.141075887683299016e-05
2.402380952380952284e+00,-1.466081702063187620e-05,8.890823392293291394e-05
2.403174603174603075e+00,-1.457822147306016210e-05,7.370647442372156946e-05
2.403968253968253865e+00,-1.306330572794362441e-05,4.969536740842508580e-05
2.404761904761904656e+00,-1.047319703984657799e-05,2.171075808352861656e-05
2.405555555555555447e+00,-7.397539706429402232e-06,-5.639108918394876901e-06
2.406349206349206238e+00,-4.461796764579904072e-06,-2.899501141248674548e-05
2.407142857142857029e+00,-2.114627049903878830e-06,-4.677202783430799767e-05
2.407936507936507819e+00,-4.952736921478932359e-07,-5.902674123636909826e-05
2.408730158730158610e+00,5.560444181876766999e-07,-6.676530431164009788e-05
2.409523809523809401e+00,1.348120441867792443e-06,-7.100396010874416035e-05
2.410317460317460192e+00,2.120192450043710687e-06,-7.196621682157681467e-05
2.411111111111110983e+00,2.861000998854862738e-06,-6.872316886330032213e-05
2.411904761904761774e+00,3.256634443519782598e-06,-5.941476505301033389e-05
2.412698412698412564e+00,2.801239599182772488e-06,-4.200124431963375157e-05
2.413492063492063355e+00,1.032982079141209922e-06,-1.532728119853429014e-05
2.414285714285714146e+00,-2.197739288438523723e-06,1.983761505517031429e-05
2.415079365079364937e+00,-6.538117319667378066e-06,6.015758270199919442e-05
2.415873015873015728e+00,-1.110297294117269417e-05,9.979387317089994877e-05
2.416666666666666519e+00,-1.462465276430761960e-05,1.313049450547795793e-04
2.417460317460317309e+00,-1.573474876950166509e-05,1.472705350038060862e-04
2.418253968253968100e+00,-1.328942787575948932e-05,1.422698836368466526e-04
2.419047619047618891e+00,-6.651762449484418186e-06,1.146477244853773183e-04
2.419841269841269682e+00,4.123166181880316053e-06,6.745690621975783039e-05
2.420634920634920473e+00,1.821663060887156838e-05,8.150503595671264033e-06
2.421428571428571264e+00,3.408460738812687607e-05,-5.300516380085701807e-05
2.422222222222222054e+00,4.960810625472436255e-05,-1.053596790661052052e-04
2.423015873015872845e+00,6.236904798368196785e-05,-1.403950522795158402e-04
2.423809523809523636e+00,7.005225219743361760e-05,-1.535546937023165377e-04
2.424603174603174427e+00,7.092475624163162718e-05,-1.448852253128802572e-04
2.425396825396825218e+00,6.428029820509295795e-05,-1.184235929818917263e-04
2.426190476190476009e+00,5.070229981153211727e-05,-8.066886820527281916e-05
2.426984126984126799e+00,3.202753301312659309e-05,-3.872205967474156787e-05
2.427777777777777590e+00,1.098479912583553908e-05,1.305721970125920468e-06
2.428571428571428381e+00,-9.400438600116650914e-06,3.521346211074554658e-05
2.429365079365079172e+00,-2.645866109255334665e-05,6.087164793355666180e-05
2.430158730158729963e+00,-3.839417989398313818e-05,7.782380470880118464e-05
2.430952380952380754e+00,-4.453601700485714611e-05,8.666164802673882619e-05
2.431746031746031544e+00,-4.529142001955256919e-05,8.846752864710913920e-05
2.432539682539682335e+00,-4.186660942496573469e-05,8.447269125567737340e-05
2.433333333333333126e+00,-3.587106620685582339e-05,7.592674436759404353e-05
2.434126984126983917e+00,-2.892367717172997303e-05,6.408295384757572695e-05
2.434920634920634708e+00,-2.234770091130841566e-05,5.019741526608695299e-05
2.435714285714285499e+00,-1.699781250277896533e-05,3.549271705374657123e-05
2.436507936507936289e+00,-1.322158602658032651e-05,2.109576046645120096e-05
2.437301587301587080e+00,-1.092884612152470831e-05,7.982097232938176556e-06
2.438095238095238315e+00,-9.729052999001962598e-06,-3.056893207139955186e-06
2.438888888888889106e+00,-9.096007014333877579e-06,-1.143187116951489492e-05
2.439682539682539897e+00,-8.523769554945458086e-06,-1.677245454207014914e-05
2.440476190476190688e+00,-7.644565755896827488e-06,-1.894599838041079659e-05
2.441269841269841478e+00,-6.290231091505946073e-06,-1.806894859972544955e-05
2.442063492063492269e+00,-4.493960576502712162e-06,-1.449970229240774865e-05
2.442857142857143060e+00,-2.444370038807193807e-06,-8.809488807244687331e-06
2.443650793650793851e+00,-4.133960379387843038e-07,-1.736296583745912879e-06
2.444444444444444642e+00,1.319147788626153145e-06,5.871050952221596054e-06
2.445238095238095433e+00,2.526886168836351557e-06,1.311547441024251249e-05
2.446031746031746223e+00,3.075140703454586438e-06,1.912091491847744566e-05
2.446825396825397014e+00,2.935503563458984710e-06,2.310624510293814095e-05
2.447619047619047805e+00,2.181398673891487502e-06,2.445624461352204556e-05
2.448412698412698596e+00,9.705204718575489662e-07,2.277859769582299130e-05
2.449206349206349387e+00,-4.813614464097812733e-07,1.793788034385954212e-05
2.450000000000000178e+00,-1.932049027828521423e-06,1.006459666997021932e-05
2.450793650793650968e+00,-3.146621500373571742e-06,-4.531861144671174241e-07
2.451587301587301759e+00,-3.928773452813206921e-06,-1.298062360189788227e-05
2.452380952380952550e+00,-4.144974484643889351e-06,-2.663612973636145194e-05
2.453174603174603341e+00,-3.737764709877762683e-06,-4.028450887792804592e-05
2.453968253968254132e+00,-2.726943766053541205e-06,-5.255423039380908453e-05
2.454761904761904923e+00,-1.200088932477867440e-06,-6.192814187926545084e-05
2.455555555555555713e+00,7.045487516400837546e-07,-6.694566603755298083e-05
2.456349206349206504e+00,2.819556568806696465e-06,-6.650936648621272502e-05
2.457142857142857295e+00,4.971389012999559770e-06,-6.022717551170960159e-05
2.457936507936508086e+00,7.001721514667862747e-06,-4.867391095306586887e-05
2.458730158730158877e+00,8.783332507274068215e-06,-3.344943679635852061e-05
2.459523809523809668e+00,1.022728648112872178e-05,-1.695754602895526296e-05
2.460317460317460458e+00,1.128056414060785200e-05,-1.920035875125982649e-06
2.461111111111111249e+00,1.191630177577168336e-05,9.255525959000358700e-06
2.461904761904762040e+00,1.212092512204478913e-05,1.506338196240414235e-05
2.462698412698412831e+00,1.188327164801835253e-05,1.525200887974308714e-05
2.463492063492063622e+00,1.119048721758640128e-05,1.083285855945351266e-05
2.464285714285714413e+00,1.003373370304487002e-05,3.763254747414833003e-06
2.465079365079365203e+00,8.423092796396975965e-06,-3.569381050259149890e-06
2.465873015873015994e+00,6.406362359399203790e-06,-8.889376326147718161e-06
2.466666666666666785e+00,4.083086468875735891e-06,-1.045476541337333660e-05
2.467460317460317576e+00,1.605262875896520651e-06,-7.284509947385677042e-06
2.468253968253968367e+00,-8.399288406450712869e-07,8.089182522470681075e-07
2.469047619047619158e+00,-3.063578209026221416e-06,1.333001242236847354e-05
2.469841269841269948e+00,-4.916005140007034223e-06,2.927806057372327986e-05
2.470634920634920739e+00,-6.322067256091523409e-06,4.731336433808921126e-05
2.471428571428571530e+00,-7.297833388580501559e-06,6.585181938939712991e-05
2.472222222222222321e+00,-7.940722694347135703e-06,8.307836522335204253e-05
2.473015873015873112e+00,-8.393467116397671716e-06,9.694621753249348637e-05
2.473809523809523903e+00,-8.791454411410381883e-06,1.052854714662992210e-04
2.474603174603174693e+00,-9.210594985144645569e-06,1.061145741577276087e-04
2.475396825396825484e+00,-9.635491430149620691e-06,9.811651936190619069e-05
2.476190476190476275e+00,-9.962467357894105082e-06,8.109563427952557152e-05
2.476984126984127066e+00,-1.003921146341363004e-05,5.619647693462370014e-05
2.477777777777777857e+00,-9.727363984098614155e-06,2.578071237246226221e-05
2.478571428571428648e+00,-8.963751941536035158e-06,-6.973088526832515947e-06
2.479365079365079438e+00,-7.795444602555674524e-06,-3.858681609050677657e-05
2.480158730158730229e+00,-6.373548942367435190e-06,-6.578107779597679953e-05
2.480952380952381020e+00,-4.906610135166360428e-06,-8.590285392201491791e-05
2.481746031746031811e+00,-3.590442499909507206e-06,-9.728841476432105418e-05
2.482539682539682602e+00,-2.540677156497353835e-06,-9.955067859836129441e-05
2.483333333333333393e+00,-1.752967122924170910e-06,-9.371417900191564353e-05
2.484126984126984183e+00,-1.104392146961018231e-06,-8.207869340565560306e-05
2.484920634920634974e+00,-3.937894040753014305e-07,-6.773831910348673845e-05
2.485714285714285765e+00,5.945092871596295020e-07,-5.382128394778859309e-05
2.486507936507936556e+00,2.024833006630683109e-06,-4.267885248419085747e-05
2.487301587301587347e+00,3.960852768712860636e-06,-3.532823398760510057e-05
2.488095238095238138e+00,6.343495868945533732e-06,-3.136826179242593508e-05
2.488888888888888928e+00,8.998350876017696424e-06,-2.937240561311658997e-05
2.489682539682539719e+00,1.166812105709929405e-05,-2.755254724363309234e-05
2.490476190476190510e+00,1.406033425338945509e-05,-2.440109771356619716e-05
2.491269841269841301e+00,1.589693619854534143e-05,-1.908349440785167813e-05
2.492063492063492092e+00,1.695278247893687592e-05,-1.150283113300558827e-05
2.492857142857142883e+00,1.707520400883694875e-05,-2.104912747561451268e-06
2.493650793650793673e+00,1.618429329109809966e-05,8.424456623068010252e-06
2.494444444444444464e+00,1.425983846337438233e-05,1.941541434496704482e-05
2.495238095238095255e+00,1.132402099472638247e-05,3.032914644349841778e-05
2.496031746031746046e+00,7.428950138453278364e-06,4.072453466462711171e-05
2.496825396825396837e+00,2.655521060441346073e-06,5.014483042523297925e-05
2.497619047619047628e+00,-2.874013916585343398e-06,5.803234328874643118e-05
2.498412698412698418e+00,-8.972053009957564967e-06,6.376165925916737315e-05
2.499206349206349209e+00,-1.535726786223834999e-05,6.680386566194824224e-05
2.500000000000000000e+00,-2.163303292547548123e-05,6.693286157373939732e-05
2.500793650793650791e+00,-2.728592639979321891e-05,6.432941714384297341e-05
2.501587301587301582e+00,-3.171572619610419014e-05,5.948028220763265558e-05
2.502380952380952372e+00,-3.430203972808267855e-05,5.289593110832800009e-05
2.503174603174603163e+00,-3.450359772148725991e-05,4.480342752203965895e-05
2.503968253968253954e+00,-3.197653591257317555e-05,3.501398747172998027e-05
2.504761904761904745e+00,-2.668844572292672327e-05,2.307584580497084621e-05
2.505555555555555536e+00,-1.899613594617691201e-05,8.653338897654368292e-06
2.506349206349206327e+00,-9.651326118223957536e-06,-8.066168346510068954e-06
2.507142857142857117e+00,2.915145597289245410e-07,-2.615471494580405023e-05
2.507936507936507908e+00,9.662559489622049496e-06,-4.402644350376524931e-05
2.508730158730158699e+00,1.741860879015888760e-05,-5.977810208849237289e-05
2.509523809523809490e+00,2.287128621515117712e-05,-7.163823202180456828e-05
2.510317460317460281e+00,2.583106476268273542e-05,-7.835886705619512279e-05
2.511111111111111072e+00,2.662030204838544120e-05,-7.943847627328992492e-05
2.511904761904761862e+00,2.594668485144310189e-05,-7.514633600036182634e-05
2.512698412698412653e+00,2.466980584745191265e-05,-6.638539723525893708e-05
2.513492063492063444e+00,2.352748602148435001e-05,-5.446295667951355716e-05
2.514285714285714235e+00,2.290333316397488736e-05,-4.083913557093358880e-05
2.515079365079365026e+00,2.270538245291866969e-05,-2.690733900723055687e-05
2.515873015873015817e+00,2.239185875217159294e-05,-1.384055696418210387e-05
2.516666666666666607e+00,2.113810707906279654e-05,-2.515751325197126643e-06
2.517460317460317398e+00,1.810132918084108528e-05,6.494211979751357136e-06
2.518253968253968189e+00,1.271324917313703729e-05,1.289066103670149722e-05
2.519047619047618980e+00,4.919359407858532788e-06,1.661736559950211919e-05
2.519841269841269771e+00,-4.707810016019663836e-06,1.785213213882556494e-05
2.520634920634920562e+00,-1.502280553104583912e-05,1.702218014003684319e-05
2.521428571428571352e+00,-2.452321658446253517e-05,1.481654353350338214e-05
2.522222222222222143e+00,-3.167420062860606993e-05,1.215356508622823956e-05
2.523015873015872934e+00,-3.525665990030499595e-05,1.006857542725191814e-05
2.523809523809523725e+00,-3.464914088072502046e-05,9.516211881991054646e-06
2.524603174603174516e+00,-2.997394455997542771e-05,1.112319694944611480e-05
2.525396825396825307e+00,-2.207335037479157521e-05,1.496383887922977705e-05
2.526190476190476097e+00,-1.232057592823250055e-05,2.044452355172917093e-05
2.526984126984126888e+00,-2.306426168140892188e-06,2.636454333784497183e-05
2.527777777777777679e+00,6.524585144853981656e-06,3.117151630487999047e-05
2.528571428571428470e+00,1.319219342499984484e-05,3.336536837802932362e-05
2.529365079365079261e+00,1.735968695174753176e-05,3.194453038518885711e-05
2.530158730158730052e+00,1.932348615801924514e-05,2.675002957684848755e-05
2.530952380952380842e+00,1.982971274622227450e-05,1.856845632228686118e-05
2.531746031746031633e+00,1.979501888232528510e-05,8.923291371181523300e-06
2.532539682539682424e+00,2.003162852248190214e-05,-3.917519245218821337e-07
2.533333333333333215e+00,2.105528528107625594e-05,-7.862562963063038222e-06
2.534126984126984006e+00,2.300838350632538083e-05,-1.267353660727719513e-05
2.534920634920634797e+00,2.568627567792836229e-05,-1.485088496679879810e-05
2.535714285714285587e+00,2.863097271667771498e-05,-1.511345257218840355e-05
2.536507936507936378e+00,3.125459500803266100e-05,-1.452505787583655837e-05
2.537301587301587169e+00,3.296418190243162601e-05,-1.409430403000522651e-05
2.538095238095237960e+00,3.326866944839352365e-05,-1.445741792923428421e-05
2.538888888888888751e+00,3.185414967001588658e-05,-1.572459364670573452e-05
2.539682539682539542e+00,2.861721493868733926e-05,-1.750032063552409440e-05
2.540476190476190332e+00,2.365187724925772039e-05,-1.903462601756714158e-05
2.541269841269841123e+00,1.719509572440408815e-05,-1.944011103226015835e-05
2.542063492063491914e+00,9.548243378323207370e-06,-1.791375466162396945e-05
2.542857142857142705e+00,1.002239659962045927e-06,-1.391978194604306364e-05
2.543650793650793496e+00,-8.204265438982813750e-06,-7.309675784815795124e-06
2.544444444444444287e+00,-1.787578376823757454e-05,1.629971055616994673e-06
2.545238095238095077e+00,-2.780397177015394737e-05,1.220377089372055073e-05
2.546031746031745868e+00,-3.769089889742857830e-05,2.340463977279427655e-05
2.546825396825396659e+00,-4.708916164161242409e-05,3.406843419938312642e-05
2.547619047619047450e+00,-5.539231390866998012e-05,4.305995669831170607e-05
2.548412698412698241e+00,-6.189272058972524187e-05,4.945498317374394040e-05
2.549206349206349032e+00,-6.590104560914065524e-05,5.268092861803128362e-05
2.549999999999999822e+00,-6.689702833069783412e-05,5.258328578546929243e-05
2.550793650793650613e+00,-6.466187481103465745e-05,4.939718132761313667e-05
2.551587301587301404e+00,-5.933914512093389461e-05,4.362525756355610512e-05
2.552380952380952195e+00,-5.139106759180184865e-05,3.585106150464046428e-05
2.553174603174602986e+00,-4.145614732728052001e-05,2.654171704168071274e-05
2.553968253968253777e+00,-3.015513078400520607e-05,1.590517029049424140e-05
2.554761904761904567e+00,-1.791730027616438465e-05,3.859720168214085005e-06
2.555555555555555358e+00,-4.897033973745307013e-06,-9.854214200901789686e-06
2.556349206349206149e+00,8.978162190117801243e-06,-2.543263809725909621e-05
2.557142857142856940e+00,2.383274318905753087e-05,-4.269509934497804171e-05
2.557936507936507731e+00,3.959317508978910138e-05,-6.079438052808243398e-05
2.558730158730158522e+00,5.574694882851273904e-05,-7.805752282821835615e-05
2.559523809523809312e+00,7.120032436801384927e-05,-9.205235230860339831e-05
2.560317460317460103e+00,8.430220943392989529e-05,-9.992546103659047212e-05
2.561111111111110894e+00,9.305837347282353825e-05,-9.898106068834235181e-05
2.561904761904761685e+00,9.550772696897575904e-05,-8.738499216535688680e-05
2.562698412698412920e+00,9.018288548855747644e-05,-6.481479855085839326e-05
2.563492063492063711e+00,7.654324214935365786e-05,-3.286246941264757155e-05
2.564285714285714501e+00,5.526151484679772046e-05,4.959373662669050858e-06
2.565079365079365292e+00,2.826904180145768430e-05,4.366718125698302905e-05
2.565873015873016083e+00,-1.483198142059527441e-06,7.766095720919943466e-05
2.566666666666666874e+00,-3.052195758707282932e-05,1.018257635841253407e-04
2.567460317460317665e+00,-5.550888277972065908e-05,1.126393653176492902e-04
2.568253968253968456e+00,-7.390022121456116212e-05,1.090069805181083634e-04
2.569047619047619246e+00,-8.443026783684767431e-05,9.257664455140449393e-05
2.569841269841270037e+00,-8.727572054887511701e-05,6.740721040441462165e-05
2.570634920634920828e+00,-8.385247491449104363e-05,3.904427564578142891e-05
2.571428571428571619e+00,-7.631740339156942361e-05,1.324094155794995975e-05
2.572222222222222410e+00,-6.694248666557572837e-05,-5.337190224683980396e-06
2.573015873015873201e+00,-5.755643700819262253e-05,-1.409452274727212452e-05
2.573809523809523991e+00,-4.920500314868082712e-05,-1.294826779796708732e-05
2.574603174603174782e+00,-4.209254213122689663e-05,-4.149453278777019707e-06
2.575396825396825573e+00,-3.577225891773081796e-05,8.444643618873284239e-06
2.576190476190476364e+00,-2.948286297198873633e-05,2.043464492796565060e-05
2.576984126984127155e+00,-2.250355711493649070e-05,2.798162258774530660e-05
2.577777777777777946e+00,-1.441888039335623119e-05,2.865143436292413555e-05
2.578571428571428736e+00,-5.235778758456428089e-06,2.180064562240181783e-05
2.579365079365079527e+00,4.646289600493589241e-06,8.462755258156085946e-06
2.580158730158730318e+00,1.456787763068048875e-05,-9.145075647437268240e-06
2.580952380952381109e+00,2.378340382999957704e-05,-2.827400765218183009e-05
2.581746031746031900e+00,3.162226031320166834e-05,-4.623089062968437172e-05
2.582539682539682691e+00,3.760302746049578351e-05,-6.076298028380705524e-05
2.583333333333333481e+00,4.148781534144887486e-05,-7.022473820674787022e-05
2.584126984126984272e+00,4.328036078071230419e-05,-7.360979650284937305e-05
2.584920634920635063e+00,4.318234878911412133e-05,-7.055927265847300206e-05
2.585714285714285854e+00,4.152712143256458290e-05,-6.140650825319459143e-05
2.586507936507936645e+00,3.870831783527647202e-05,-4.722719600145325422e-05
2.587301587301587436e+00,3.511537324471884894e-05,-2.980295075239903046e-05
2.588095238095238226e+00,3.108274960303009104e-05,-1.142536852341760098e-05
2.588888888888889017e+00,2.685788845351907482e-05,5.449023687078632503e-06
2.589682539682539808e+00,2.259234549608793257e-05,1.860201870147670667e-05
2.590476190476190599e+00,1.835778667089564496e-05,2.640305669906922487e-05
2.591269841269841390e+00,1.418228485977595583e-05,2.803077113393446918e-05
2.592063492063492181e+00,1.009531812107793605e-05,2.354692502819951053e-05
2.592857142857142971e+00,6.166800491292293453e-06,1.383266757469347947e-05
2.593650793650793762e+00,2.529301741491080837e-06,4.014139882845710483e-07
2.594444444444444553e+00,-6.188541625016591501e-07,-1.488915288015029568e-05
2.595238095238095344e+00,-3.025036147907346974e-06,-3.017475594953897860e-05
2.596031746031746135e+00,-4.403603132253597003e-06,-4.389180417259055554e-05
2.596825396825396925e+00,-4.467758543117205525e-06,-5.497513506972071570e-05
2.597619047619047716e+00,-2.976942936231355333e-06,-6.289928902239002770e-05
2.598412698412698507e+00,1.978264967370382149e-07,-6.755943184543371563e-05
2.599206349206349298e+00,4.997971672193264110e-06,-6.903038190378138017e-05
2.600000000000000089e+00,1.111047374804461389e-05,-6.728338685222760580e-05
2.600793650793650880e+00,1.793843876992771578e-05,-6.197092565055738872e-05
2.601587301587301670e+00,2.463582153091901429e-05,-5.238943749205853364e-05
2.602380952380952461e+00,3.021829733451329760e-05,-3.768357012143175202e-05
2.603174603174603252e+00,3.373764952281239205e-05,-1.726692926424740654e-05
2.603968253968254043e+00,3.448109201295739066e-05,8.668937737998331784e-06
2.604761904761904834e+00,3.214025413775524037e-05,3.875571685889686618e-05
2.605555555555555625e+00,2.689574455496629465e-05,7.035004858770164060e-05
2.606349206349206415e+00,1.938498346018600890e-05,9.983164324165926461e-05
2.607142857142857206e+00,1.055721775616837484e-05,1.232544062869864990e-04
2.607936507936507997e+00,1.456500802685712872e-06,1.371877928524676930e-04
2.608730158730158788e+00,-7.004014920275129114e-06,1.395281973836159180e-04
2.609523809523809579e+00,-1.421295090029589772e-05,1.300681138978498669e-04
2.610317460317460370e+00,-1.993370572331097369e-05,1.106677851039647529e-04
2.611111111111111160e+00,-2.426915564355919909e-05,8.496470644152617584e-05
2.611904761904761951e+00,-2.754098692641968835e-05,5.766756940076868398e-05
2.612698412698412742e+00,-3.012967936552270925e-05,3.359194157466367363e-05
2.613492063492063533e+00,-3.232711264767542563e-05,1.666995082975945302e-05
2.614285714285714324e+00,-3.424211476484994855e-05,9.169212706335719341e-06
2.615079365079365115e+00,-3.577510720169743176e-05,1.128089519653190514e-05
2.615873015873015905e+00,-3.665184219991883232e-05,2.112436148766391573e-05
2.616666666666666696e+00,-3.649165406383916811e-05,3.512755075443464356e-05
2.617460317460317487e+00,-3.488932486489998631e-05,4.870416751069924730e-05
2.618253968253968278e+00,-3.150345525442346025e-05,5.713199840988722125e-05
2.619047619047619069e+00,-2.615216281665071516e-05,5.650290564532188769e-05
2.619841269841269860e+00,-1.890991262797410245e-05,4.456860799300022208e-05
2.620634920634920650e+00,-1.018213236190758931e-05,2.128769411078074535e-05
2.621428571428571441e+00,-7.216353028066903031e-07,-1.107955945050854487e-05
2.622222222222222232e+00,8.443591798685426720e-06,-4.838186266996855089e-05
2.623015873015873023e+00,1.617638189469598707e-05,-8.541574476346340593e-05
2.623809523809523814e+00,2.146167058993446263e-05,-1.169953240680275675e-04
2.624603174603174605e+00,2.364703057199629875e-05,-1.389863506644886172e-04
2.625396825396825395e+00,2.262447989885644825e-05,-1.490475771749515479e-04
2.626190476190476186e+00,1.889391075788972554e-05,-1.469165379384527082e-04
2.626984126984126977e+00,1.347720077465155125e-05,-1.342204216536946521e-04
2.627777777777777768e+00,7.694747978181406051e-06,-1.139226517750606919e-04
2.628571428571428559e+00,2.859663132733935418e-06,-8.958550373601113228e-05
2.629365079365079350e+00,-2.773286745788820527e-08,-6.463583607933024680e-05
2.630158730158730140e+00,-5.041447308458982595e-07,-4.178596302928460038e-05
2.630952380952380931e+00,1.265569839270094846e-06,-2.270256590860308038e-05
2.631746031746031722e+00,4.543317676822039058e-06,-7.947330417319036473e-06
2.632539682539682513e+00,8.201098081905893535e-06,2.848091513591558828e-06
2.633333333333333304e+00,1.099595983821547041e-05,1.064870801989933022e-05
2.634126984126984095e+00,1.188382883450314078e-05,1.661643405955617945e-05
2.634920634920634885e+00,1.030271864653208633e-05,2.173838116259048462e-05
2.635714285714285676e+00,6.347045996034992574e-06,2.656831372953153726e-05
2.636507936507936467e+00,7.695398337068255659e-07,3.113814900222883501e-05
2.637301587301587258e+00,-5.206734291943170802e-06,3.504640767348020223e-05
2.638095238095238049e+00,-1.021924857294262309e-05,3.767341277299562387e-05
2.638888888888888840e+00,-1.313953845733599446e-05,3.843527705695731924e-05
2.639682539682539630e+00,-1.337369880335879846e-05,3.698865248734237382e-05
2.640476190476190421e+00,-1.100251311034311486e-05,3.333202144857053199e-05
2.641269841269841212e+00,-6.730209634053722602e-06,2.779584990618691592e-05
2.642063492063492003e+00,-1.670649943939853517e-06,2.095104718439875588e-05
2.642857142857142794e+00,2.956414047744731277e-06,1.348217795950238164e-05
2.643650793650793585e+00,6.128605135420395752e-06,6.070239256819385812e-06
2.644444444444444375e+00,7.243919366067856187e-06,-6.841106109097820929e-07
2.645238095238095166e+00,6.216585299608561034e-06,-6.286797013279220769e-06
2.646031746031745957e+00,3.439708619538201242e-06,-1.033850429781539713e-05
2.646825396825396748e+00,-3.577539291707987897e-07,-1.251411121006099227e-05
2.647619047619047539e+00,-4.312793557204446490e-06,-1.256610697401383454e-05
2.648412698412698330e+00,-7.636347708056629978e-06,-1.037128432780516720e-05
2.649206349206349120e+00,-9.780243710955019833e-06,-6.014057856207783276e-06
2.649999999999999911e+00,-1.052967302734041222e-05,1.279927807775461985e-07
2.650793650793650702e+00,-1.000703054802974222e-05,7.347158047292120173e-06
2.651587301587301493e+00,-8.594053295321436403e-06,1.466219301724713495e-05
2.652380952380952284e+00,-6.798939803507316725e-06,2.098198562594961528e-05
2.653174603174603075e+00,-5.109619602965368449e-06,2.534205441401286900e-05
2.653968253968253865e+00,-3.877827260449180463e-06,2.713829557586775010e-05
2.654761904761904656e+00,-3.266510628591138358e-06,2.627239893767198859e-05
2.655555555555555447e+00,-3.267622310040996919e-06,2.315315912324985496e-05
2.656349206349206238e+00,-3.769183627579025219e-06,1.855244269734688774e-05
2.657142857142857029e+00,-4.633055282137086295e-06,1.336793653758992735e-05
2.657936507936507819e+00,-5.746074954981928363e-06,8.376132575086719497e-06
2.658730158730158610e+00,-7.025564398776115900e-06,4.057649260875064957e-06
2.659523809523809401e+00,-8.385922676517626207e-06,5.440336250236806085e-07
2.660317460317460192e+00,-9.693350132294985329e-06,-2.314363614904372591e-06
2.661111111111110983e+00,-1.074146648622409884e-05,-4.802993891235140981e-06
2.661904761904761774e+00,-1.127004676662604895e-05,-7.183442934940598546e-06
2.662698412698412564e+00,-1.102752130976783451e-05,-9.576155866062989282e-06
2.663492063492063355e+00,-9.854757183967941263e-06,-1.191727527481003635e-05
2.664285714285714146e+00,-7.754292817996838468e-06,-1.398942435329710272e-05
2.665079365079364937e+00,-4.913713060275731678e-06,-1.549944784205278106e-05
2.665873015873015728e+00,-1.672223707168540685e-06,-1.616533128350867730e-05
2.666666666666666519e+00,1.556457349175618538e-06,-1.578329754651636773e-05
2.667460317460317309e+00,4.377170154026758766e-06,-1.426524032209149117e-05
2.668253968253968100e+00,6.494393888801588661e-06,-1.165148103354257911e-05
2.669047619047618891e+00,7.763141565992068020e-06,-8.108447298768514260e-06
2.669841269841269682e+00,8.203039499698694067e-06,-3.920059904763242953e-06
2.670634920634920473e+00,7.977038624965120727e-06,5.224076268046769539e-07
2.671428571428571264e+00,7.341215791126012575e-06,4.739234039392601254e-06
2.672222222222222054e+00,6.577303756207200538e-06,8.213561941980731509e-06
2.673015873015872845e+00,5.925407773281254094e-06,1.050062400704626859e-05
2.673809523809523636e+00,5.536810046226379184e-06,1.139319301760431651e-05
2.674603174603174427e+00,5.461523846330708377e-06,1.109401400083865830e-05
2.675396825396825218e+00,5.672579561125372297e-06,1.030562331934807850e-05
2.676190476190476009e+00,6.113997481523189278e-06,1.014700397708967022e-05
2.676984126984126799e+00,6.748805925952895841e-06,1.186394022662904822e-05
2.677777777777777590e+00,7.582743752645938585e-06,1.639888844893584122e-05
2.678571428571428381e+00,8.650394883852630541e-06,2.397260716621004700e-05
2.679365079365079172e+00,9.969913159914082403e-06,3.384903385737431585e-05
2.680158730158729963e+00,1.149095035804677516e-05,4.439356167395109670e-05
2.680952380952380754e+00,1.306684084485898407e-05,5.342655672002775041e-05
2.681746031746031544e+00,1.447088479130136268e-05,5.877025996961638538e-05
2.682539682539682335e+00,1.545294663240221662e-05,5.882573225957094524e-05
2.683333333333333126e+00,1.581083989692769862e-05,5.300985718488351905e-05
2.684126984126983917e+00,1.544470922941245256e-05,4.192590183380601339e-05
2.684920634920634708e+00,1.437440048316360285e-05,2.722026197287578611e-05
2.685714285714285499e+00,1.271980006590473991e-05,1.116952934182559029e-05
2.686507936507936289e+00,1.065899732501581439e-05,-3.881527975370423988e-06
2.687301587301587080e+00,8.382357589729942277e-06,-1.607124915345683734e-05
2.688095238095238315e+00,6.055123628369560903e-06,-2.441054875407442957e-05
2.688888888888889106e+00,3.793941709598541647e-06,-2.891228527516744506e-05
2.689682539682539897e+00,1.658356206871611974e-06,-3.044052678717577718e-05
2.690476190476190688e+00,-3.428578346281200535e-07,-3.033901564492169379e-05
2.691269841269841478e+00,-2.231350963183418664e-06,-2.995837073191639816e-05
2.692063492063492269e+00,-4.028784838009018917e-06,-3.022897045095939857e-05
2.692857142857143060e+00,-5.725623807149228081e-06,-3.141221467905731715e-05
2.693650793650793851e+00,-7.262216385152403400e-06,-3.310564856723646532e-05
2.694444444444444642e+00,-8.533520335345184013e-06,-3.448978831221994614e-05
2.695238095238095433e+00,-9.420513087059084349e-06,-3.471620271263939665e-05
2.696031746031746223e+00,-9.839249314970071805e-06,-3.328445765592512155e-05
2.696825396825397014e+00,-9.788300327169922402e-06,-3.026338034967119016e-05
2.697619047619047805e+00,-9.372341252216959194e-06,-2.627623299578929201e-05
2.698412698412698596e+00,-8.785972909350911472e-06,-2.226281896081197496e-05
2.699206349206349387e+00,-8.255631376203002977e-06,-1.911744706678401409e-05
2.700000000000000178e+00,-7.954369934873057203e-06,-1.734703343537602794e-05
2.700793650793650968e+00,-7.918708083182163628e-06,-1.688013100126145162e-05
2.701587301587301759e+00,-8.002313338984296667e-06,-1.709136871648296715e-05
2.702380952380952550e+00,-7.893315144593091804e-06,-1.701871673064838479e-05
2.703174603174603341e+00,-7.200872737621012000e-06,-1.568475108520853831e-05
2.703968253968254132e+00,-5.589230187607960563e-06,-1.241227651639622050e-05
2.704761904761904923e+00,-2.915289452017452821e-06,-7.045143634683450762e-06
2.705555555555555713e+00,6.808990834844692537e-07,-2.601493195887865791e-08
2.706349206349206504e+00,4.770370492893725848e-06,7.675002914230768600e-06
2.707142857142857295e+00,8.723445022546336502e-06,1.475396266204263962e-05
2.707936507936508086e+00,1.186759062755915914e-05,1.984203707257110831e-05
2.708730158730158877e+00,1.366488906739640429e-05,2.179518217763726118e-05
2.709523809523809668e+00,1.385193391395647382e-05,1.995030445643003808e-05
2.710317460317460458e+00,1.249943104229842567e-05,1.429929340554986599e-05
2.711111111111111249e+00,9.977132615554755747e-06,5.543496871203252048e-06
2.711904761904762040e+00,6.838862189668419773e-06,-4.990333912383834338e-06
2.712698412698412831e+00,3.662741423752557130e-06,-1.556709107698812982e-05
2.713492063492063622e+00,8.915610538674353561e-07,-2.436081718967900720e-05
2.714285714285714413e+00,-1.280749150964099959e-06,-2.981469430978877971e-05
2.715079365079365203e+00,-2.939315469677999966e-06,-3.096664066835266708e-05
2.715873015873015994e+00,-4.379253311051067069e-06,-2.765912516613970118e-05
2.716666666666666785e+00,-5.953653362266731811e-06,-2.057062107412240646e-05
2.717460317460317576e+00,-7.887923411943131177e-06,-1.105053983111486918e-05
2.718253968253968367e+00,-1.012854548899331081e-05,-7.977772652299396063e-07
2.719047619047619158e+00,-1.228830592597131464e-05,8.527487416101063074e-06
2.719841269841269948e+00,-1.372019283086851199e-05,1.564955762462179637e-05
2.720634920634920739e+00,-1.370897594335827125e-05,1.989021125252181412e-05
2.721428571428571530e+00,-1.172615493712205403e-05,2.120714540689586986e-05
2.722222222222222321e+00,-7.663540252229408166e-06,2.007260249827573406e-05
2.723015873015873112e+00,-1.957150436014553157e-06,1.724905363422763068e-05
2.723809523809523903e+00,4.454645995024362116e-06,1.353696334204968140e-05
2.724603174603174693e+00,1.033497398416050661e-05,9.566994784087220441e-06
2.725396825396825484e+00,1.445028708908670951e-05,5.690820455230044814e-06
2.726190476190476275e+00,1.587464226482227970e-05,1.993462813022672688e-06
2.726984126984127066e+00,1.420895547309544577e-05,-1.589328212699533837e-06
2.727777777777777857e+00,9.665063571322876361e-06,-5.101881625063059869e-06
2.728571428571428648e+00,3.010173357698458513e-06,-8.420886321402715842e-06
2.729365079365079438e+00,-4.597085036444110311e-06,-1.119465651095282794e-05
2.730158730158730229e+00,-1.183139217593201578e-05,-1.289884867788086973e-05
2.730952380952381020e+00,-1.743948252460843497e-05,-1.298904943282059644e-05
2.731746031746031811e+00,-2.045561842285278641e-05,-1.109183319797994118e-05
2.732539682539682602e+00,-2.036689712777307515e-05,-7.163107018473330395e-06
2.733333333333333393e+00,-1.720886974746944106e-05,-1.556789304697527843e-06
2.734126984126984183e+00,-1.157568004498053806e-05,5.021225011276785464e-06
2.734920634920634974e+00,-4.532508935282320450e-06,1.166119225653938223e-05
2.735714285714285765e+00,2.570697932882259274e-06,1.745448858532232220e-05
2.736507936507936556e+00,8.361302162026072418e-06,2.169252029081919855e-05
2.737301587301587347e+00,1.172878635039118277e-05,2.400198117796764930e-05
2.738095238095238138e+00,1.206010988663562498e-05,2.438714189769792601e-05
2.738888888888888928e+00,9.360511417867646141e-06,2.318799805408767520e-05
2.739682539682539719e+00,4.228687595737639337e-06,2.099020134138004494e-05
2.740476190476190510e+00,-2.299487265465298105e-06,1.852506034738740591e-05
2.741269841269841301e+00,-8.989480414949564980e-06,1.657867203273923737e-05
2.742063492063492092e+00,-1.466679275122902117e-05,1.590324965780511718e-05
2.742857142857142883e+00,-1.843993416280288250e-05,1.710749515632992008e-05
2.743650793650793673e+00,-1.984677479825286531e-05,2.050957639892018043e-05
2.744444444444444464e+00,-1.890105434407916428e-05,2.596907186098161048e-05
2.745238095238095255e+00,-1.603582231246549066e-05,3.275730110732250489e-05
2.746031746031746046e+00,-1.196210212192168595e-05,3.954801011208135335e-05
2.746825396825396837e+00,-7.479775697851966260e-06,4.458842860828081883e-05
2.747619047619047628e+00,-3.288345266013411510e-06,4.604708764610506962e-05
2.748412698412698418e+00,1.554261121893419740e-07,4.245926297885460241e-05
2.749206349206349209e+00,2.699009883515294054e-06,3.314086136970554767e-05
2.750000000000000000e+00,4.464210561686964949e-06,1.843849711594201029e-05
2.750793650793650791e+00,5.742869601562042626e-06,-2.742719491011458018e-07
2.751587301587301582e+00,6.857532441576309607e-06,-2.087032951708567413e-05
2.752380952380952372e+00,8.035820500771990522e-06,-4.093832099178941638e-05
2.753174603174603163e+00,9.340282919596872504e-06,-5.829731855657771034e-05
2.753968253968253954e+00,1.067363431035217250e-05,-7.138160701297231660e-05
2.754761904761904745e+00,1.184926049025034634e-05,-7.937492050452580954e-05
2.755555555555555536e+00,1.269077650864081814e-05,-8.209032643514172997e-05
2.756349206349206327e+00,1.311513897601089617e-05,-7.971045227613533335e-05
2.757142857142857117e+00,1.316621775108525721e-05,-7.255709368465229733e-05
2.757936507936507908e+00,1.299171082288840387e-05,-6.102224099670784598e-05
2.758730158730158699e+00,1.278049700036462819e-05,-4.568861925477061756e-05
2.759523809523809490e+00,1.268903771954032582e-05,-2.755314139182926347e-05
2.760317460317460281e+00,1.278363528504291056e-05,-8.197663012417203074e-06
2.761111111111111072e+00,1.301596459997709273e-05,1.024053118537006656e-05
2.761904761904761862e+00,1.323756667380993441e-05,2.536568832231963537e-05
2.762698412698412653e+00,1.324730339159026794e-05,3.503816057448918327e-05
2.763492063492063444e+00,1.285584340775451263e-05,3.795304331312728251e-05
2.764285714285714235e+00,1.194605712542732227e-05,3.408255930620516068e-05
2.765079365079365026e+00,1.051029839048375012e-05,2.481270097647840991e-05
2.765873015873015817e+00,8.654125789723862632e-06,1.270289336770626638e-05
2.766666666666666607e+00,6.567070452449838181e-06,9.246446877138675179e-07
2.767460317460317398e+00,4.470484388670156720e-06,-7.461640374379784987e-06
2.768253968253968189e+00,2.558145721723548947e-06,-1.019421216586789170e-05
2.769047619047618980e+00,9.466013481201331863e-07,-6.294439096266914247e-06
2.769841269841269771e+00,-3.506754153112534847e-07,3.750884933988741382e-06
2.770634920634920562e+00,-1.417705986368901170e-06,1.813235074287305429e-05
2.771428571428571352e+00,-2.400068595057867394e-06,3.413642811609505123e-05
2.772222222222222143e+00,-3.448460846465529892e-06,4.872705535225250854e-05
2.773015873015872934e+00,-4.658197790437257425e-06,5.914140860598817817e-05
2.773809523809523725e+00,-6.023362014315152437e-06,6.336325225319323765e-05
2.774603174603174516e+00,-7.421131318098772807e-06,6.039850196185906858e-05
2.775396825396825307e+00,-8.633459015772536920e-06,5.035538262038231926e-05
2.776190476190476097e+00,-9.401846106619104522e-06,3.438165476388455158e-05
2.776984126984126888e+00,-9.499920261839446076e-06,1.451132175427387647e-05
2.777777777777777679e+00,-8.801867407588067439e-06,-6.563087772955912262e-06
2.778571428571428470e+00,-7.325377732118199529e-06,-2.581108321404100526e-05
2.779365079365079261e+00,-5.236092008169240950e-06,-4.029362260312822794e-05
2.780158730158730052e+00,-2.813767713159367282e-06,-4.767189501477380609e-05
2.780952380952380842e+00,-3.933020492962357734e-07,-4.670618304162018052e-05
2.781746031746031633e+00,1.699067509071040597e-06,-3.762069255532163266e-05
2.782539682539682424e+00,3.195625715595917909e-06,-2.221896973674015403e-05
2.783333333333333215e+00,3.913659374612675573e-06,-3.680066107382357989e-06
2.784126984126984006e+00,3.761408702563282111e-06,1.396590927467628715e-05
2.784920634920634797e+00,2.735235506110468267e-06,2.660536495971663974e-05
2.785714285714285587e+00,9.205394531677309306e-07,3.090336161514276974e-05
2.786507936507936378e+00,-1.498631691605683839e-06,2.507174305264487998e-05
2.787301587301587169e+00,-4.227917546181325734e-06,9.361080234101533965e-06
2.788095238095237960e+00,-6.864727949579235175e-06,-1.385474702404381955e-05
2.788888888888888751e+00,-8.931629482670232786e-06,-4.045046326368541598e-05
2.789682539682539542e+00,-9.951454132981084788e-06,-6.532892299622061370e-05
2.790476190476190332e+00,-9.560462061146123036e-06,-8.346006459230973559e-05
2.791269841269841123e+00,-7.639054235051087475e-06,-9.095173138459214867e-05
2.792063492063491914e+00,-4.425142774091306488e-06,-8.589479825354967438e-05
2.792857142857142705e+00,-5.684799206902823469e-07,-6.876827474649269015e-05
2.793650793650793496e+00,2.910783046581617563e-06,-4.230343108964373672e-05
2.794444444444444287e+00,4.777264189400960402e-06,-1.085271543436780220e-05
2.795238095238095077e+00,3.837027693773564106e-06,2.056215113833727903e-05
2.796031746031745868e+00,-7.497019626396184210e-07,4.727650464630614707e-05
2.796825396825396659e+00,-9.170067084571240833e-06,6.583614029893961874e-05
2.797619047619047450e+00,-2.075276374684889997e-05,7.449681841708075515e-05
2.798412698412698241e+00,-3.392363915524622631e-05,7.330373392619634612e-05
2.799206349206349032e+00,-4.636668995073482609e-05,6.380938740695750509e-05
2.799999999999999822e+00,-5.539611316567384940e-05,4.857320651011579483e-05
2.800793650793650613e+00,-5.849462413979340922e-05,3.060100057616539773e-05
2.801587301587301404e+00,-5.391822001367168395e-05,1.283620850462436361e-05
2.802380952380952195e+00,-4.122362423901546074e-05,-2.252327937704897464e-06
2.803174603174602986e+00,-2.156139127285237056e-05,-1.298530943387118421e-05
2.803968253968253777e+00,2.388190877049272017e-06,-1.868641599316257551e-05
2.804761904761904567e+00,2.687340938022438983e-05,-1.975213177735544607e-05
2.805555555555555358e+00,4.784252839536552813e-05,-1.750938345235324845e-05
2.806349206349206149e+00,6.183967535923812664e-05,-1.382169889692483247e-05
2.807142857142856940e+00,6.678553913110505335e-05,-1.049291297221455428e-05
2.807936507936507731e+00,6.243048724063136987e-05,-8.621517626212815065e-06
2.808730158730158522e+00,5.036145881641240193e-05,-8.124149197598864487e-06
2.809523809523809312e+00,3.357011220416602148e-05,-7.642116060094876462e-06
2.810317460317460103e+00,1.570951240031646018e-05,-4.958802929414499594e-06
2.811111111111110894e+00,2.469234392683073454e-07,2.113330687736801551e-06
2.811904761904761685e+00,-1.026213173262749120e-05,1.463473323090896491e-05
2.812698412698412920e+00,-1.460528156876174838e-05,3.165781847072881238e-05
2.813492063492063711e+00,-1.298182803454316898e-05,4.999642226110483279e-05
2.814285714285714501e+00,-6.757961865455412744e-06,6.486796242429870418e-05
2.815079365079365292e+00,1.960303201277472074e-06,7.127206642685349734e-05
2.815873015873016083e+00,1.079271639260209493e-05,6.563416391839830687e-05
2.816666666666666874e+00,1.749412652169612037e-05,4.710853765576026924e-05
2.817460317460317665e+00,2.028222896040884627e-05,1.806944814835938413e-05
2.818253968253968456e+00,1.810219424461470024e-05,-1.636659783292968124e-05
2.819047619047619246e+00,1.084305076437726266e-05,-4.961338501166801505e-05
2.819841269841270037e+00,-5.190987729079888545e-07,-7.528205949944776973e-05
2.820634920634920828e+00,-1.391957194398971572e-05,-8.875884240933568136e-05
2.821428571428571619e+00,-2.642811547230141040e-05,-8.826060575198813268e-05
2.822222222222222410e+00,-3.474504392346897461e-05,-7.509864319568332401e-05
2.823015873015873201e+00,-3.593623071428018258e-05,-5.311369102925523196e-05
2.823809523809523991e+00,-2.826070152152474645e-05,-2.748338756419912849e-05
2.824603174603174782e+00,-1.184618844523316581e-05,-3.278815366173047031e-06
2.825396825396825573e+00,1.105592571291846703e-05,1.579213344627157777e-05
2.826190476190476364e+00,3.640658496762414121e-05,2.809172247711062760e-05
2.826984126984127155e+00,5.927034089251160658e-05,3.403843399794295228e-05
2.827777777777777946e+00,7.500510982027803857e-05,3.544710834984668771e-05
2.828571428571428736e+00,8.037352707312960529e-05,3.451264956424554927e-05
2.829365079365079527e+00,7.423847317501981269e-05,3.283238851323259212e-05
2.830158730158730318e+00,5.767193211904075010e-05,3.082102758277760300e-05
2.830952380952381109e+00,3.351360784500386587e-05,2.770366692877102431e-05
2.831746031746031900e+00,5.580035512480924140e-06,2.204800572340479215e-05
2.832539682539682691e+00,-2.220286402751510499e-05,1.260284497654528207e-05
2.833333333333333481e+00,-4.649978470121539983e-05,-8.919424474724421694e-07
2.834126984126984272e+00,-6.495843873749798918e-05,-1.724404540648069220e-05
2.834920634920635063e+00,-7.628396300650227440e-05,-3.389230447655540505e-05
2.835714285714285854e+00,-8.009023886758121944e-05,-4.753835807894664589e-05
2.836507936507936645e+00,-7.667204656988834050e-05,-5.513116586970102196e-05
2.837301587301587436e+00,-6.682750280282638133e-05,-5.487350293921640468e-05
2.838095238095238226e+00,-5.179470749589039043e-05,-4.689179441985811202e-05
2.838888888888889017e+00,-3.327780991999765254e-05,-3.330265245081031212e-05
2.839682539682539808e+00,-1.346607073496897313e-05,-1.760142919912497747e-05
2.840476190476190599e+00,5.067869565864948363e-06,-3.540872350838548347e-06
2.841269841269841390e+00,1.965830392112025203e-05,6.118088016148845358e-06
2.842063492063492181e+00,2.800953897059853782e-05,1.051093460755190749e-05
2.842857142857142971e+00,2.873356707655339294e-05,1.085359986742225290e-05
2.843650793650793762e+00,2.181075450474491271e-05,9.795449674829492421e-06
2.844444444444444553e+00,8.810774467025846588e-06,1.016154162065427940e-05
2.845238095238095344e+00,-7.250620275128031197e-06,1.356567520165767844e-05
2.846031746031746135e+00,-2.245395408982406256e-05,1.946343640091404572e-05
2.846825396825396925e+00,-3.282725778136429107e-05,2.508780669869328388e-05
2.847619047619047716e+00,-3.529418893847372380e-05,2.639962298564288985e-05
2.848412698412698507e+00,-2.844373374473538267e-05,1.978697214624398784e-05
2.849206349206349298e+00,-1.288512781394618036e-05,3.900414489412291913e-06
2.850000000000000089e+00,8.909950506876310704e-06,-1.913554710410003267e-05
2.850793650793650880e+00,3.320034763099879646e-05,-4.373696415728268810e-05
2.851587301587301670e+00,5.579872793296220234e-05,-6.226441751694613170e-05
2.852380952380952461e+00,7.289100345534700153e-05,-6.743035052366674290e-05
2.853174603174603252e+00,8.167419449104123717e-05,-5.489605822153295931e-05
2.853968253968254043e+00,8.072569054449504997e-05,-2.511706749935570766e-05
2.854761904761904834e+00,7.009499164325813246e-05,1.627561016875240000e-05
2.855555555555555625e+00,5.116110080897865765e-05,5.976744934640379394e-05
2.856349206349206415e+00,2.633215200320357391e-05,9.454902381869683065e-05
2.857142857142857206e+00,-1.323485634510944560e-06,1.115817967038130982e-04
2.857936507936507997e+00,-2.844441525023652038e-05,1.061811487636147948e-04
2.858730158730158788e+00,-5.171480035013572744e-05,7.934703077740792301e-05
2.859523809523809579e+00,-6.818548722464124617e-05,3.749138298544450287e-05
2.860317460317460370e+00,-7.559838883682152286e-05,-9.307106058381102952e-06
2.861111111111111160e+00,-7.271545810012307255e-05,-4.999016536585849924e-05
2.861904761904761951e+00,-5.961537814148381458e-05,-7.538346395886200417e-05
2.862698412698412742e+00,-3.787488147404476064e-05,-8.044290923150821250e-05
2.863492063492063533e+00,-1.051996829574871100e-05,-6.528432258597433805e-05
2.864285714285714324e+00,1.834659923859194454e-05,-3.477665799665187566e-05
2.865079365079365115e+00,4.423908594421048295e-05,3.075585226761096605e-06
2.865873015873015905e+00,6.316288327558726326e-05,3.939175261311055504e-05
2.866666666666666696e+00,7.242527113351571633e-05,6.663044049850962082e-05
2.867460317460317487e+00,7.113746951724193271e-05,8.019531933906357511e-05
2.868253968253968278e+00,6.026455737163340982e-05,7.912721956059934618e-05
2.869047619047619069e+00,4.223213053114359747e-05,6.585448708105946965e-05
2.869841269841269860e+00,2.023447801932064938e-05,4.518700050096417851e-05
2.870634920634920650e+00,-2.536775881292310298e-06,2.287511309975236593e-05
2.871428571428571441e+00,-2.352611795383706099e-05,4.114716480837859823e-06
2.872222222222222232e+00,-4.115744054083518815e-05,-7.644940487127036596e-06
2.873015873015873023e+00,-5.483634879203052410e-05,-1.133992316202330400e-05
2.873809523809523814e+00,-6.466590499900012911e-05,-8.280329405752919107e-06
2.874603174603174605e+00,-7.101060099536705180e-05,-1.548478053820197869e-06
2.875396825396825395e+00,-7.407888362612472172e-05,5.011748875817117613e-06
2.876190476190476186e+00,-7.367754134519565964e-05,7.955926106562539112e-06
2.876984126984126977e+00,-6.922758969669482885e-05,5.258152737500426939e-06
2.877777777777777768e+00,-6.003858124574636840e-05,-3.089360470004217782e-06
2.878571428571428559e+00,-4.574271088176979451e-05,-1.508747759637642272e-05
2.879365079365079350e+00,-2.672316174114477426e-05,-2.737261398223878747e-05
2.880158730158730140e+00,-4.360707684734122555e-06,-3.629417420641273837e-05
2.880952380952380931e+00,1.902286740252060056e-05,-3.906304228209674394e-05
2.881746031746031722e+00,4.054573702030521778e-05,-3.458487709295755483e-05
2.882539682539682513e+00,5.738218691547390324e-05,-2.373369737099632236e-05
2.883333333333333304e+00,6.743832139481619728e-05,-9.046969599881504959e-06
2.884126984126984095e+00,6.987661288861441865e-05,5.984390130486462267e-06
2.884920634920634885e+00,6.531299606144030598e-05,1.777344493095464942e-05
2.885714285714285676e+00,5.561092948781395093e-05,2.341022861876503695e-05
2.886507936507936467e+00,4.333251077708771045e-05,2.120518619708964877e-05
2.887301587301587258e+00,3.102777930305977304e-05,1.094648062710270387e-05
2.888095238095238049e+00,2.059958121710201838e-05,-6.125397374328735864e-06
2.888888888888888840e+00,1.294347750102365027e-05,-2.758628097696909470e-05
2.889682539682539630e+00,7.944968422053800321e-06,-5.027848563579670173e-05
2.890476190476190421e+00,4.778208574011195471e-06,-7.086830750525494255e-05
2.891269841269841212e+00,2.355236029119845904e-06,-8.642346155275300345e-05
2.892063492063492003e+00,-2.482058239933114732e-07,-9.490209807341215087e-05
2.892857142857142794e+00,-3.523943117295833741e-06,-9.543880406182785135e-05
2.893650793650793585e+00,-7.476778517944728913e-06,-8.835310219327452603e-05
2.894444444444444375e+00,-1.175793536357840001e-05,-7.488708894118529819e-05
2.895238095238095166e+00,-1.589833276792648110e-05,-5.676042552619278556e-05
2.896031746031745957e+00,-1.953051104272664125e-05,-3.567971138397955743e-05
2.896825396825396748e+00,-2.250735743026942997e-05,-1.294756036479495411e-05
2.897619047619047539e+00,-2.487712254978247524e-05,1.071135178045198826e-05
2.898412698412698330e+00,-2.673874166650520905e-05,3.504656702151216411e-05
2.899206349206349120e+00,-2.805623017686239323e-05,5.991597047107552866e-05
2.899999999999999911e+00,-2.853424232992236894e-05,8.476283112685901230e-05
2.900793650793650702e+00,-2.763628075838850338e-05,1.081267929319301322e-04
2.901587301587301493e+00,-2.476709265026501864e-05,1.274214951338137900e-04
2.902380952380952284e+00,-1.956465147914242681e-05,1.391674438156776132e-04
2.903174603174603075e+00,-1.218804373695073463e-05,1.397315985556318516e-04
2.903968253968253865e+00,-3.474505545964468177e-06,1.264279659682698376e-04
2.904761904761904656e+00,5.118272205421596729e-06,9.864516528490302125e-05
2.905555555555555447e+00,1.178795069341736385e-05,5.857943443793325552e-05
2.906349206349206238e+00,1.480610525308146837e-05,1.122899608948891343e-05
2.907142857142857029e+00,1.296273045337232078e-05,-3.646808685759700571e-05
2.907936507936507819e+00,5.924590182714803646e-06,-7.717876328862367059e-05
2.908730158730158610e+00,-5.571905654724576905e-06,-1.049725675802484092e-04
2.909523809523809401e+00,-1.973589360581260677e-05,-1.168153069350517687e-04
2.910317460317460192e+00,-3.395601516927199170e-05,-1.132710747984547769e-04
2.911111111111110983e+00,-4.523048525006577518e-05,-9.818102541599870630e-05
2.911904761904761774e+00,-5.073193873269735534e-05,-7.742991390158000321e-05
2.912698412698412564e+00,-4.840800519744176898e-05,-5.719879420117433876e-05
2.913492063492063355e+00,-3.749113092791702426e-05,-4.223432006415321616e-05
2.914285714285714146e+00,-1.878517958143732363e-05,-3.462343790811209238e-05
2.915079365079364937e+00,5.371870866325889320e-06,-3.339187536424587799e-05
2.915873015873015728e+00,3.149312723983499945e-05,-3.500967154801370003e-05
2.916666666666666519e+00,5.560140022133875471e-05,-3.464142980460588285e-05
2.917460317460317309e+00,7.401030799878761165e-05,-2.777276704462339229e-05
2.918253968253968100e+00,8.405057449500641365e-05,-1.173342197143608427e-05
2.919047619047618891e+00,8.458389304173504386e-05,1.333592899946940992e-05
2.919841269841269682e+00,7.619546258046670014e-05,4.436234509758126200e-05
2.920634920634920473e+00,6.102390899035460705e-05,7.609661869297637874e-05
2.921428571428571264e+00,4.226566658854101391e-05,1.024996771082522482e-04
2.922222222222222054e+00,2.346472883142316249e-05,1.183074833798014949e-04
2.923015873015872845e+00,7.750451446127717327e-06,1.202852659524304387e-04
2.923809523809523636e+00,-2.796829907304053717e-06,1.078422007196430703e-04
2.924603174603174427e+00,-7.498794658332535810e-06,8.295365589264889887e-05
2.925396825396825218e+00,-7.068750020746875057e-06,4.957616498131125381e-05
2.926190476190476009e+00,-3.258241789450135612e-06,1.282477306915048138e-05
2.926984126984126799e+00,1.719775878868633546e-06,-2.188567667933415635e-05
2.927777777777777590e+00,5.813810350370130307e-06,-4.965504934842416239e-05
2.928571428571428381e+00,7.629217784360788471e-06,-6.685174963386466792e-05
2.929365079365079172e+00,6.680484990736389909e-06,-7.175491042462330893e-05
2.930158730158729963e+00,3.368659285821524594e-06,-6.494891064541786715e-05
2.930952380952380754e+00,-1.269267663709730365e-06,-4.928802958121436306e-05
2.931746031746031544e+00,-5.940698896524521715e-06,-2.930926378278585009e-05
2.932539682539682335e+00,-9.492820868470215812e-06,-1.014445758497054507e-05
2.933333333333333126e+00,-1.122280509426369024e-05,3.797663093391080965e-06
2.934126984126983917e+00,-1.103591911203334044e-05,9.962265435114994437e-06
2.934920634920634708e+00,-9.425466442371948934e-06,8.203415133313947508e-06
2.935714285714285499e+00,-7.290240433976203480e-06,5.866199782895636865e-07
2.936507936507936289e+00,-5.643754152044391080e-06,-9.444144488800997920e-06
2.937301587301587080e+00,-5.298968518557154495e-06,-1.819021715249394757e-05
2.938095238095238315e+00,-6.623312256607049202e-06,-2.271304454832884982e-05
2.938888888888889106e+00,-9.441432464727389501e-06,-2.146469953178160788e-05
2.939682539682539897e+00,-1.311501882534377065e-05,-1.446726351151861609e-05
2.940476190476190688e+00,-1.676506404734960388e-05,-3.131854503463667799e-06
2.941269841269841478e+00,-1.955085678482880503e-05,1.015734751081839975e-05
2.942063492063492269e+00,-2.090613427784436667e-05,2.261138723265071390e-05
2.942857142857143060e+00,-2.065960548847519814e-05,3.169169854876710139e-05
2.943650793650793851e+00,-1.901763127166153556e-05,3.574064258896800488e-05
2.944444444444444642e+00,-1.643721241670751654e-05,3.442998702658414103e-05
2.945238095238095433e+00,-1.344961329972690251e-05,2.890054690949840638e-05
2.946031746031746223e+00,-1.050204898850708710e-05,2.156491481309349151e-05
2.946825396825397014e+00,-7.868588601007912961e-06,1.562919943544886729e-05
2.947619047619047805e+00,-5.648805551350876984e-06,1.440603020844065545e-05
2.948412698412698596e+00,-3.835800155893301708e-06,2.048297036484853715e-05
2.949206349206349387e+00,-2.409256793442836689e-06,3.485600535078235078e-05
2.950000000000000178e+00,-1.405126886231875074e-06,5.623920899102426271e-05
2.950793650793650968e+00,-9.308518973807128811e-07,8.082982565619873316e-05
2.951587301587301759e+00,-1.122919690139649832e-06,1.027532682152787735e-04
2.952380952380952550e+00,-2.068521039355785132e-06,1.152261587123883628e-04
2.953174603174603341e+00,-3.725981631741778466e-06,1.122275280329481441e-04
2.953968253968254132e+00,-5.877305233036430321e-06,9.025506186509153642e-05
2.954761904761904923e+00,-8.134010859477944344e-06,4.964443587111834027e-05
2.955555555555555713e+00,-1.000001267831429455e-05,-5.005336211767053898e-06
2.956349206349206504e+00,-1.097766433493538733e-05,-6.552014354362483144e-05
2.957142857142857295e+00,-1.068926336960318390e-05,-1.218235433096810606e-04
2.957936507936508086e+00,-8.979329017579499561e-06,-1.641414582491549029e-04
2.958730158730158877e+00,-5.965418095820607831e-06,-1.851313717730661626e-04
2.959523809523809668e+00,-2.018550825712125012e-06,-1.814010761345906093e-04
2.960317460317460458e+00,2.323950198376690459e-06,-1.541197069010568211e-04
2.961111111111111249e+00,6.487536424913988495e-06,-1.086878990906874239e-04
2.961904761904762040e+00,9.990815249671318359e-06,-5.360987364749115759e-05
2.962698412698412831e+00,1.253617633627166301e-05,1.206852962304692238e-06
2.963492063492063622e+00,1.403479021462399408e-05,4.643017486359945849e-05
2.964285714285714413e+00,1.456548878107907263e-05,7.517313523313687003e-05
2.965079365079365203e+00,1.429203418191288121e-05,8.431288867966584130e-05
2.965873015873015994e+00,1.337678590888785454e-05,7.489892976831444998e-05
2.966666666666666785e+00,1.192497846851108739e-05,5.153364856485090925e-05
2.967460317460317576e+00,9.975910548949895994e-06,2.093270472871709950e-05
2.968253968253968367e+00,7.535675228313485244e-06,-9.864074568749565922e-06
2.969047619047619158e+00,4.631250009500584880e-06,-3.508292447827855107e-05
2.969841269841269948e+00,1.362508042570296729e-06,-5.119632711980691870e-05
2.970634920634920739e+00,-2.065259720253837929e-06,-5.715328947672605715e-05
2.971428571428571530e+00,-5.336762373834845066e-06,-5.399064411027875468e-05
2.972222222222222321e+00,-8.052661784588111351e-06,-4.411440082115778376e-05
2.973015873015873112e+00,-9.786924187923761446e-06,-3.054602312486308325e-05
2.973809523809523903e+00,-1.017359367056139947e-05,-1.632020024776697286e-05
2.974603174603174693e+00,-9.011337647473847487e-06,-4.079390085905162059e-06
2.975396825396825484e+00,-6.359535975570665161e-06,4.187344065302152523e-06
2.976190476190476275e+00,-2.590578809927365467e-06,7.331655250282541943e-06
2.976984126984127066e+00,1.630352037406940530e-06,5.184464919943176680e-06
2.977777777777777857e+00,5.444207476317723667e-06,-1.387626179782702543e-06
2.978571428571428648e+00,7.955077763094436748e-06,-1.056942689126262787e-05
2.979365079365079438e+00,8.408125803117748293e-06,-1.987466488309586236e-05
2.980158730158730229e+00,6.350607150661663723e-06,-2.661205807266781779e-05
2.980952380952381020e+00,1.747337616974705015e-06,-2.846617651625870358e-05
2.981746031746031811e+00,-4.967917474984178567e-06,-2.404588961042371535e-05
2.982539682539682602e+00,-1.291625271797685325e-05,-1.321949999841278331e-05
2.983333333333333393e+00,-2.087717623510370655e-05,2.897355641833723428e-06
2.984126984126984183e+00,-2.746756102053837825e-05,2.230388541886163523e-05
2.984920634920634974e+00,-3.137855539310402159e-05,4.267075451487939783e-05
2.985714285714285765e+00,-3.163620327401386618e-05,6.184870622742286367e-05
2.986507936507936556e+00,-2.783497211547753013e-05,7.814194383843175019e-05
2.987301587301587347e+00,-2.028392234716214641e-05,9.032065969335102836e-05
2.988095238095238138e+00,-1.001020069104680658e-05,9.749126632205919228e-05
2.988888888888888928e+00,1.410203620317492795e-06,9.897482918264647244e-05
2.989682539682539719e+00,1.217804346423826045e-05,9.428219071739167068e-05
2.990476190476190510e+00,2.067962751564549770e-05,8.320081661277172348e-05
2.991269841269841301e+00,2.586364285234348713e-05,6.596397355993605625e-05
2.992063492063492092e+00,2.746991289914264001e-05,4.343654569518757988e-05
2.992857142857142883e+00,2.604173413472167588e-05,1.721426003396475343e-05
2.993650793650793673e+00,2.272781729800169085e-05,-1.047011506006276845e-05
2.994444444444444464e+00,1.894485809606541563e-05,-3.707829202399024837e-05
2.995238095238095255e+00,1.600317268855332636e-05,-6.026842455052755921e-05
2.996031746031746046e+00,1.479322127866505256e-05,-7.839115735424344756e-05
2.996825396825396837e+00,1.560066674350096212e-05,-9.076810997894716880e-05
2.997619047619047628e+00,1.807595772500274024e-05,-9.762377704402719618e-05
2.998412698412698418e+00,2.134542392822581580e-05,-9.970617236480592410e-05
2.999206349206349209e+00,2.422445400312989760e-05,-9.777701130967354391e-05
3.000000000000000000e+00,2.548173659731961687e-05,-9.219919092955381325e-05
3.000793650793650791e+00,2.410371608816133865e-05,-8.279242785285073972e-05
3.001587301587301582e+00,1.951648831457651942e-05,-6.901211937440644673e-05
3.002380952380952372e+00,1.173437786732763077e-05,-5.038074238571977492e-05
3.003174603174603163e+00,1.415733277804767235e-06,-2.700255533272249517e-05
3.003968253968253954e+00,-1.018551078666772464e-05,4.745875313462126805e-08
3.004761904761904745e+00,-2.137709706005715417e-05,2.862958459395689798e-05
3.005555555555555536e+00,-3.028866107544869426e-05,5.579850479487482890e-05
3.006349206349206327e+00,-3.521084418308101355e-05,7.833862005692684527e-05
3.007142857142857117e+00,-3.496237785767626822e-05,9.340520961472289531e-05
3.007936507936507908e+00,-2.920525831960287636e-05,9.909192893604594119e-05
3.008730158730158699e+00,-1.861379551411042601e-05,9.480566805011060312e-05
3.009523809523809490e+00,-4.821995681148669167e-06,8.140348829152321559e-05
3.010317460317460281e+00,9.870334626999139948e-06,6.108985699509816110e-05
3.011111111111111072e+00,2.297634226751579377e-05,3.708980466396054115e-05
3.011904761904761862e+00,3.236327095641209413e-05,1.313556891810240562e-05
3.012698412698412653e+00,3.670563016112274118e-05,-7.156112273620139847e-06
3.013492063492063444e+00,3.572446988185734666e-05,-2.090124656252349603e-05
3.014285714285714235e+00,3.015652887065352312e-05,-2.643705641157946293e-05
3.015079365079365026e+00,2.148452180255851487e-05,-2.358460549753893512e-05
3.015873015873015817e+00,1.152968902364728353e-05,-1.363489319570843091e-05
3.016666666666666607e+00,2.034040184038907612e-06,9.394187649241998130e-07
3.017460317460317398e+00,-5.661646731022119773e-06,1.699008557151567836e-05
3.018253968253968189e+00,-1.078928989068227630e-05,3.131191549790973266e-05
3.019047619047618980e+00,-1.317363061664478229e-05,4.124089923599157575e-05
3.019841269841269771e+00,-1.313671743621934774e-05,4.510436405244419014e-05
3.020634920634920562e+00,-1.133625226188461552e-05,4.243461042944691308e-05
3.021428571428571352e+00,-8.584314135056438913e-06,3.391833032100778628e-05
3.022222222222222143e+00,-5.681962698073482628e-06,2.111851465583308382e-05
3.023015873015872934e+00,-3.292447323905988401e-06,6.053619376689884545e-06
3.023809523809523725e+00,-1.863735363895228168e-06,-9.260248802912103371e-06
3.024603174603174516e+00,-1.600463578685031525e-06,-2.320085293733866572e-05
3.025396825396825307e+00,-2.477290414676665547e-06,-3.478135534926414481e-05
3.026190476190476097e+00,-4.281440723262254759e-06,-4.369667095282577250e-05
3.026984126984126888e+00,-6.672052498517009735e-06,-5.018639353664354317e-05
3.027777777777777679e+00,-9.246110008840635483e-06,-5.478256315889411612e-05
3.028571428571428470e+00,-1.160339681606612451e-05,-5.803923343882927264e-05
3.029365079365079261e+00,-1.340481624405164870e-05,-6.033079771097853107e-05
3.030158730158730052e+00,-1.441894098571930127e-05,-6.176736001057894494e-05
3.030952380952380842e+00,-1.455103312892016662e-05,-6.222393248710327072e-05
3.031746031746031633e+00,-1.384883774336443051e-05,-6.143294885080875984e-05
3.032539682539682424e+00,-1.248242364882709415e-05,-5.906963386281730932e-05
3.033333333333333215e+00,-1.070132472224597078e-05,-5.478537682569629573e-05
3.034126984126984006e+00,-8.778442482690356667e-06,-4.820502252844664098e-05
3.034920634920634797e+00,-6.953311894072977115e-06,-3.895745755394829551e-05
3.035714285714285587e+00,-5.386365903574070953e-06,-2.681014076795023665e-05
3.036507936507936378e+00,-4.132211114010880442e-06,-1.191555233330308585e-05
3.037301587301587169e+00,-3.135788955230095194e-06,4.917807761329950084e-06
3.038095238095237960e+00,-2.251799085189944753e-06,2.209008134148885281e-05
3.038888888888888751e+00,-1.284668850233068142e-06,3.737133074242897379e-05
3.039682539682539542e+00,-4.289958885582682481e-08,4.842680429266159217e-05
3.040476190476190332e+00,1.602161990390208240e-06,5.360259686418717686e-05
3.041269841269841123e+00,3.665945889546510995e-06,5.268449132672261252e-05
3.042063492063491914e+00,6.021965991933828506e-06,4.725191883423241927e-05
3.042857142857142705e+00,8.405402315687862810e-06,4.034591997209240988e-05
3.043650793650793496e+00,1.045327964662703351e-05,3.545674871174837552e-05
3.044444444444444287e+00,1.177588015688840860e-05,3.518470005370756272e-05
3.045238095238095077e+00,1.204346363903504334e-05,4.014225664364894894e-05
3.046031746031745868e+00,1.106597999735418998e-05,4.861050016386900469e-05
3.046825396825396659e+00,8.844843281788889415e-06,5.714588787282153849e-05
3.047619047619047450e+00,5.583735622984202572e-06,6.190311306703091029e-05
3.048412698412698241e+00,1.655696540911207371e-06,6.010888027216561969e-05
3.049206349206349032e+00,-2.466426366752052116e-06,5.106197338014235534e-05
3.049999999999999822e+00,-6.300700568468490563e-06,3.628043388225882769e-05
3.050793650793650613e+00,-9.446953549879175612e-06,1.882710995441553829e-05
3.051587301587301404e+00,-1.165632054357801886e-05,2.185784596090263985e-06
3.052380952380952195e+00,-1.286420008025175331e-05,-1.083610195450196908e-05
3.053174603174602986e+00,-1.318209061375516048e-05,-1.882711931690962857e-05
3.053968253968253777e+00,-1.285492079451858935e-05,-2.197858719195701314e-05
3.054761904761904567e+00,-1.219773922190584074e-05,-2.181941404907562001e-05
3.055555555555555358e+00,-1.152691312995491381e-05,-2.061708981753686065e-05
3.056349206349206149e+00,-1.109738249682861577e-05,-2.062642548434465527e-05
3.057142857142856940e+00,-1.105264077906389897e-05,-2.338564011856156445e-05
3.057936507936507731e+00,-1.139154665511124132e-05,-2.925024021255296649e-05
3.058730158730158522e+00,-1.195642325054491816e-05,-3.729975916575951569e-05
3.059523809523809312e+00,-1.244745152912950845e-05,-4.564562679775451513e-05
3.060317460317460103e+00,-1.246603132761060952e-05,-5.203915028472532557e-05
3.061111111111110894e+00,-1.158429067627273428e-05,-5.457987073029912901e-05
3.061904761904761685e+00,-9.431647395993808213e-06,-5.229883350567181028e-05
3.062698412698412920e+00,-5.784569344310662282e-06,-4.544111808553125614e-05
3.063492063492063711e+00,-6.431785832365021482e-07,-3.536645688575814223e-05
3.064285714285714501e+00,5.721667152601755136e-06,-2.409663385062509803e-05
3.065079365079365292e+00,1.276379905367168563e-05,-1.365101604504274796e-05
3.065873015873016083e+00,1.970526458035684215e-05,-5.403668294808901223e-06
3.066666666666666874e+00,2.562400364097921528e-05,2.867276386257833179e-07
3.067460317460317665e+00,2.957412914251012002e-05,4.024114967012755381e-06
3.068253968253968456e+00,3.072435089903012811e-05,6.942235775759803871e-06
3.069047619047619246e+00,2.850027063805246025e-05,1.011438746915929668e-05
3.069841269841270037e+00,2.271577661206281397e-05,1.408687151084250551e-05
3.070634920634920828e+00,1.367572667578188053e-05,1.872666338904613943e-05
3.071428571428571619e+00,2.227775269112797311e-06,2.340255132898521603e-05
3.072222222222222410e+00,-1.026164081565286978e-05,2.736811894473280618e-05
3.073015873015873201e+00,-2.202987422290111056e-05,3.014577628392121176e-05
3.073809523809523991e+00,-3.114987862567472821e-05,3.172915812331007340e-05
3.074603174603174782e+00,-3.585664799749853842e-05,3.250764085791588035e-05
3.075396825396825573e+00,-3.491803279195375670e-05,3.294526947319694789e-05
3.076190476190476364e+00,-2.796632040555015427e-05,3.317140358496361690e-05
3.076984126984127155e+00,-1.569346062215802782e-05,3.270160584217250189e-05
3.077777777777777946e+00,1.695033031200946273e-07,3.046543002116958626e-05
3.078571428571428736e+00,1.712116449504295741e-05,2.518111592331949197e-05
3.079365079365079527e+00,3.237368000499932062e-05,1.594266992579973453e-05
3.080158730158730318e+00,4.344996984637891001e-05,2.760872773752527707e-06
3.080952380952381109e+00,4.873924236018240127e-05,-1.319798707930743138e-05
3.081746031746031900e+00,4.784486592366905702e-05,-2.979734827450839058e-05
3.082539682539682691e+00,4.161014116174355904e-05,-4.446931931936596303e-05
3.083333333333333481e+00,3.181460074955188129e-05,-5.488944335562727855e-05
3.084126984126984272e+00,2.065161017740019315e-05,-5.953189855509533014e-05
3.084920634920635063e+00,1.016765292786594475e-05,-5.792986343126656885e-05
3.085714285714285854e+00,1.832788941552552479e-06,-5.061643734793047888e-05
3.086507936507936645e+00,-3.661659424077383880e-06,-3.885705321343561528e-05
3.087301587301587436e+00,-6.371419018282820758e-06,-2.432845825007530805e-05
3.088095238095238226e+00,-6.894298877104484323e-06,-8.844177903944707656e-06
3.088888888888889017e+00,-6.085241141815230080e-06,5.862692167104531346e-06
3.089682539682539808e+00,-4.784959357436728266e-06,1.833382176112619962e-05
3.090476190476190599e+00,-3.631902854306973091e-06,2.756777801584699749e-05
3.091269841269841390e+00,-2.990157142005875806e-06,3.314610692421222525e-05
3.092063492063492181e+00,-2.987116356137913686e-06,3.523502793623094215e-05
3.092857142857142971e+00,-3.623836531780508242e-06,3.443076096081753223e-05
3.093650793650793762e+00,-4.903631778188988106e-06,3.149250243374687242e-05
3.094444444444444553e+00,-6.923302520507637954e-06,2.707053137074731295e-05
3.095238095238095344e+00,-9.886497056977281662e-06,2.154674435395727275e-05
3.096031746031746135e+00,-1.402662580099432020e-05,1.505703793972145829e-05
3.096825396825396925e+00,-1.945942266767334349e-05,7.686009821389902527e-06
3.097619047619047716e+00,-2.601249647006476041e-05,-2.514337360192686449e-07
3.098412698412698507e+00,-3.309341418019414588e-05,-7.973753342808117866e-06
3.099206349206349298e+00,-3.965599419874590463e-05,-1.417473872484588211e-05
3.100000000000000089e+00,-4.430603236441703319e-05,-1.722406367359788140e-05
3.100793650793650880e+00,-4.555304632026307765e-05,-1.561090962644991244e-05
3.101587301587301670e+00,-4.216829065491354889e-05,-8.508945002643375255e-06
3.102380952380952461e+00,-3.356355866205717065e-05,3.733061429714644708e-06
3.103174603174603252e+00,-2.007771692894266938e-05,1.937908164397158077e-05
3.103968253968254043e+00,-3.063883531878937377e-06,3.550518150931299805e-05
3.104761904761904834e+00,1.528370695949238050e-05,4.860578844735271453e-05
3.105555555555555625e+00,3.234550139467183723e-05,5.544477103203083090e-05
3.106349206349206415e+00,4.563267599555776826e-05,5.388463250853413609e-05
3.107142857142857206e+00,5.332793179056173459e-05,4.343414070826742316e-05
3.107936507936507997e+00,5.466079822061700006e-05,2.536915697600186255e-05
3.108730158730158788e+00,5.002645597495402772e-05,2.433813617983364222e-06
3.109523809523809579e+00,4.083906605021252683e-05,-2.175809428095826161e-05
3.110317460317460370e+00,2.918106261512322765e-05,-4.345825619827538652e-05
3.111111111111111160e+00,1.735073994856790787e-05,-5.949934340932615674e-05
3.111904761904761951e+00,7.419322089513647801e-06,-6.786149825067190134e-05
3.112698412698412742e+00,8.894017364803195164e-07,-6.799154304914588711e-05
3.113492063492063533e+00,-1.492842548303608899e-06,-6.081451814152448183e-05
3.114285714285714324e+00,2.352540174887499010e-07,-4.843246274284270777e-05
3.115079365079365115e+00,5.357196746986559585e-06,-3.357977444047430580e-05
3.115873015873015905e+00,1.266563279279491741e-05,-1.897644559940121498e-05
3.116666666666666696e+00,2.068648168093223651e-05,-6.753393571011396909e-06
3.117460317460317487e+00,2.790214822887265918e-05,1.904395686452475843e-06
3.118253968253968278e+00,3.295201394059050896e-05,6.829337150303984314e-06
3.119047619047619069e+00,3.479881422751458911e-05,8.680717636425729539e-06
3.119841269841269860e+00,3.285183628328392278e-05,8.583783255497685869e-06
3.120634920634920650e+00,2.703512642744090858e-05,7.719953080204266060e-06
3.121428571428571441e+00,1.778786397855177501e-05,6.984091081086359155e-06
3.122222222222222232e+00,5.990051742843431475e-06,6.792852656574479769e-06
3.123015873015873023e+00,-7.179929137258427837e-06,7.078849668949480797e-06
3.123809523809523814e+00,-2.043286520262321322e-05,7.449592423747385391e-06
3.124603174603174605e+00,-3.256521051080289210e-05,7.441918598957352821e-06
3.125396825396825395e+00,-4.262441709802064271e-05,6.775717813085076321e-06
3.126190476190476186e+00,-5.001065522987167963e-05,5.514262254728272532e-06
3.126984126984126977e+00,-5.449972730943363429e-05,4.073069563061779022e-06
3.127777777777777768e+00,-5.619313732429989644e-05,3.074436033230599111e-06
3.128571428571428559e+00,-5.541957591488493355e-05,3.100316537370691206e-06
3.129365079365079350e+00,-5.262153219640300513e-05,4.431293699698338373e-06
3.130158730158730140e+00,-4.825826553527440320e-05,6.863840285189041402e-06
3.130952380952380931e+00,-4.274407456965459889e-05,9.674912884125997894e-06
3.131746031746031722e+00,-3.642521929483533345e-05,1.176104400039369422e-05
3.132539682539682513e+00,-2.958656835902924453e-05,1.192794242826429623e-05
3.133333333333333304e+00,-2.247299698806624592e-05,9.258034141104838318e-06
3.134126984126984095e+00,-1.530999656878662870e-05,3.452331812403029029e-06
3.134920634920634885e+00,-8.311060542852968263e-06,-4.958961848989359010e-06
3.135714285714285676e+00,-1.665787460781278666e-06,-1.461373828366980698e-05
3.136507936507936467e+00,4.487401712530692271e-06,-2.354718737141937160e-05
3.137301587301587258e+00,1.008901788081680991e-05,-2.961431832684055583e-05
3.138095238095238049e+00,1.516615248896493334e-05,-3.101229898585872917e-05
3.138888888888888840e+00,1.980474267035997574e-05,-2.677896772034928205e-05
3.139682539682539630e+00,2.408637764914238542e-05,-1.714538468303074286e-05
3.140476190476190421e+00,2.800694115822140753e-05,-3.646830796332691117e-06
3.141269841269841212e+00,3.140547117551506252e-05,1.106218884799005661e-05
3.142063492063492003e+00,3.393273078005471476e-05,2.369053535350605839e-05
3.142857142857142794e+00,3.508114942535834946e-05,3.102627993897755438e-05
3.143650793650793585e+00,3.428297815579702993e-05,3.075044793313214358e-05
3.144444444444444375e+00,3.106326546465720486e-05,2.215975629422847873e-05
3.145238095238095166e+00,2.521268664739973812e-05,6.598647597258913820e-06
3.146031746031745957e+00,1.693033341016744761e-05,-1.255503694659787995e-05
3.146825396825396748e+00,6.886050822453704444e-06,-3.041380396291546543e-05
3.147619047619047539e+00,-3.831746445053604386e-06,-4.155490798526737916e-05
3.148412698412698330e+00,-1.388715782986764382e-05,-4.126209655397004557e-05
3.149206349206349120e+00,-2.195532024416621650e-05,-2.675526529836159116e-05
3.149999999999999911e+00,-2.700489708814391684e-05,1.907456401196973359e-06
3.150793650793650702e+00,-2.852559793535906481e-05,4.152463800110535371e-05
3.151587301587301493e+00,-2.663345162982142525e-05,8.618277954238117648e-05
3.152380952380952284e+00,-2.202417489063246441e-05,1.283703526363077336e-04
3.153174603174603075e+00,-1.579263526385986795e-05,1.605140862590214660e-04
3.153968253968253865e+00,-9.173548640386141749e-06,1.765299103225427730e-04
3.154761904761904656e+00,-3.273380075507241982e-06,1.729679413301076928e-04
3.155555555555555447e+00,1.143529016476732325e-06,1.494766001935106717e-04
3.156349206349206238e+00,3.772990819717830742e-06,1.085599208159252610e-04
3.157142857142857029e+00,4.778832733478316050e-06,5.483683226928084471e-05
3.157936507936507819e+00,4.701688788844036787e-06,-5.881512140003294882e-06
3.158730158730158610e+00,4.298024832862600196e-06,-6.743325879689194636e-05
3.159523809523809401e+00,4.348078667536014880e-06,-1.239494366551594201e-04
3.160317460317460192e+00,5.472892807266338921e-06,-1.703168868233136232e-04
3.161111111111110983e+00,7.995363768675596442e-06,-2.025347245116107086e-04
3.161904761904761774e+00,1.186913327301186470e-05,-2.180191953553400734e-04
3.162698412698412564e+00,1.668418885723921903e-05,-2.158547191816739548e-04
3.163492063492063355e+00,2.174275942361323437e-05,-1.969349914987210523e-04
3.164285714285714146e+00,2.618717311800838126e-05,-1.639163368942987611e-04
3.165079365079364937e+00,2.915472076288221813e-05,-1.209292175762061232e-04
3.165873015873015728e+00,2.993288272731452692e-05,-7.305270629406998735e-05
3.166666666666666519e+00,2.808989806807873972e-05,-2.562023315096953436e-05
3.167460317460317309e+00,2.355901045649971292e-05,1.653497241095104156e-05
3.168253968253968100e+00,1.665955712664702245e-05,4.977489578736762432e-05
3.169047619047618891e+00,8.046250569515063042e-06,7.217774459887678871e-05
3.169841269841269682e+00,-1.407908717523309095e-06,8.378403084242530302e-05
3.170634920634920473e+00,-1.077056043346279910e-05,8.649400862263614961e-05
3.171428571428571264e+00,-1.920950324458387163e-05,8.359529559156052118e-05
3.172222222222222054e+00,-2.610840790818469222e-05,7.897805099715544778e-05
3.173015873015872845e+00,-3.111115680289749681e-05,7.618075543094053213e-05
3.173809523809523636e+00,-3.409714315559573774e-05,7.747376254171180296e-05
3.174603174603174427e+00,-3.511490135805269975e-05,8.320935797742737327e-05
3.175396825396825218e+00,-3.430758705516998101e-05,9.163826357857303602e-05
3.176190476190476009e+00,-3.185324407515212640e-05,9.930885148486413567e-05
3.176984126984126799e+00,-2.792875224653683841e-05,1.020214621340380460e-04
3.177777777777777590e+00,-2.269827724718567402e-05,9.612091352955730631e-05
3.178571428571428381e+00,-1.632428010488647457e-05,7.973794986888324131e-05
3.179365079365079172e+00,-8.996820519686596847e-06,5.353324483845964369e-05
3.180158730158729963e+00,-9.725623787170687830e-07,2.062592864378766440e-05
3.180952380952380754e+00,7.390325929155759756e-06,-1.431834321948382856e-05
3.181746031746031544e+00,1.561804276556890653e-05,-4.652225600262477188e-05
3.182539682539682335e+00,2.314152133400415210e-05,-7.249988896892975757e-05
3.183333333333333126e+00,2.935513036293695670e-05,-9.086257317751365620e-05
3.184126984126983917e+00,3.370360084796551053e-05,-1.022055470511341841e-04
3.184920634920634708e+00,3.577550294787761563e-05,-1.081588323697082375e-04
3.185714285714285499e+00,3.537850932764345516e-05,-1.100731907949662532e-04
3.186507936507936289e+00,3.257791482414326782e-05,-1.079964634903853547e-04
3.187301587301587080e+00,2.769109455925290386e-05,-1.004783029089179557e-04
3.188095238095238315e+00,2.124213053488513449e-05,-8.535951721214685693e-05
3.188888888888889106e+00,1.388957955328355171e-05,-6.121891617183205278e-05
3.189682539682539897e+00,6.343348377426488232e-06,-2.879201449233815445e-05
3.190476190476190688e+00,-7.166261203782998823e-07,8.368733268538770551e-06
3.191269841269841478e+00,-6.712440630257307110e-06,4.440695731830850948e-05
3.192063492063492269e+00,-1.122596109300431136e-05,7.272892687094141984e-05
3.192857142857143060e+00,-1.403643060705872029e-05,8.801672788166340917e-05
3.193650793650793851e+00,-1.513160646732910274e-05,8.788688700644159565e-05
3.194444444444444642e+00,-1.468862458519198763e-05,7.357291887269920853e-05
3.195238095238095433e+00,-1.302651966085689101e-05,4.943961575081828619e-05
3.196031746031746223e+00,-1.053826204756922778e-05,2.158582409099713397e-05
3.196825396825397014e+00,-7.613328731681870579e-06,-3.924561968146630486e-06
3.197619047619047805e+00,-4.563118811568142408e-06,-2.261339863890715759e-05
3.198412698412698596e+00,-1.564172857207205961e-06,-3.248147371961679992e-05
3.199206349206349387e+00,1.361925642964086217e-06,-3.407131025189053680e-05
3.200000000000000178e+00,4.313282640972185012e-06,-2.980715291848173170e-05
3.200793650793650968e+00,7.409475382100947497e-06,-2.292406200148224227e-05
3.201587301587301759e+00,1.064692641366014833e-05,-1.637363155174382793e-05
3.202380952380952550e+00,1.375471672116346951e-05,-1.203565558634212281e-05
3.203174603174603341e+00,1.611877580384401512e-05,-1.041286008757788275e-05
3.203968253968254132e+00,1.683711291998548395e-05,-1.080549325525513471e-05
3.204761904761904923e+00,1.492956587214554063e-05,-1.181671037852731024e-05
3.205555555555555713e+00,9.663256079916781775e-06,-1.196534433904923255e-05
3.206349206349206504e+00,8.958724698437561447e-07,-1.018842565951323140e-05
3.207142857142857295e+00,-1.068925472000348761e-05,-6.090392693717879718e-06
3.207936507936508086e+00,-2.356376707357788221e-05,8.668708671663464194e-08
3.208730158730158877e+00,-3.559385020355240666e-05,7.680160752090854130e-06
3.209523809523809668e+00,-4.449218862398969168e-05,1.585690143213753091e-05
3.210317460317460458e+00,-4.835690557865001391e-05,2.377098014204594994e-05
3.211111111111111249e+00,-4.614045321384639789e-05,3.060085572356207662e-05
3.211904761904762040e+00,-3.791819763474811757e-05,3.552989178118285307e-05
3.212698412698412831e+00,-2.489242106856146222e-05,3.775782354000666090e-05
3.213492063492063622e+00,-9.142022632468602163e-06,3.658831675638424063e-05
3.214285714285714413e+00,6.810853370067611361e-06,3.157865054862272455e-05
3.215079365079365203e+00,2.050933322593328633e-05,2.270356079652677939e-05
3.215873015873015994e+00,3.002953289840396941e-05,1.047983788182175293e-05
3.216666666666666785e+00,3.431111255624285392e-05,-3.995439581084905111e-06
3.217460317460317576e+00,3.329276305605876777e-05,-1.912702768367097688e-05
3.218253968253968367e+00,2.783983481539009045e-05,-3.302896152085125733e-05
3.219047619047619158e+00,1.949460607651415758e-05,-4.381909191692355071e-05
3.219841269841269948e+00,1.011595537345716656e-05,-4.992721452992364959e-05
3.220634920634920739e+00,1.496164893129661037e-06,-5.033844294092986365e-05
3.221428571428571530e+00,-4.961117353642475738e-06,-4.472206487435409473e-05
3.222222222222222321e+00,-8.445158534729087615e-06,-3.344312416713292671e-05
3.223015873015873112e+00,-8.804537904566912804e-06,-1.749663431260763038e-05
3.223809523809523903e+00,-6.485053837981537658e-06,1.581689519014134041e-06
3.224603174603174693e+00,-2.366910830301953114e-06,2.180249049458551203e-05
3.225396825396825484e+00,2.458878935947952059e-06,4.083434051237323076e-05
3.226190476190476275e+00,6.926808316302154014e-06,5.619718963513613703e-05
3.226984126984127066e+00,1.019771493446698871e-05,6.557192815293699404e-05
3.227777777777777857e+00,1.178695686980840327e-05,6.719778273978687321e-05
3.228571428571428648e+00,1.160191731461594940e-05,6.027008512588505047e-05
3.229365079365079438e+00,9.891955939298555241e-06,4.522773639437869522e-05
3.230158730158730229e+00,7.132190630170272447e-06,2.383873729783447083e-05
3.230952380952381020e+00,3.875587677147129499e-06,-9.619818574145038331e-07
3.231746031746031811e+00,6.138030222565835456e-07,-2.547810838213408381e-05
3.232539682539682602e+00,-2.316766062948603548e-06,-4.585300776066179255e-05
3.233333333333333393e+00,-4.762601148877507789e-06,-5.877604406911289580e-05
3.234126984126984183e+00,-6.716137058528445559e-06,-6.216016187734566272e-05
3.234920634920634974e+00,-8.237285650114696024e-06,-5.562928132779212915e-05
