Timestamp,Flexor carpi radialis,Extensor digitorum
2.000000000000000000e+00,-7.478251887170070855e-05,-1.145417397093813365e-05
2.000793650793650791e+00,-9.395078165447415871e-05,-1.181374610964012857e-05
2.001587301587301582e+00,-1.072308715004872021e-04,-1.061971920141955387e-05
2.002380952380952372e+00,-1.118746883822984496e-04,-8.524355785111799121e-06
2.003174603174603163e+00,-1.061014265864396134e-04,-6.313653184923751059e-06
2.003968253968253954e+00,-8.952756804072591903e-05,-4.684864392828996473e-06
2.004761904761904745e+00,-6.338944963318794039e-05,-4.067092844875585870e-06
2.005555555555555536e+00,-3.049808368018220054e-05,-4.522054716026568808e-06
2.006349206349206327e+00,5.076102430298757956e-06,-5.736833059246198205e-06
2.007142857142857117e+00,3.853547659072915790e-05,-7.100173940074599174e-06
2.007936507936507908e+00,6.501917161102981177e-05,-7.840733877637990425e-06
2.008730158730158699e+00,8.030826051507074237e-05,-7.197862651696868705e-06
2.009523809523809490e+00,8.148792927935675373e-05,-4.591048827587948385e-06
2.010317460317460281e+00,6.748381572875626188e-05,2.460799339534813370e-07
2.011111111111111072e+00,3.938535335049648270e-05,7.194167897415793644e-06
2.011904761904761862e+00,4.758922999459402268e-07,1.574991993130085864e-05
2.012698412698412653e+00,-4.407578474910779209e-05,2.509182991015732061e-05
2.013492063492063444e+00,-8.784957505008376890e-05,3.418575762724463779e-05
2.014285714285714235e+00,-1.240607831784022589e-04,4.190589861758943084e-05
2.015079365079365026e+00,-1.465784867354344195e-04,4.715845451370962609e-05
2.015873015873015817e+00,-1.509159225905975339e-04,4.900630455130421744e-05
2.016666666666666607e+00,-1.350079450397387152e-04,4.679092764639943794e-05
2.017460317460317398e+00,-9.960297791044943534e-05,4.023294052391536516e-05
2.018253968253968189e+00,-4.816664192909042217e-05,2.947949008217169676e-05
2.019047619047618980e+00,1.369224068812420823e-05,1.507473733563133799e-05
2.019841269841269771e+00,7.914483811403287322e-05,-2.134780901182546130e-06
2.020634920634920562e+00,1.412047004899014070e-04,-2.110582657723405613e-05
2.021428571428571352e+00,1.937024775807037671e-04,-4.065078104663907930e-05
2.022222222222222143e+00,2.320013925623285540e-04,-5.941508994986354966e-05
2.023015873015872934e+00,2.533826262852434679e-04,-7.582937677913996033e-05
2.023809523809523725e+00,2.571233822036185241e-04,-8.812865756916019521e-05
2.024603174603174516e+00,2.443364381221824677e-04,-9.450783633789301837e-05
2.025396825396825307e+00,2.176398795509261182e-04,-9.340927148522592833e-05
2.026190476190476097e+00,1.807122437902844555e-04,-8.386870546394936015e-05
2.026984126984126888e+00,1.377880427104942289e-04,-6.582196419397810978e-05
2.027777777777777679e+00,9.315786451041596162e-05,-4.029451959298687228e-05
2.028571428571428470e+00,5.073387450167686686e-05,-9.428471216099280948e-06
2.029365079365079261e+00,1.371434999166669699e-05,2.367666509340912045e-05
2.030158730158730052e+00,-1.565680549265815623e-05,5.531916282518129960e-05
2.030952380952380842e+00,-3.626219938497307670e-05,8.173096970215627864e-05
2.031746031746031633e+00,-4.823291457151489682e-05,9.972914041245711314e-05
2.032539682539682424e+00,-5.300414574351240162e-05,1.073528567195648764e-04
2.033333333333333215e+00,-5.324912658234874028e-05,1.043096052582842407e-04
2.034126984126984006e+00,-5.261703843566036313e-05,9.206615291696170877e-05
2.034920634920634797e+00,-5.522166240367060305e-05,7.350932367616969218e-05
2.035714285714285587e+00,-6.489331543825017663e-05,5.224284554587540786e-05
2.036507936507936378e+00,-8.429977342891943420e-05,3.171702325887398811e-05
2.037301587301587169e+00,-1.141274587799228518e-04,1.444555553872050961e-05
2.038095238095237960e+00,-1.525549176781165511e-04,1.524140680198892144e-06
2.038888888888888751e+00,-1.952216324943057432e-04,-7.447095031051323104e-06
2.039682539682539542e+00,-2.357917593624084631e-04,-1.406359776353691550e-05
2.040476190476190332e+00,-2.670548841222966630e-04,-2.055329033521788101e-05
2.041269841269841123e+00,-2.823404100943902061e-04,-2.909461414919742946e-05
2.042063492063491914e+00,-2.769076215646459546e-04,-4.115513002243880786e-05
2.042857142857142705e+00,-2.489581338604649461e-04,-5.698321662515615373e-05
2.043650793650793496e+00,-2.000165405221593568e-04,-7.538077664351989452e-05
2.044444444444444287e+00,-1.346074156121254109e-04,-9.385429745259827791e-05
2.045238095238095077e+00,-5.935344527526275975e-05,-1.091549852590447523e-04
2.046031746031745868e+00,1.824116447294035038e-05,-1.180852472780078355e-04
2.046825396825396659e+00,9.101367555091958419e-05,-1.183310564715705864e-04
2.047619047619047450e+00,1.531114276335371609e-04,-1.090544848829748121e-04
2.048412698412698241e+00,2.005546874072467161e-04,-9.107318743652155848e-05
2.049206349206349032e+00,2.313727456129376363e-04,-6.661143896765338106e-05
2.049999999999999822e+00,2.454013061453998472e-04,-3.874439381084539117e-05
2.050793650793650613e+00,2.438836917783306600e-04,-1.071994338010224014e-05
2.051587301587301404e+00,2.290086481175795702e-04,1.466665394258768555e-05
2.052380952380952195e+00,2.034650672686146738e-04,3.551784016416833112e-05
2.053174603174602986e+00,1.700403979582063648e-04,5.102794307629767595e-05
2.053968253968253777e+00,1.312704518016688938e-04,6.141307891041158755e-05
2.054761904761904567e+00,8.917086752167563217e-05,6.762248930262751976e-05
2.055555555555555358e+00,4.511981381166437177e-05,7.093070937206709576e-05
2.056349206349206149e+00,-2.477696326820396539e-08,7.253627903130425872e-05
2.057142857142856940e+00,-4.553835193377640236e-05,7.327381802625295164e-05
2.057936507936507731e+00,-9.025140036944799017e-05,7.348918807286504862e-05
2.058730158730158522e+00,-1.319889898078407085e-04,7.306182797399929602e-05
2.059523809523809312e+00,-1.673069831834752674e-04,7.151696672633147073e-05
2.060317460317460103e+00,-1.917510214862788351e-04,6.817145932498887338e-05
2.061111111111110894e+00,-2.006928052732709529e-04,6.229225827209677619e-05
2.061904761904761685e+00,-1.905742094073147529e-04,5.328075542587834378e-05
2.062698412698412920e+00,-1.602052283672422868e-04,4.089157660587272060e-05
2.063492063492063711e+00,-1.116907863560806025e-04,2.544809542666977485e-05
2.064285714285714501e+00,-5.063148737009956978e-05,7.969648108270650238e-06
2.065079365079365292e+00,1.456850455237223873e-05,-9.874960907486830564e-06
2.065873015873016083e+00,7.420200775035133733e-05,-2.601590730584174910e-05
2.066666666666666874e+00,1.192375789254496632e-04,-3.838056642971429173e-05
2.067460317460317665e+00,1.432791073028774750e-04,-4.533267909485132175e-05
2.068253968253968456e+00,1.439811294200074013e-04,-4.603416255595378480e-05
2.069047619047619246e+00,1.235280344455074277e-04,-4.064028768391296411e-05
2.069841269841270037e+00,8.804575287843806114e-05,-3.028418036044624025e-05
2.070634920634920828e+00,4.611889944940604291e-05,-1.685387613067379113e-05
2.071428571428571619e+00,6.829295860238909671e-06,-2.612600232971010807e-06
2.072222222222222410e+00,-2.216994858008510368e-05,1.024412003745635471e-05
2.073015873015873201e+00,-3.609610027213448259e-05,1.998155253240951207e-05
2.073809523809523991e+00,-3.372424230319128250e-05,2.557850364883446179e-05
2.074603174603174782e+00,-1.726290057794780891e-05,2.680443985272221725e-05
2.075396825396825573e+00,8.455427011760717975e-06,2.414081148121172753e-05
2.076190476190476364e+00,3.721644233152074686e-05,1.859561267389484373e-05
2.076984126984127155e+00,6.279164184977905770e-05,1.146394160203458899e-05
2.077777777777777946e+00,8.014116768446301223e-05,4.079524839487137616e-06
2.078571428571428736e+00,8.623803227220346089e-05,-2.407801783518459401e-06
2.079365079365079527e+00,8.040923683678971785e-05,-7.203061485765859723e-06
2.080158730158730318e+00,6.420085012089586781e-05,-9.966811589923815236e-06
2.080952380952381109e+00,4.086177828256235326e-05,-1.083067111838357799e-05
2.081746031746031900e+00,1.459099819783725465e-05,-1.031931784444572522e-05
2.082539682539682691e+00,-1.029397520939649210e-05,-9.187016008997459147e-06
2.083333333333333481e+00,-3.012357092192977765e-05,-8.201691961450093538e-06
2.084126984126984272e+00,-4.246326895519501220e-05,-7.930895818460379800e-06
2.084920634920635063e+00,-4.644447102853175555e-05,-8.589315930715203334e-06
2.085714285714285854e+00,-4.280407756038151696e-05,-9.993038943179936265e-06
2.086507936507936645e+00,-3.364205114709104596e-05,-1.163548125315861570e-05
2.087301587301587436e+00,-2.195000710272267458e-05,-1.286276553843360891e-05
2.088095238095238226e+00,-1.099968533895092479e-05,-1.309512981467538780e-05
2.088888888888889017e+00,-3.699062603742492409e-06,-1.202791627263876980e-05
2.089682539682539808e+00,-2.023383373988028474e-06,-9.754365761702245307e-06
2.090476190476190599e+00,-6.614939981779835338e-06,-6.776522167280932758e-06
2.091269841269841390e+00,-1.662590322805685263e-05,-3.900860963513048019e-06
2.092063492063492181e+00,-2.985108352863909305e-05,-2.044441231981544347e-06
2.092857142857142971e+00,-4.315344878481317025e-05,-1.998731043519938128e-06
2.093650793650793762e+00,-5.312176903965666505e-05,-4.207115958036449096e-06
2.094444444444444553e+00,-5.683226840188334748e-05,-8.609914047762846513e-06
2.095238095238095344e+00,-5.254452355418131536e-05,-1.460111625926225713e-05
2.096031746031746135e+00,-4.016954777807654129e-05,-2.112053951072475190e-05
2.096825396825396925e+00,-2.140294175338969428e-05,-2.686674757721300411e-05
2.097619047619047716e+00,5.067873182239235482e-07,-3.056876428062676489e-05
2.098412698412698507e+00,2.131203309494078787e-05,-3.122881441295809939e-05
2.099206349206349298e+00,3.654439974008109133e-05,-2.826995455076499955e-05
2.100000000000000089e+00,4.238391318458807763e-05,-2.158061595507023350e-05
2.100793650793650880e+00,3.646754571133790235e-05,-1.149906508031593239e-05
2.101587301587301670e+00,1.848702444661156895e-05,1.212880724650864165e-06
2.102380952380952461e+00,-9.550103174611828969e-06,1.539454091005451177e-05
2.103174603174603252e+00,-4.347516008227974779e-05,2.954218451117141328e-05
2.103968253968254043e+00,-7.754198059952354619e-05,4.194418436365831567e-05
2.104761904761904834e+00,-1.053756020913045071e-04,5.091554940464210422e-05
2.105555555555555625e+00,-1.211426225885829557e-04,5.509495395358037970e-05
2.106349206349206415e+00,-1.207307476718738262e-04,5.371770355616302975e-05
2.107142857142857206e+00,-1.026865499779988650e-04,4.677325638694792800e-05
2.107936507936507997e+00,-6.867551602763620542e-05,3.500502318945426420e-05
2.108730158730158788e+00,-2.330942471225931896e-05,1.977782825474146128e-05
2.109523809523809579e+00,2.667623730007517572e-05,2.872645660914540061e-06
2.110317460317460370e+00,7.374863077147171574e-05,-1.374751707761509933e-05
2.111111111111111160e+00,1.111160539942453521e-04,-2.818784392676981237e-05
2.111904761904761951e+00,1.341051554616426412e-04,-3.887967200403175810e-05
2.112698412698412742e+00,1.410207965847521284e-04,-4.481442650150724928e-05
2.113492063492063533e+00,1.332602377292997956e-04,-4.570304874994203010e-05
2.114285714285714324e+00,1.146652929070528611e-04,-4.201683204098665867e-05
2.115079365079365115e+00,9.032682379812805007e-05,-3.488957810105155100e-05
2.115873015873015905e+00,6.522002691856231156e-05,-2.589060024879752300e-05
2.116666666666666696e+00,4.307886219132146078e-05,-1.670947802188745300e-05
2.117460317460317487e+00,2.580238880479758328e-05,-8.819066050689513051e-06
2.118253968253968278e+00,1.348060673866337654e-05,-3.190347494102944459e-06
2.119047619047619069e+00,4.922920949024013795e-06,-1.178582657335005725e-07
2.119841269841269860e+00,-1.559646564065076267e-06,8.130868218104107823e-07
2.120634920634920650e+00,-7.401436683408956995e-06,6.145415199443885322e-07
2.121428571428571441e+00,-1.328845587592015226e-05,6.595100011352310975e-07
2.122222222222222232e+00,-1.904127215343486525e-05,2.358312706125897546e-06
2.123015873015873023e+00,-2.385344957303913241e-05,6.800005132011889475e-06
2.123809523809523814e+00,-2.674367669318453069e-05,1.442467167064813953e-05
2.124603174603174605e+00,-2.702023765646123770e-05,2.480053294618891953e-05
2.125396825396825395e+00,-2.458080769346877349e-05,3.657495939639349863e-05
2.126190476190476186e+00,-1.996099037367048555e-05,4.764315050473355833e-05
2.126984126984126977e+00,-1.415211825425076827e-05,5.553043156869339858e-05
2.127777777777777768e+00,-8.285234628215694963e-06,5.792336799089733084e-05
2.128571428571428559e+00,-3.304339052712752877e-06,5.323192737977650019e-05
2.129365079365079350e+00,2.657739717543336438e-07,4.104263516367056511e-05
2.130158730158730140e+00,2.396248252187444307e-06,2.234350744248836800e-05
2.130952380952380931e+00,3.467554005482189990e-06,-5.409026242222023339e-07
2.131746031746031722e+00,4.057809667474860170e-06,-2.429431159942770918e-05
2.132539682539682513e+00,4.674434691106063175e-06,-4.516332049034528924e-05
2.133333333333333304e+00,5.508500109038457987e-06,-5.961868656049573549e-05
2.134126984126984095e+00,6.284484471040745490e-06,-6.501224037774714672e-05
2.134920634920634885e+00,6.256416651548969131e-06,-6.012216685016768619e-05
2.135714285714285676e+00,4.366327563551430470e-06,-4.548402418459189040e-05
2.136507936507936467e+00,-4.622705471794768535e-07,-2.341718218123588308e-05
2.137301587301587258e+00,-8.962199864628138317e-06,2.304316140804828052e-06
2.138095238095238049e+00,-2.118038141379119645e-05,2.711388155299843895e-05
2.138888888888888840e+00,-3.624678072484070469e-05,4.653567661297261418e-05
2.139682539682539630e+00,-5.233267294276019077e-05,5.710175008166285904e-05
2.140476190476190421e+00,-6.684774134877809377e-05,5.707794916124747870e-05
2.141269841269841212e+00,-7.687615701948886948e-05,4.679556994140765557e-05
2.142063492063492003e+00,-7.978468431891221253e-05,2.848340096615710874e-05
2.142857142857142794e+00,-7.387144354276929681e-05,5.651002293472371148e-06
2.143650793650793585e+00,-5.888858301495933785e-05,-1.777506243340393124e-05
2.144444444444444375e+00,-3.628150459174189166e-05,-3.829008478659883793e-05
2.145238095238095166e+00,-9.044956839265164126e-06,-5.339601822444294579e-05
2.146031746031745957e+00,1.880531275758974137e-05,-6.183008716505468383e-05
2.146825396825396748e+00,4.303391406672405113e-05,-6.347971270692538421e-05
2.147619047619047539e+00,6.006328465071302528e-05,-5.911940430784860145e-05
2.148412698412698330e+00,6.770502363554466933e-05,-5.010881912607540850e-05
2.149206349206349120e+00,6.556313316003110642e-05,-3.812401231055597247e-05
2.149999999999999911e+00,5.501660292335129669e-05,-2.492102363624187672e-05
2.150793650793650702e+00,3.880164809729379840e-05,-1.210877527924652705e-05
2.151587301587301493e+00,2.031991730124465024e-05,-9.374953331510403031e-07
2.152380952380952284e+00,2.866336824415915779e-06,7.853769118427111366e-06
2.153174603174603075e+00,-1.102214897629202868e-05,1.408029442373061874e-05
2.153968253968253865e+00,-1.994760223725109677e-05,1.802536081304601027e-05
2.154761904761904656e+00,-2.370466854181396853e-05,2.025187664024453332e-05
2.155555555555555447e+00,-2.305117761124564362e-05,2.137741623783321446e-05
2.156349206349206238e+00,-1.931527288397720196e-05,2.188729695493119099e-05
2.157142857142857029e+00,-1.397818546368165458e-05,2.203832105313944492e-05
2.157936507936507819e+00,-8.335858622900281810e-06,2.186714156245179978e-05
2.158730158730158610e+00,-3.284219372215767887e-06,2.128094778478663055e-05
2.159523809523809401e+00,7.694559045514649567e-07,2.018571199716470124e-05
2.160317460317460192e+00,3.880915185028486462e-06,1.860104713928926797e-05
2.161111111111110983e+00,6.443103171526383489e-06,1.671990758673203635e-05
2.161904761904761774e+00,8.983871538784861957e-06,1.489319496305683382e-05
2.162698412698412564e+00,1.193088688611614649e-05,1.354635194515652245e-05
2.163492063492063355e+00,1.540418242629080275e-05,1.305666082283111407e-05
2.164285714285714146e+00,1.909600059782612494e-05,1.362945072740949321e-05
2.165079365079364937e+00,2.227675909024859352e-05,1.520910942854385582e-05
2.165873015873015728e+00,2.393400817984863555e-05,1.745049964312874447e-05
2.166666666666666519e+00,2.301804532308346734e-05,1.976124609621250630e-05
2.167460317460317309e+00,1.873884214032840826e-05,2.140800853694497399e-05
2.168253968253968100e+00,1.083888126716897420e-05,2.166395077332355522e-05
2.169047619047618891e+00,-2.367865380866946225e-07,1.996426127558950935e-05
2.169841269841269682e+00,-1.333163481235632732e-05,1.603454545955441547e-05
2.170634920634920473e+00,-2.674628756235801757e-05,9.963752993183061030e-06
2.171428571428571264e+00,-3.855069848193457205e-05,2.207000393856993471e-06
2.172222222222222054e+00,-4.696512678818023727e-05,-6.480243951718162069e-06
2.173015873015872845e+00,-5.071659417315607752e-05,-1.516137950014979013e-05
2.173809523809523636e+00,-4.928501554079517925e-05,-2.286719533260606711e-05
2.174603174603174427e+00,-4.298469744407582038e-05,-2.874622093414753543e-05
2.175396825396825218e+00,-3.287387984809220568e-05,-3.219169935921132746e-05
2.176190476190476009e+00,-2.052961654381668831e-05,-3.292685250609244865e-05
2.176984126984126799e+00,-7.748172505794267338e-06,-3.103853168787318897e-05
2.177777777777777590e+00,3.772008222098450661e-06,-2.695662224471199491e-05
2.178571428571428381e+00,1.272238361453840930e-05,-2.138276210132072661e-05
2.179365079365079172e+00,1.841820214215518622e-05,-1.517783669965443291e-05
2.180158730158729963e+00,2.093978103168551069e-05,-9.222461880892218768e-06
2.180952380952380754e+00,2.114296840086983802e-05,-4.267994172991596143e-06
2.181746031746031544e+00,2.050818018814527899e-05,-7.998086735908822070e-07
2.182539682539682335e+00,2.082820422128270812e-05,1.059509499253861940e-06
2.183333333333333126e+00,2.378501291619664968e-05,1.577085110728810751e-06
2.184126984126983917e+00,3.051048577056287816e-05,1.346434683971557869e-06
2.184920634920634708e+00,4.123870993551682109e-05,1.137375517077569717e-06
2.185714285714285499e+00,5.513378006180275190e-05,1.691726043225337195e-06
2.186507936507936289e+00,7.033360063649550205e-05,3.517900615195052659e-06
2.187301587301587080e+00,8.420715354942129457e-05,6.740937848976705418e-06
2.188095238095238315e+00,9.379055138974500114e-05,1.105048765419059238e-05
2.188888888888889106e+00,9.634377020894552702e-05,1.576250147242717111e-05
2.189682539682539897e+00,8.994487505951900450e-05,1.997878158315805110e-05
2.190476190476190688e+00,7.400789256532165909e-05,2.280231815758246972e-05
2.191269841269841478e+00,4.958904632603579690e-05,2.355384350989879331e-05
2.192063492063492269e+00,1.935989336899287635e-05,2.193826163101937580e-05
2.192857142857143060e+00,-1.280876370539366537e-05,1.812395276316615175e-05
2.193650793650793851e+00,-4.259960670960627065e-05,1.271722589703459219e-05
2.194444444444444642e+00,-6.616705618812092024e-05,6.635750911554535081e-06
2.195238095238095433e+00,-8.097048191893144306e-05,9.080232304791883672e-07
2.196031746031746223e+00,-8.627417337674618157e-05,-3.553697851672349235e-06
2.196825396825397014e+00,-8.316019155948281810e-05,-6.150709957998123138e-06
2.197619047619047805e+00,-7.405356693435271209e-05,-6.717452501819077494e-06
2.198412698412698596e+00,-6.191298738171082988e-05,-5.537539360761649883e-06
2.199206349206349387e+00,-4.933976182674517134e-05,-3.257715143152449560e-06
2.200000000000000178e+00,-3.787408527103774557e-05,-7.256779577487993312e-07
2.200793650793650968e+00,-2.768150648423215672e-05,1.205509823976302344e-06
2.201587301587301759e+00,-1.771157938023009239e-05,1.858030344310827633e-06
2.202380952380952550e+00,-6.276797840194302989e-06,8.545701331516345821e-07
2.203174603174603341e+00,8.111493715846165942e-06,-1.831288900197298235e-06
2.203968253968254132e+00,2.588624077394880904e-05,-5.892831034737695670e-06
2.204761904761904923e+00,4.580980728465730974e-05,-1.075020763115593141e-05
2.205555555555555713e+00,6.483174324344641933e-05,-1.562486602715369477e-05
2.206349206349206504e+00,7.854501367357786883e-05,-1.961647492556191374e-05
2.207142857142857295e+00,8.219762060897826961e-05,-2.179231845843521777e-05
2.207936507936508086e+00,7.202738160274841717e-05,-2.130923101959805610e-05
2.208730158730158877e+00,4.654957528414234934e-05,-1.757577075735671865e-05
2.209523809523809668e+00,7.405657233057673907e-06,-1.043345733151135680e-05
2.210317460317460458e+00,-4.050785945349587671e-05,-3.085231657489029683e-07
2.211111111111111249e+00,-8.971445500678145411e-05,1.172413667684567999e-05
2.211904761904762040e+00,-1.315133505317043973e-04,2.401021291669809909e-05
2.212698412698412831e+00,-1.577337308965310583e-04,3.453308683120411541e-05
2.213492063492063622e+00,-1.625161643356943858e-04,4.125423385103957482e-05
2.214285714285714413e+00,-1.437271649540553941e-04,4.251532102862705745e-05
2.215079365079365203e+00,-1.036565153130588512e-04,3.741604485023146149e-05
2.215873015873015994e+00,-4.877227676592169725e-05,2.607765283292246737e-05
2.216666666666666785e+00,1.148188919618953496e-05,9.720106869823202253e-06
2.217460317460317576e+00,6.661138786313247032e-05,-9.482141609173204557e-06
2.218253968253968367e+00,1.072693156516271430e-04,-2.875126126759353770e-05
2.219047619047619158e+00,1.271834130909167302e-04,-4.519845315290719649e-05
2.219841269841269948e+00,1.243250044564844976e-04,-5.635530138754172571e-05
2.220634920634920739e+00,1.010457727293599835e-04,-6.063281415162571946e-05
2.221428571428571530e+00,6.321065694644227291e-05,-5.761658455626892132e-05
2.222222222222222321e+00,1.863461251313877219e-05,-4.814220163455891748e-05
2.223015873015873112e+00,-2.471922644159947496e-05,-3.413423424759563389e-05
2.223809523809523903e+00,-6.033489588313854346e-05,-1.823233417279023662e-05
2.224603174603174693e+00,-8.421352289063953442e-05,-3.270774464558640886e-06
2.225396825396825484e+00,-9.526425413856331732e-05,8.283550961171353146e-06
2.226190476190476275e+00,-9.501875717189929365e-05,1.481035346847156260e-05
2.226984126984127066e+00,-8.680323625511707523e-05,1.582133468039875098e-05
2.227777777777777857e+00,-7.460402755731197495e-05,1.198753557622595735e-05
2.228571428571428648e+00,-6.192313020744946034e-05,4.912170022813415956e-06
2.229365079365079438e+00,-5.091684270460276646e-05,-3.281086607553612722e-06
2.230158730158730229e+00,-4.202814367164179487e-05,-1.043170809248496165e-05
2.230952380952381020e+00,-3.417104960262120679e-05,-1.477942661321808661e-05
2.231746031746031811e+00,-2.534868755800358554e-05,-1.526596134400363673e-05
2.232539682539682602e+00,-1.345757952424235091e-05,-1.166218383763845071e-05
2.233333333333333393e+00,2.991226299950778019e-06,-4.530380241086053115e-06
2.234126984126984183e+00,2.441320362378535583e-05,4.937341487965924583e-06
2.234920634920634974e+00,4.999358467458490452e-05,1.515501398766029837e-05
2.235714285714285765e+00,7.777376164203230943e-05,2.441269945575527079e-05
2.236507936507936556e+00,1.049066372886251934e-04,3.115372636590728008e-05
2.237301587301587347e+00,1.280455581115462612e-04,3.423773599007544133e-05
2.238095238095238138e+00,1.438588794701294710e-04,3.315915769871012760e-05
2.238888888888888928e+00,1.496373673402128716e-04,2.817729192110357371e-05
2.239682539682539719e+00,1.438979790225330545e-04,2.031243738007162868e-05
2.240476190476190510e+00,1.268356353486915734e-04,1.118161680973925066e-05
2.241269841269841301e+00,1.004767430442600235e-04,2.684034708929658641e-06
2.242063492063492092e+00,6.844749579844769762e-05,-3.410264854895197753e-06
2.242857142857142883e+00,3.536138330608031921e-05,-5.877782199006423247e-06
2.243650793650793673e+00,5.929955623612890634e-06,-4.356801830575365358e-06
2.244444444444444464e+00,-1.600868332781337685e-05,5.333642587749367787e-07
2.245238095238095255e+00,-2.829401266618736417e-05,7.315024405512270879e-06
2.246031746031746046e+00,-3.084481831320126319e-05,1.399523290499922380e-05
2.246825396825396837e+00,-2.552499471314400510e-05,1.854598539061195475e-05
2.247619047619047628e+00,-1.550492469803977752e-05,1.940182786444499528e-05
2.248412698412698418e+00,-4.318194375719037837e-06,1.585197331528333495e-05
2.249206349206349209e+00,5.084128111694638341e-06,8.230709464605815172e-06
2.250000000000000000e+00,1.098569662270558643e-05,-2.140737721944556544e-06
2.250793650793650791e+00,1.307877223347701974e-05,-1.324578624813409672e-05
2.251587301587301582e+00,1.214794238389930704e-05,-2.282258694412481613e-05
2.252380952380952372e+00,9.426064728785796918e-06,-2.885768088676350722e-05
2.253174603174603163e+00,5.896908814616492840e-06,-3.000224423403961385e-05
2.253968253968253954e+00,1.821089852501807149e-06,-2.582001445803663910e-05
2.254761904761904745e+00,-3.347267808476357166e-06,-1.682963179356552431e-05
2.255555555555555536e+00,-1.065262144869632648e-05,-4.360227623271491134e-06
2.256349206349206327e+00,-2.108903793052590515e-05,9.721216582556870377e-06
2.257142857142857117e+00,-3.504029977681740013e-05,2.333733321793309812e-05
2.257936507936507908e+00,-5.192612145880676802e-05,3.451616270245386523e-05
2.258730158730158699e+00,-7.017468744905766315e-05,4.164894473846709523e-05
2.259523809523809490e+00,-8.750483784385414512e-05,4.366870329220764980e-05
2.260317460317460281e+00,-1.013923293653644169e-04,4.015064470701237202e-05
2.261111111111111072e+00,-1.095668784547047851e-04,3.134665313733719092e-05
2.261904761904761862e+00,-1.104343103833760174e-04,1.816326798623186758e-05
2.262698412698412653e+00,-1.033797985428414848e-04,2.081800568850049300e-06
2.263492063492063444e+00,-8.892878963424710834e-05,-1.498777535767093158e-05
2.264285714285714235e+00,-6.872767481077696726e-05,-3.092337829757167586e-05
2.265079365079365026e+00,-4.530654043874679694e-05,-4.366691959759385917e-05
2.265873015873015817e+00,-2.163162562952355977e-05,-5.152770282814917113e-05
2.266666666666666607e+00,-5.255478142825875577e-07,-5.346021761745351674e-05
2.267460317460317398e+00,1.591222478697798149e-05,-4.925308993810286791e-05
2.268253968253968189e+00,2.673808616282693143e-05,-3.957569799399776437e-05
2.269047619047618980e+00,3.233150432244568138e-05,-2.586072136118796285e-05
2.269841269841269771e+00,3.423941038021248700e-05,-1.004391963511259933e-05
2.270634920634920562e+00,3.472172799832701494e-05,5.780459431390418530e-06
2.271428571428571352e+00,3.610345338551631465e-05,1.971127268141775068e-05
2.272222222222222143e+00,4.009727147326157390e-05,3.032371469360578751e-05
2.273015873015872934e+00,4.727702905182427516e-05,3.682914796563562340e-05
2.273809523809523725e+00,5.684838212394864880e-05,3.909011555217438969e-05
2.274603174603174516e+00,6.678655297094908058e-05,3.750783468847089346e-05
2.275396825396825307e+00,7.431453678342282601e-05,3.283164079321249611e-05
2.276190476190476097e+00,7.660628280117446438e-05,2.595431863387352727e-05
2.276984126984126888e+00,7.154133378294793460e-05,1.774911540784719443e-05
2.277777777777777679e+00,5.832183551072755198e-05,8.978086415182124808e-06
2.278571428571428470e+00,3.779257437762501817e-05,2.691802372615169673e-07
2.279365079365079261e+00,1.237640857996647189e-05,-7.865441335530078961e-06
2.280158730158730052e+00,-1.436454742329783716e-05,-1.500523338106806989e-05
2.280952380952380842e+00,-3.843801811872954623e-05,-2.081548787321689588e-05
2.281746031746031633e+00,-5.623711795639292095e-05,-2.506197192671318644e-05
2.282539682539682424e+00,-6.528071979189070792e-05,-2.762943447853998438e-05
2.283333333333333215e+00,-6.471368918461467979e-05,-2.852409932616422326e-05
2.284126984126984006e+00,-5.545043367524083908e-05,-2.785158045212091999e-05
2.284920634920634797e+00,-3.992653410462650339e-05,-2.577654739062124254e-05
2.285714285714285587e+00,-2.152220481409288251e-05,-2.247898100954376157e-05
2.286507936507936378e+00,-3.805096849902483222e-06,-1.812279919922419490e-05
2.287301587301587169e+00,1.021873063669060698e-05,-1.284934197401218283e-05
2.288095238095237960e+00,1.866660096973109251e-05,-6.801586200008777954e-06
2.288888888888888751e+00,2.103186697928033480e-05,-1.741272044386606620e-07
2.289682539682539542e+00,1.809667136466140206e-05,6.728720221234275791e-06
2.290476190476190332e+00,1.157084337186459631e-05,1.345275245117587513e-05
2.291269841269841123e+00,3.588994533645509235e-06,1.939673891009856927e-05
2.292063492063491914e+00,-3.788793991177258114e-06,2.387281017981072247e-05
2.292857142857142705e+00,-8.960663449306782946e-06,2.622193955140813905e-05
2.293650793650793496e+00,-1.099544601746737008e-05,2.596313733608295458e-05
2.294444444444444287e+00,-9.674969393558815534e-06,2.293895074703515636e-05
2.295238095238095077e+00,-5.408419528540346319e-06,1.741255972301523268e-05
2.296031746031745868e+00,9.231280737740745910e-07,1.007802345802418118e-05
2.296825396825396659e+00,8.144095590440059000e-06,1.966331447325257648e-06
2.297619047619047450e+00,1.496103907769199772e-05,-5.738529937694051020e-06
2.298412698412698241e+00,2.013829735902108287e-05,-1.192830918225857148e-05
2.299206349206349032e+00,2.267765370782650727e-05,-1.578281798917233037e-05
2.299999999999999822e+00,2.199258467513877420e-05,-1.691205548961743793e-05
2.300793650793650613e+00,1.804470001644376253e-05,-1.540015058594010171e-05
2.301587301587301404e+00,1.139596435721592396e-05,-1.175270169710137614e-05
2.302380952380952195e+00,3.137680243538496594e-06,-6.769899493379738356e-06
2.303174603174602986e+00,-5.312889949147127350e-06,-1.376938899957875755e-06
2.303968253968253777e+00,-1.251407909452629369e-05,3.555236389329427248e-06
2.304761904761904567e+00,-1.732502623918499976e-05,7.366983617662832200e-06
2.305555555555555358e+00,-1.916194318365262441e-05,9.715106588945563343e-06
2.306349206349206149e+00,-1.810940324247599302e-05,1.060218888854267139e-05
2.307142857142856940e+00,-1.485724203925803287e-05,1.032022864631643016e-05
2.307936507936507731e+00,-1.048950061224944634e-05,9.321345397160045443e-06
2.308730158730158522e+00,-6.192806145262758914e-06,8.051839527235439220e-06
2.309523809523809312e+00,-2.964947596945574271e-06,6.799049927893379193e-06
2.310317460317460103e+00,-1.393116648031107590e-06,5.597424730447656598e-06
2.311111111111110894e+00,-1.546284340799030816e-06,4.223337538561081699e-06
2.311904761904761685e+00,-2.996600570525266712e-06,2.283626373608692163e-06
2.312698412698412920e+00,-4.955536495308697942e-06,-6.238356333243508794e-07
2.313492063492063711e+00,-6.486142780883595340e-06,-4.722837941237710697e-06
2.314285714285714501e+00,-6.738566896648736114e-06,-9.903907714065844934e-06
2.315079365079365292e+00,-5.155125740873555009e-06,-1.565790995519639417e-05
2.315873015873016083e+00,-1.602474496275361232e-06,-2.113171427563108513e-05
2.316666666666666874e+00,3.592886353695966195e-06,-2.530181682892547265e-05
2.317460317460317665e+00,9.708414724933029372e-06,-2.722127221962856861e-05
2.318253968253968456e+00,1.577144531620251790e-05,-2.626755340158249495e-05
2.319047619047619246e+00,2.075418247070974373e-05,-2.231579555168434283e-05
2.319841269841270037e+00,2.377637267375182410e-05,-1.578508944532325107e-05
2.320634920634920828e+00,2.427657823163731788e-05,-7.546334994582840572e-06
2.321428571428571619e+00,2.212400350635276389e-05,1.276700629264462793e-06
2.322222222222222410e+00,1.765478705672152764e-05,9.551796565628706712e-06
2.323015873015873201e+00,1.162415840621373661e-05,1.635963843919835926e-05
2.323809523809523991e+00,5.072574022570705744e-06,2.113772426523451495e-05
2.324603174603174782e+00,-8.821575580228361027e-07,2.372005225368426586e-05
2.325396825396825573e+00,-5.291733058588000048e-06,2.427800317087322549e-05
2.326190476190476364e+00,-7.604352346119717224e-06,2.319579781475406412e-05
2.326984126984127155e+00,-7.803042195426057088e-06,2.092892064304047132e-05
2.327777777777777946e+00,-6.402567313808478361e-06,1.789063580265380475e-05
2.328571428571428736e+00,-4.294739676734419147e-06,1.439302094376740035e-05
2.329365079365079527e+00,-2.485576839416890474e-06,1.064480793915686651e-05
2.330158730158730318e+00,-1.807979830953292581e-06,6.788937881865332252e-06
2.330952380952381109e+00,-2.701602443767497578e-06,2.953285904015904170e-06
2.331746031746031900e+00,-5.125136449635792078e-06,-7.108108744934847742e-07
2.332539682539682691e+00,-8.617510280347253962e-06,-4.017769949479458802e-06
2.333333333333333481e+00,-1.247117127307782073e-05,-6.766443252477502023e-06
2.334126984126984272e+00,-1.594136191504572832e-05,-8.778225408765433951e-06
2.334920634920635063e+00,-1.840743341093039709e-05,-9.939147509159515490e-06
2.335714285714285854e+00,-1.943297818361787270e-05,-1.023171414247359525e-05
2.336507936507936645e+00,-1.872774199904847893e-05,-9.746901054989449281e-06
2.337301587301587436e+00,-1.606591194435705818e-05,-8.671176581633853971e-06
2.338095238095238226e+00,-1.123507781520152767e-05,-7.247112523282584844e-06
2.338888888888889017e+00,-4.070646360357110013e-06,-5.712339705651662957e-06
2.339682539682539808e+00,5.415164081619231786e-06,-4.232552807461458835e-06
2.340476190476190599e+00,1.685111607710356851e-05,-2.855587781742215015e-06
2.341269841269841390e+00,2.934915587464181037e-05,-1.514488635508179352e-06
2.342063492063492181e+00,4.145744741750484610e-05,-8.927532024830833694e-08
2.342857142857142971e+00,5.128627495480433669e-05,1.495589700241664678e-06
2.343650793650793762e+00,5.681605477871278816e-05,3.188345665672361608e-06
2.344444444444444553e+00,5.633204809064089406e-05,4.791953708635099616e-06
2.345238095238095344e+00,4.887724965013601962e-05,6.028787951025919003e-06
2.346031746031746135e+00,3.459381427699849556e-05,6.659443141806396369e-06
2.346825396825396925e+00,1.484457340237323999e-05,6.596238220536695103e-06
2.347619047619047716e+00,-7.932665283867839295e-06,5.954943912620822199e-06
2.348412698412698507e+00,-3.060305987392281416e-05,5.020407944812650451e-06
2.349206349206349298e+00,-4.984363099325664511e-05,4.142294330788997321e-06
2.350000000000000089e+00,-6.266745523143954152e-05,3.605268772524301359e-06
2.350793650793650880e+00,-6.688374640430535016e-05,3.523932415002438822e-06
2.351587301587301670e+00,-6.145773276109838543e-05,3.799138701888993547e-06
2.352380952380952461e+00,-4.674538027283936151e-05,4.148459152073615017e-06
2.353174603174603252e+00,-2.456311450091729434e-05,4.199383675214116533e-06
2.353968253968254043e+00,1.953553049815529319e-06,3.615870569607892085e-06
2.354761904761904834e+00,2.872643106645219593e-05,2.219972554275533140e-06
2.355555555555555625e+00,5.132696842982673101e-05,7.106980558226249947e-08
2.356349206349206415e+00,6.571595629254239001e-05,-2.524625511855407817e-06
2.357142857142857206e+00,6.901342686241613970e-05,-5.083104955116197630e-06
2.357936507936507997e+00,6.014085834296671395e-05,-7.074782229135124015e-06
2.358730158730158788e+00,4.016362701714348268e-05,-8.081315506774421208e-06
2.359523809523809579e+00,1.219892587984870389e-05,-7.926006477226168488e-06
2.360317460317460370e+00,-1.914643727115972031e-05,-6.732784990860863424e-06
2.361111111111111160e+00,-4.870507962475661257e-05,-4.892609749110067766e-06
2.361904761904761951e+00,-7.181554240581946712e-05,-2.947914090333143403e-06
2.362698412698412742e+00,-8.524128900043682823e-05,-1.432593806055640993e-06
2.363492063492063533e+00,-8.770298591326538347e-05,-7.177736058101321708e-07
2.364285714285714324e+00,-7.991540456871294533e-05,-9.093930598852418075e-07
2.365079365079365115e+00,-6.417837910514253641e-05,-1.825609558307581471e-06
2.365873015873015905e+00,-4.369252118317288702e-05,-3.057394190903485194e-06
2.366666666666666696e+00,-2.181821034981853359e-05,-4.092684009117586512e-06
2.367460317460317487e+00,-1.470156368470300258e-06,-4.468655231158820377e-06
2.368253968253968278e+00,1.523862573114148621e-05,-3.910504512932838588e-06
2.369047619047619069e+00,2.708883304291662936e-05,-2.419388788542489515e-06
2.369841269841269860e+00,3.365327201901132439e-05,-2.861261837123529677e-07
2.370634920634920650e+00,3.511264003324640501e-05,1.972930572083499802e-06
2.371428571428571441e+00,3.208465469972376905e-05,3.741733089273066234e-06
2.372222222222222232e+00,2.550830154404371610e-05,4.461029858073883122e-06
2.373015873015873023e+00,1.656772806579445703e-05,3.776515642441711970e-06
2.373809523809523814e+00,6.612191879286730669e-06,1.640532657207494475e-06
2.374603174603174605e+00,-2.962251918141860511e-06,-1.659646342195058910e-06
2.375396825396825395e+00,-1.087240081157723512e-05,-5.554572206093451785e-06
2.376190476190476186e+00,-1.612131281139449386e-05,-9.312637953180474267e-06
2.376984126984126977e+00,-1.814220279799883608e-05,-1.219694789131330927e-05
2.377777777777777768e+00,-1.687207333064438309e-05,-1.362095033192273063e-05
2.378571428571428559e+00,-1.273120012311509472e-05,-1.326736857368047201e-05
2.379365079365079350e+00,-6.507703487201044133e-06,-1.114655395112958044e-05
2.380158730158730140e+00,8.327892175937965127e-07,-7.586780261996963932e-06
2.380952380952380931e+00,8.376257728991806688e-06,-3.164561478039537775e-06
2.381746031746031722e+00,1.547707128370451598e-05,1.406447728995108615e-06
2.382539682539682513e+00,2.189929482204636211e-05,5.405216787604443931e-06
2.383333333333333304e+00,2.782300203278862156e-05,8.229917137962033323e-06
2.384126984126984095e+00,3.368815898291931121e-05,9.503317347056648357e-06
2.384920634920634885e+00,3.990610113549313519e-05,9.143694976498010268e-06
2.385714285714285676e+00,4.652881769454475736e-05,7.391950702204828467e-06
2.386507936507936467e+00,5.300003774034499571e-05,4.788401457609247361e-06
2.387301587301587258e+00,5.810230426469202802e-05,2.095442052307525854e-06
2.388095238095238049e+00,6.016264167562657172e-05,1.675353079685183297e-07
2.388888888888888840e+00,5.750024626698981429e-05,-2.198657657928978667e-07
2.389682539682539630e+00,4.901257450474358021e-05,1.443420751134279089e-06
2.390476190476190421e+00,3.472579513782601476e-05,5.240518094096653916e-06
2.391269841269841212e+00,1.610878127763598240e-05,1.073623944841486548e-05
2.392063492063492003e+00,-4.012271980282043446e-06,1.699521230962150535e-05
2.392857142857142794e+00,-2.199394053164918658e-05,2.272511244643792699e-05
2.393650793650793585e+00,-3.427001041364703839e-05,2.652649045435050598e-05
2.394444444444444375e+00,-3.835090020744396500e-05,2.719647649403388138e-05
2.395238095238095166e+00,-3.360926721360548011e-05,2.401227607944231700e-05
2.396031746031745957e+00,-2.158754436440745163e-05,1.692057229217176569e-05
2.396825396825396748e+00,-5.717977961520817823e-06,6.582286681223936803e-06
2.397619047619047539e+00,9.473092282724341647e-06,-5.738166934726101292e-06
2.398412698412698330e+00,1.946409226360519499e-05,-1.840799021606218393e-05
2.399206349206349120e+00,2.085691412856202558e-05,-2.972541953998565230e-05
2.399999999999999911e+00,1.223683100171721117e-05,-3.821574040976793301e-05
2.400793650793650702e+00,-5.434302986975315487e-06,-4.286676357028763195e-05
2.401587301587301493e+00,-2.898786352476605843e-05,-4.326657844575420886e-05
2.402380952380952284e+00,-5.375323234523872999e-05,-3.962856487359416258e-05
2.403174603174603075e+00,-7.464611410947916603e-05,-3.270947510757766418e-05
2.403968253968253865e+00,-8.737783823392800229e-05,-2.364378629411065653e-05
2.404761904761904656e+00,-8.946234048922696038e-05,-1.372992076352391325e-05
2.405555555555555447e+00,-8.073999923761844414e-05,-4.210038842375760338e-06
2.406349206349206238e+00,-6.329112815221276029e-05,3.916654883109702672e-06
2.407142857142857029e+00,-4.081011048477436206e-05,1.001701576912241818e-05
2.407936507936507819e+00,-1.766139095041316869e-05,1.386849956498953944e-05
2.408730158730158610e+00,2.108648850772732471e-06,1.562635587418248460e-05
2.409523809523809401e+00,1.556580694872131495e-05,1.572905268291962619e-05
2.410317460317460192e+00,2.133937564621068774e-05,1.476800716993247227e-05
2.411111111111110983e+00,1.968973687489320668e-05,1.335214813016304487e-05
2.411904761904761774e+00,1.224779032392056008e-05,1.199482261135396394e-05
2.412698412698412564e+00,1.542525893563653906e-06,1.104116886186932841e-05
2.413492063492063355e+00,-9.552080324158660049e-06,1.064208010272339003e-05
2.414285714285714146e+00,-1.834136052085613198e-05,1.077057746112766749e-05
2.415079365079364937e+00,-2.273348763078976878e-05,1.126988413388387234e-05
2.415873015873015728e+00,-2.152543027780350076e-05,1.191905087812919100e-05
2.416666666666666519e+00,-1.453830353396787342e-05,1.250012167343879623e-05
2.417460317460317309e+00,-2.601190933351446474e-06,1.285055549356511292e-05
2.418253968253968100e+00,1.261121838923203891e-05,1.288777926185692685e-05
2.419047619047618891e+00,2.887283894130168989e-05,1.260060292863048192e-05
2.419841269841269682e+00,4.379996173579410327e-05,1.201274417880046069e-05
2.420634920634920473e+00,5.528609565905659575e-05,1.113249888865838084e-05
2.421428571428571264e+00,6.189481077809711298e-05,9.906754291795083630e-06
2.422222222222222054e+00,6.312058853009543157e-05,8.197072638085540057e-06
2.423015873015872845e+00,5.944963710964477823e-05,5.791332220626498097e-06
2.423809523809523636e+00,5.220004542508975743e-05,2.456823190861689982e-06
2.424603174603174427e+00,4.317827267200102532e-05,-1.969710531598893528e-06
2.425396825396825218e+00,3.423976277033146412e-05,-7.471814394339643794e-06
2.426190476190476009e+00,2.687034807063654455e-05,-1.375156105908530899e-05
2.426984126984126799e+00,2.189964032032313976e-05,-2.017262355448254651e-05
2.427777777777777590e+00,1.941542903707257531e-05,-2.578272450156527285e-05
2.428571428571428381e+00,1.888377551652750677e-05,-2.943556817710161509e-05
2.429365079365079172e+00,1.941823657998341000e-05,-3.000593313263927488e-05
2.430158730158729963e+00,2.010403741708864943e-05,-2.665876545713844075e-05
2.430952380952380754e+00,2.027558058086362608e-05,-1.910473199870311913e-05
2.431746031746031544e+00,1.966436021805328222e-05,-7.763841978226850371e-06
2.432539682539682335e+00,1.837267288641284511e-05,6.225945122875686340e-06
2.433333333333333126e+00,1.668005429058536983e-05,2.117835300814348840e-05
2.434126984126983917e+00,1.474470539523256796e-05,3.517764378693225073e-05
2.434920634920634708e+00,1.230710720634154271e-05,4.646995294961446066e-05
2.435714285714285499e+00,8.520799501090705797e-06,5.382248020764484193e-05
2.436507936507936289e+00,2.012346786789447285e-06,5.674942858690795592e-05
2.437301587301587080e+00,-8.793327913186606526e-06,5.554295856313992615e-05
2.438095238095238315e+00,-2.513954100737533366e-05,5.111093449058522529e-05
2.438888888888889106e+00,-4.734389864755882984e-05,4.468200238049581483e-05
2.439682539682539897e+00,-7.434184809021703022e-05,3.746696666743290504e-05
2.440476190476190688e+00,-1.035493000895294595e-04,3.036331711717969088e-05
2.441269841269841478e+00,-1.311381408007845147e-04,2.377401258565905681e-05
2.442063492063492269e+00,-1.526854412425933589e-04,1.758770414485731336e-05
2.442857142857143060e+00,-1.640301145128179427e-04,1.132455730207443162e-05
2.443650793650793851e+00,-1.621046908721106511e-04,4.390544127512582221e-06
2.444444444444444642e+00,-1.455318580165518641e-04,-3.665860977411792825e-06
2.445238095238095433e+00,-1.148664939773349423e-04,-1.299926872714916414e-05
2.446031746031746223e+00,-7.247514262498395293e-05,-2.346118398024255790e-05
2.446825396825397014e+00,-2.213207447057104438e-05,-3.470772546291178099e-05
2.447619047619047805e+00,3.154540640622777999e-05,-4.633714725732994682e-05
2.448412698412698596e+00,8.369807292827445989e-05,-5.797885733616422619e-05
2.449206349206349387e+00,1.297645473876883040e-04,-6.929808203446888488e-05
2.450000000000000178e+00,1.659004904285713369e-04,-7.992447275725757889e-05
2.450793650793650968e+00,1.892575840003872143e-04,-8.934380301462734237e-05
2.451587301587301759e+00,1.981372152754748049e-04,-9.681107928951842418e-05
2.452380952380952550e+00,1.920534056240919582e-04,-1.013448924157593975e-04
2.453174603174603341e+00,1.717353761247516054e-04,-1.018362658081381603e-04
2.453968253968254132e+00,1.390788137209754199e-04,-9.725838349768247239e-05
2.454761904761904923e+00,9.703392691061646196e-05,-8.692163956830860892e-05
2.455555555555555713e+00,4.940594090678476909e-05,-7.070068153725496028e-05
2.456349206349206504e+00,5.388092337684210526e-07,-4.916829155608411304e-05
2.457142857142857295e+00,-4.513658219007201300e-05,-2.359778643570296838e-05
2.457936507936508086e+00,-8.366893614557011972e-05,4.167791594639278568e-06
2.458730158730158877e+00,-1.121823443806260984e-04,3.194715615597392523e-05
2.459523809523809668e+00,-1.293542501760261442e-04,5.750200732140103280e-05
2.460317460317460458e+00,-1.356072334090525477e-04,7.881983143202208567e-05
2.461111111111111249e+00,-1.328952452447306452e-04,9.436446751468116330e-05
2.461904761904762040e+00,-1.240867162653597178e-04,1.032696860362310279e-04
2.462698412698412831e+00,-1.120997832654048183e-04,1.054463654578629395e-04
2.463492063492063622e+00,-9.905591772617197211e-05,1.015649708504622707e-04
2.464285714285714413e+00,-8.572875181627568762e-05,9.288314737125449372e-05
2.465079365079365203e+00,-7.146615221723023122e-05,8.092924861693724225e-05
2.465873015873015994e+00,-5.459872600494613778e-05,6.711823447030949104e-05
2.466666666666666785e+00,-3.318813459490938374e-05,5.242908141380817896e-05
2.467460317460317576e+00,-5.875756188074347923e-06,3.727019222737664936e-05
2.468253968253968367e+00,2.741368261417353634e-05,2.159055827069712171e-05
2.469047619047619158e+00,6.509976899680233362e-05,5.190992337889201196e-06
2.469841269841269948e+00,1.039997888742310130e-04,-1.189757752194422099e-05
2.470634920634920739e+00,1.397988780124026433e-04,-2.913125641812906258e-05
2.471428571428571530e+00,1.678303263444666114e-04,-4.538547250469581769e-05
2.472222222222222321e+00,1.839893337790239408e-04,-5.912817959987174532e-05
2.473015873015873112e+00,1.855782605441878049e-04,-6.876328716976461727e-05
2.473809523809523903e+00,1.719024273928306348e-04,-7.302063360015969965e-05
2.474603174603174693e+00,1.444897130564470910e-04,-7.127256839653639910e-05
2.475396825396825484e+00,1.068791765263466318e-04,-6.369831073822897021e-05
2.476190476190476275e+00,6.400662840751358991e-05,-5.126895416482559885e-05
2.476984126984127066e+00,2.130373713927973686e-05,-3.557213595234739984e-05
2.477777777777777857e+00,-1.629599032787087913e-05,-1.852847599938488966e-05
2.478571428571428648e+00,-4.521642077411996253e-05,-2.067492192244066353e-06
2.479365079365079438e+00,-6.376510746889140814e-05,1.217133144935523195e-05
2.480158730158730229e+00,-7.221920133633133584e-05,2.306092634677643974e-05
2.480952380952381020e+00,-7.248453085788387541e-05,3.010010205196836020e-05
2.481746031746031811e+00,-6.745118646134163514e-05,3.340506914701125339e-05
2.482539682539682602e+00,-6.023398978652409448e-05,3.358666168241301024e-05
2.483333333333333393e+00,-5.349274418181605310e-05,3.154465476395544474e-05
2.484126984126984183e+00,-4.898052360498289385e-05,2.823214829027436405e-05
2.484920634920634974e+00,-4.738826200793936618e-05,2.445097638427225255e-05
2.485714285714285765e+00,-4.846683908145845538e-05,2.072682054246620238e-05
2.486507936507936556e+00,-5.133585406656906308e-05,1.728516215997898180e-05
2.487301587301587347e+00,-5.484711126655552444e-05,1.411855538455626576e-05
2.488095238095238138e+00,-5.787513826875272045e-05,1.111202528514539469e-05
2.488888888888888928e+00,-5.946194929175596677e-05,8.180412094422071111e-06
2.489682539682539719e+00,-5.882582697900314657e-05,5.369639019898433018e-06
2.490476190476190510e+00,-5.531039693568567939e-05,2.885003541356959953e-06
2.491269841269841301e+00,-4.837058677516241416e-05,1.035046834233646942e-06
2.492063492063492092e+00,-3.766457270861887517e-05,1.131329669927515924e-07
2.492857142857142883e+00,-2.325696361133724414e-05,2.652720902031211512e-07
2.493650793650793673e+00,-5.858550768026273520e-06,1.397584598987724486e-06
2.494444444444444464e+00,1.302798945360229569e-05,3.158825927273580490e-06
2.495238095238095255e+00,3.117691569904332564e-05,5.004574842381467555e-06
2.496031746031746046e+00,4.596480452442501470e-05,6.324044986375408665e-06
2.496825396825396837e+00,5.489269464075532604e-05,6.594794515829719231e-06
2.497619047619047628e+00,5.617104151610389704e-05,5.524791365571044139e-06
2.498412698412698418e+00,4.920793385283728173e-05,3.143571654363403547e-06
2.499206349206349209e+00,3.485831368765129787e-05,-1.854906109600630532e-07
2.500000000000000000e+00,1.534309434068804138e-05,-3.841088854157903000e-06
2.500793650793650791e+00,-6.172456529523254549e-06,-7.093233277590584006e-06
2.501587301587301582e+00,-2.625441407088598391e-05,-9.289027696842973129e-06
2.502380952380952372e+00,-4.195859707541200757e-05,-1.002631061168277430e-05
2.503174603174603163e+00,-5.146231762383890175e-05,-9.268277638655460606e-06
2.503968253968253954e+00,-5.438731214961474951e-05,-7.365558692555065686e-06
2.504761904761904745e+00,-5.171872046297834753e-05,-4.972935661181303104e-06
2.505555555555555536e+00,-4.534785747722712657e-05,-2.873591063241474889e-06
2.506349206349206327e+00,-3.738844530166561975e-05,-1.752567249271815258e-06
2.507142857142857117e+00,-2.949332449427562058e-05,-1.984977847070242592e-06
2.507936507936507908e+00,-2.239688252438563245e-05,-3.508922777207291321e-06
2.508730158730158699e+00,-1.582348574620059091e-05,-5.829215142730898062e-06
2.509523809523809490e+00,-8.766898297033472138e-06,-8.154352024213395387e-06
2.510317460317460281e+00,-1.407254203749163298e-08,-9.625756185679643998e-06
2.511111111111111072e+00,1.128947199714336375e-05,-9.571362373747437275e-06
2.511904761904761862e+00,2.522819337510958862e-05,-7.710685777745258658e-06
2.512698412698412653e+00,4.097455734398905983e-05,-4.254358383928791741e-06
2.513492063492063444e+00,5.692506691870232447e-05,1.276993053322310501e-07
2.514285714285714235e+00,7.103986390540325082e-05,4.459097226058597000e-06
2.515079365079365026e+00,8.127661262421440481e-05,7.691205465999848671e-06
2.515873015873015817e+00,8.601275099215739326e-05,8.963669154883203752e-06
2.516666666666666607e+00,8.436917394303519193e-05,7.832799754052950942e-06
2.517460317460317398e+00,7.637043421489018806e-05,4.414529884596884028e-06
2.518253968253968189e+00,6.290422736067768146e-05,-5.979028300576651784e-07
2.519047619047618980e+00,4.548427937664335433e-05,-6.057340886709634767e-06
2.519841269841269771e+00,2.587629131323738866e-05,-1.061090483853684387e-05
2.520634920634920562e+00,5.700628357376809756e-06,-1.302464820515983855e-05
2.521428571428571352e+00,-1.385207124038921055e-05,-1.251114427600239588e-05
2.522222222222222143e+00,-3.209070175752771803e-05,-8.973104851778945502e-06
2.523015873015872934e+00,-4.866370738606196295e-05,-3.082653542471576246e-06
2.523809523809523725e+00,-6.325269795197489841e-05,3.849797002406152192e-06
2.524603174603174516e+00,-7.526653120783800561e-05,1.020529339262350953e-05
2.525396825396825307e+00,-8.368630749471477450e-05,1.450884952204717441e-05
2.526190476190476097e+00,-8.715766022283239769e-05,1.587675786521032095e-05
2.526984126984126888e+00,-8.433347632342514072e-05,1.430693247809262522e-05
2.527777777777777679e+00,-7.436657353732279037e-05,1.068594455418139813e-05
2.528571428571428470e+00,-5.737586011278820818e-05,6.476878051652084804e-06
2.529365079365079261e+00,-3.469864891481852552e-05,3.186977810148970560e-06
2.530158730158730052e+00,-8.810813808229362649e-06,1.824518795984651824e-06
2.530952380952380842e+00,1.708187750610411752e-05,2.566232525347912667e-06
2.531746031746031633e+00,3.966258775333863476e-05,4.755488665323840498e-06
2.532539682539682424e+00,5.615606829468684341e-05,7.200116964688118575e-06
2.533333333333333215e+00,6.485078286734975413e-05,8.626570347096452305e-06
2.534126984126984006e+00,6.538400665337627804e-05,8.120504237928130025e-06
2.534920634920634797e+00,5.875372397416311519e-05,5.423134737227989844e-06
2.535714285714285587e+00,4.707997628182244835e-05,1.010524898351233016e-06
2.536507936507936378e+00,3.317683181956881402e-05,-4.063996014951456560e-06
2.537301587301587169e+00,2.001773657103893175e-05,-8.527451212521864344e-06
2.538095238095237960e+00,1.018838658473055425e-05,-1.134346247649781709e-05
2.538888888888888751e+00,5.424007818119750402e-06,-1.211595487368470820e-05
2.539682539682539542e+00,6.317917947939039454e-06,-1.128636738355930094e-05
2.540476190476190332e+00,1.226086443298524791e-05,-1.002733030064982326e-05
2.541269841269841123e+00,2.162588384021241019e-05,-9.838272134294097704e-06
2.542063492063491914e+00,3.215862322103362397e-05,-1.196230737748704457e-05
2.542857142857142705e+00,4.148212374937464619e-05,-1.682349835711833031e-05
2.543650793650793496e+00,4.759478478324792057e-05,-2.369149582298447036e-05
2.544444444444444287e+00,4.924423711954035017e-05,-3.071166908318789985e-05
2.545238095238095077e+00,4.610013887595635083e-05,-3.532358059049241092e-05
2.546031746031745868e+00,3.871043768591755923e-05,-3.496987027727836640e-05
2.546825396825396659e+00,2.828326594328354907e-05,-2.790146634187611518e-05
2.547619047619047450e+00,1.637098275982577610e-05,-1.383674278087247504e-05
2.548412698412698241e+00,4.539775282719638394e-06,5.745264637024094926e-06
2.549206349206349032e+00,-5.905491447755383596e-06,2.779633675223047392e-05
2.549999999999999822e+00,-1.409701701143147759e-05,4.834156038196035489e-05
2.550793650793650613e+00,-1.966661796341427019e-05,6.339300745836951468e-05
2.551587301587301404e+00,-2.270983361655690616e-05,6.987329192178435297e-05
2.552380952380952195e+00,-2.368522377166540683e-05,6.629969481365255966e-05
2.553174603174602986e+00,-2.328591845814441652e-05,5.307148794993385660e-05
2.553968253968253777e+00,-2.230964562893121336e-05,3.232921118542837231e-05
2.554761904761904567e+00,-2.153733545469515708e-05,7.464546873881081502e-06
2.555555555555555358e+00,-2.161987798893933802e-05,-1.757582573448944517e-05
2.556349206349206149e+00,-2.297350481926867477e-05,-3.903137413646663950e-05
2.557142857142856940e+00,-2.569461241537973530e-05,-5.397093524992546448e-05
2.557936507936507731e+00,-2.951705752339354847e-05,-6.073575543400652169e-05
2.558730158730158522e+00,-3.383978674604744567e-05,-5.912881446768935743e-05
2.559523809523809312e+00,-3.784249293969717303e-05,-5.034109474958140868e-05
2.560317460317460103e+00,-4.067949208254573971e-05,-3.664234817428357253e-05
2.561111111111110894e+00,-4.170545601162353028e-05,-2.089783552014013837e-05
2.561904761904761685e+00,-4.066045913323957273e-05,-6.003083025770564407e-06
2.562698412698412920e+00,-3.774497091720743471e-05,5.653148328563221115e-06
2.563492063492063711e+00,-3.355101105445642027e-05,1.259264128800970212e-05
2.564285714285714501e+00,-2.886829719162414967e-05,1.444529829964424931e-05
2.565079365079365292e+00,-2.443082673646372380e-05,1.191827798592113728e-05
2.565873015873016083e+00,-2.069089281439387450e-05,6.566506292730278876e-06
2.566666666666666874e+00,-1.769641669819997082e-05,4.302036238371567426e-07
2.567460317460317665e+00,-1.511089571734277142e-05,-4.383628457837730878e-06
2.568253968253968456e+00,-1.237022634235375294e-05,-6.106490295011835539e-06
2.569047619047619246e+00,-8.931518827980065991e-06,-3.644954396826966310e-06
2.569841269841270037e+00,-4.540536968018385100e-06,3.194741438381884653e-06
2.570634920634920828e+00,5.717946764639848840e-07,1.362620878609201359e-05
2.571428571428571619e+00,5.649245862774621560e-06,2.596667116732343111e-05
2.572222222222222410e+00,9.575274902563141649e-06,3.789073119676924790e-05
2.573015873015873201e+00,1.122075420937106440e-05,4.683855515337176720e-05
2.573809523809523991e+00,9.867722373502822619e-06,5.052965204943152863e-05
2.574603174603174782e+00,5.547746837351700591e-06,4.749097347710766134e-05
2.575396825396825573e+00,-8.507190283000646558e-07,3.747100698624526239e-05
2.576190476190476364e+00,-7.759679649166434121e-06,2.160432775295640254e-05
2.576984126984127155e+00,-1.332475489970925443e-05,2.237573199273216673e-06
2.577777777777777946e+00,-1.586190260849906064e-05,-1.757006361847616516e-05
2.578571428571428736e+00,-1.422262593706034724e-05,-3.473872278262453498e-05
2.579365079365079527e+00,-7.976038032167556940e-06,-4.684401450142434731e-05
2.580158730158730318e+00,2.600166178747069535e-06,-5.258139296095284358e-05
2.580952380952381109e+00,1.666262063714250285e-05,-5.191123438140291533e-05
2.581746031746031900e+00,3.299248050839481781e-05,-4.589099603332491274e-05
2.582539682539682691e+00,5.015498746353218149e-05,-3.628868971601450111e-05
2.583333333333333481e+00,6.658979971424661560e-05,-2.511000311777848799e-05
2.584126984126984272e+00,8.064651214063866776e-05,-1.416421689154983727e-05
2.584920634920635063e+00,9.062341455452650599e-05,-4.758444029353399499e-06
2.585714285714285854e+00,9.487973527268810992e-05,2.437699273290509200e-06
2.586507936507936645e+00,9.206142136166939056e-05,7.361373838874396042e-06
2.587301587301587436e+00,8.141748707291864267e-05,1.040056017922670886e-05
2.588095238095238226e+00,6.311789188542902152e-05,1.217398934998400584e-05
2.588888888888889017e+00,3.844908384374497309e-05,1.331025617982341579e-05
2.589682539682539808e+00,9.779871964466165961e-06,1.427651061800336505e-05
2.590476190476190599e+00,-1.974358724171487457e-05,1.528579294090167721e-05
2.591269841269841390e+00,-4.672203544497533504e-05,1.628925553701901082e-05
2.592063492063492181e+00,-6.811378376792107808e-05,1.704036962280618443e-05
2.592857142857142971e+00,-8.176742139312920385e-05,1.720549306560676146e-05
2.593650793650793762e+00,-8.674444440325397793e-05,1.648927486407803219e-05
2.594444444444444553e+00,-8.337687600877804529e-05,1.474342928548852920e-05
2.595238095238095344e+00,-7.308839374993786266e-05,1.203283496424192320e-05
2.596031746031746135e+00,-5.806250223092027758e-05,8.643826666896743723e-06
2.596825396825396925e+00,-4.085368386328709449e-05,5.035192165995126431e-06
2.597619047619047716e+00,-2.401555446238878925e-05,1.748681346949351746e-06
2.598412698412698507e+00,-9.784782306987481896e-06,-6.941849584583614223e-07
2.599206349206349298e+00,1.686070412596301423e-07,-1.883446138232635389e-06
2.600000000000000089e+00,4.923294106981940256e-06,-1.585251812386908126e-06
2.600793650793650880e+00,4.411463471342663978e-06,2.224080398396420269e-07
2.601587301587301670e+00,-5.764041822474163414e-07,3.336827005042746355e-06
2.602380952380952461e+00,-8.511029265673672494e-06,7.334906131657467153e-06
2.603174603174603252e+00,-1.737576979154696892e-05,1.159665129368545177e-05
2.603968253968254043e+00,-2.502845431527918517e-05,1.535891184298648083e-05
2.604761904761904834e+00,-2.961823214042696447e-05,1.781185307699083216e-05
2.605555555555555625e+00,-2.996980465613390291e-05,1.823860794337243263e-05
2.606349206349206415e+00,-2.583035932739713691e-05,1.617719782316943045e-05
2.607142857142857206e+00,-1.789373854269717221e-05,1.156529100336677598e-05
2.607936507936507997e+00,-7.579122989559473154e-06,4.823601550919932605e-06
2.608730158730158788e+00,3.374639417448608128e-06,-3.154500046928406971e-06
2.609523809523809579e+00,1.337286673598850062e-05,-1.111671770976826268e-05
2.610317460317460370e+00,2.134554524344689874e-05,-1.765363631002865306e-05
2.611111111111111160e+00,2.694188488830062274e-05,-2.145380227895732797e-05
2.611904761904761951e+00,3.050669326675795430e-05,-2.156528536116971296e-05
2.612698412698412742e+00,3.287483284694757982e-05,-1.761227090858147356e-05
2.613492063492063533e+00,3.506380563977119666e-05,-9.919410776908850653e-06
2.614285714285714324e+00,3.795828419637777359e-05,4.880152387935194529e-07
2.615079365079365115e+00,4.206842422232566833e-05,1.201534024720508104e-05
2.615873015873015905e+00,4.741292957950520807e-05,2.274136331772655213e-05
2.616666666666666696e+00,5.353705381788248881e-05,3.073196038456993303e-05
2.617460317460317487e+00,5.963545089821077795e-05,3.437253808293369442e-05
2.618253968253968278e+00,6.472121195813957664e-05,3.266497424634486415e-05
2.619047619047619069e+00,6.777776649466400261e-05,2.543737111559716681e-05
2.619841269841269860e+00,6.785754851432841076e-05,1.342222004892980997e-05
2.620634920634920650e+00,6.414201047537814360e-05,-1.825571946261845015e-06
2.621428571428571441e+00,5.602103768454377673e-05,-1.817127523847563626e-05
2.622222222222222232e+00,4.324764563840629173e-05,-3.326713413979618620e-05
2.623015873015873023e+00,2.616217774745813795e-05,-4.497235028531402210e-05
2.623809523809523814e+00,5.893504067243069678e-06,-5.173602193004052076e-05
2.624603174603174605e+00,-1.560134971549648926e-05,-5.285776954337586663e-05
2.625396825396825395e+00,-3.575907864450863100e-05,-4.857071539156744799e-05
2.626190476190476186e+00,-5.188608674202820352e-05,-3.993764578655103911e-05
2.626984126984126977e+00,-6.176680844400214991e-05,-2.859742261645854963e-05
2.627777777777777768e+00,-6.422001095805263994e-05,-1.642904172759125951e-05
2.628571428571428559e+00,-5.943040168409943996e-05,-5.208080979473934294e-06
2.629365079365079350e+00,-4.895687761119509100e-05,3.681333696410881347e-06
2.630158730158730140e+00,-3.542438016739856349e-05,9.437275673988009298e-06
2.630952380952380931e+00,-2.200147911729463757e-05,1.191517820880031020e-05
2.631746031746031722e+00,-1.180854928942150484e-05,1.158990341328993364e-05
2.632539682539682513e+00,-7.375735470607501011e-06,9.421814135249908042e-06
2.633333333333333304e+00,-1.020339728024622897e-05,6.651220018677130350e-06
2.634126984126984095e+00,-2.042754329949167819e-05,4.549025944330194693e-06
2.634920634920634885e+00,-3.660469017771446955e-05,4.156487587040189920e-06
2.635714285714285676e+00,-5.569619592223193274e-05,6.054804776256125394e-06
2.636507936507936467e+00,-7.338145741642866226e-05,1.021079265636239560e-05
2.637301587301587258e+00,-8.478279316958184223e-05,1.594100334763311975e-05
2.638095238095238049e+00,-8.552990454704303567e-05,2.201886317556778073e-05
2.638888888888888840e+00,-7.290921638208586306e-05,2.691780997516446785e-05
2.639682539682539630e+00,-4.674873348176723309e-05,2.914497747733093660e-05
2.640476190476190421e+00,-9.743974564034845942e-06,2.758843764764280725e-05
2.641269841269841212e+00,3.289548958452208897e-05,2.179089993147681844e-05
2.642063492063492003e+00,7.439491644528633705e-05,1.208009147729255763e-05
2.642857142857142794e+00,1.077234551388932336e-04,-4.751211163982111067e-07
2.643650793650793585e+00,1.269663822487306646e-04,-1.426649110077952444e-05
2.644444444444444375e+00,1.284771130289860696e-04,-2.744816063905722056e-05
2.645238095238095166e+00,1.115813076229470006e-04,-3.825829398410059818e-05
2.646031746031745957e+00,7.868763586498038042e-05,-4.528659882778130689e-05
2.646825396825396748e+00,3.477482205737943285e-05,-4.764578141917817937e-05
2.647619047619047539e+00,-1.363057633332572398e-05,-4.504494263886707326e-05
2.648412698412698330e+00,-5.973272660418827871e-05,-3.778813767710936903e-05
2.649206349206349120e+00,-9.767282170473498505e-05,-2.672203286825481920e-05
2.649999999999999911e+00,-1.233661826786785511e-04,-1.314217410867148773e-05
2.650793650793650702e+00,-1.348161896231654276e-04,1.344693188544475402e-06
2.651587301587301493e+00,-1.319514880544857933e-04,1.500372204366164331e-05
2.652380952380952284e+00,-1.161922160512021717e-04,2.618901885649052620e-05
2.653174603174603075e+00,-8.998571983763122039e-05,3.356771582152373845e-05
2.653968253968253865e+00,-5.645935816005885784e-05,3.631506904379338131e-05
2.654761904761904656e+00,-1.919639415378583989e-05,3.424471072998792372e-05
2.655555555555555447e+00,1.795521706476609102e-05,2.784542265256595929e-05
2.656349206349206238e+00,5.113960024644108581e-05,1.820913547663686143e-05
2.657142857142857029e+00,7.685585975134383004e-05,6.855533365083038513e-06
2.657936507936507819e+00,9.239446962204094513e-05,-4.515805593625946645e-06
2.658730158730158610e+00,9.626462824909910471e-05,-1.429455406403341177e-05
2.659523809523809401e+00,8.851463270532911455e-05,-2.119521648384700894e-05
2.660317460317460192e+00,7.085900495467381760e-05,-2.441857959630601053e-05
2.661111111111110983e+00,4.655256982653096945e-05,-2.372091446692474730e-05
2.661904761904761774e+00,1.998507175438136654e-05,-1.939247457892064619e-05
2.662698412698412564e+00,-3.987711449884349282e-06,-1.216026832495374146e-05
2.663492063492063355e+00,-2.090101886975334351e-05,-3.039777917488868388e-06
2.664285714285714146e+00,-2.757692565928887232e-05,6.832864318184997708e-06
2.665079365079364937e+00,-2.284740072457916351e-05,1.635639100729489526e-05
2.665873015873015728e+00,-7.885500136207628739e-06,2.458481696791906961e-05
2.666666666666666519e+00,1.399812575985525490e-05,3.080501452066144124e-05
2.667460317460317309e+00,3.808708641344954633e-05,3.457691139970058480e-05
2.668253968253968100e+00,5.934380773074196270e-05,3.574722977836939525e-05
2.669047619047618891e+00,7.355070929173187404e-05,3.444473140130158162e-05
2.669841269841269682e+00,7.819212157207797913e-05,3.105746111760649151e-05
2.670634920634920473e+00,7.285157315336150696e-05,2.618641849624235633e-05
2.671428571428571264e+00,5.906167987072746058e-05,2.056998141928102693e-05
2.672222222222222054e+00,3.971168031170645754e-05,1.497968977111665695e-05
2.673015873015872845e+00,1.823074144998103240e-05,1.009734534806305529e-05
2.673809523809523636e+00,-2.205370333105426748e-06,6.391737044002225423e-06
2.674603174603174427e+00,-1.924800629568332080e-05,4.018792312598422449e-06
2.675396825396825218e+00,-3.163722703183547222e-05,2.771831867230997275e-06
2.676190476190476009e+00,-3.916783597499624446e-05,2.107487329418875824e-06
2.676984126984126799e+00,-4.244716105271225867e-05,1.262358688628412726e-06
2.677777777777777590e+00,-4.255089195897863237e-05,-5.488337317975545829e-07
2.678571428571428381e+00,-4.066899098461665023e-05,-3.896178682602494987e-06
2.679365079365079172e+00,-3.781147363332458468e-05,-8.927921910736362761e-06
2.680158730158729963e+00,-3.462396568140131611e-05,-1.526646683702633780e-05
2.680952380952380754e+00,-3.134017765914981702e-05,-2.205172817701196367e-05
2.681746031746031544e+00,-2.786683743249590052e-05,-2.812852851812728579e-05
2.682539682539682335e+00,-2.396170208248777852e-05,-3.232695174215885372e-05
2.683333333333333126e+00,-1.944140447982761107e-05,-3.375587926012899758e-05
2.684126984126983917e+00,-1.435291350717103312e-05,-3.202824222869525789e-05
2.684920634920634708e+00,-9.057680039032569075e-06,-2.735857007143047533e-05
2.685714285714285499e+00,-4.201788162590109421e-06,-2.050992416453007567e-05
2.686507936507936289e+00,-5.721579531252355637e-07,-1.260774249676016083e-05
2.687301587301587080e+00,1.134202360441113970e-06,-4.872740515950288445e-06
2.688095238095238315e+00,5.761544002221345564e-07,1.655080042117820868e-06
2.688888888888889106e+00,-2.000018613777228098e-06,6.330874241501174859e-06
2.689682539682539897e+00,-5.638333786508994202e-06,9.010402384157334169e-06
2.690476190476190688e+00,-8.722721259132663649e-06,1.003269006724118772e-05
2.691269841269841478e+00,-9.230056607213186096e-06,1.009506152994628469e-05
2.692063492063492269e+00,-5.171984145118234122e-06,1.005246022651646757e-05
2.692857142857143060e+00,4.842959528032286128e-06,1.068199508617967658e-05
2.693650793650793851e+00,2.104743478205285616e-05,1.246149268394477194e-05
2.694444444444444642e+00,4.211050502345610051e-05,1.541516050023636591e-05
2.695238095238095433e+00,6.504891478467784928e-05,1.907076326336866500e-05
2.696031746031746223e+00,8.556505994331608318e-05,2.254598615781149682e-05
2.696825396825397014e+00,9.882186260114460134e-05,2.474462289153356843e-05
2.697619047619047805e+00,1.005309668151509834e-04,2.461229982345179606e-05
2.698412698412698596e+00,8.810111929550673007e-05,2.138961830591714182e-05
2.699206349206349387e+00,6.151782450600425686e-05,1.480878218357781861e-05
2.700000000000000178e+00,2.364875092264190625e-05,5.198395254718347471e-06
2.700793650793650968e+00,-2.019113618828529942e-05,-6.520929985286067099e-06
2.701587301587301759e+00,-6.335574445849278245e-05,-1.895392981301676570e-05
2.702380952380952550e+00,-9.937230564345135423e-05,-3.045045469613204912e-05
2.703174603174603341e+00,-1.233932759730251016e-04,-3.939604463056885350e-05
2.703968253968254132e+00,-1.331644471278806336e-04,-4.451714048062835159e-05
2.704761904761904923e+00,-1.292518508914527152e-04,-4.512977130700518435e-05
2.705555555555555713e+00,-1.145362336574895452e-04,-4.126800817835394805e-05
2.706349206349206504e+00,-9.322156116517759316e-05,-3.365962611045267945e-05
2.707142857142857295e+00,-6.971145506626354519e-05,-2.355954478422366937e-05
2.707936507936508086e+00,-4.766483287674199663e-05,-1.249011865443120941e-05
2.708730158730158877e+00,-2.941291465719343202e-05,-1.958229334511217470e-06
2.709523809523809668e+00,-1.578770694841589048e-05,6.783305248399092601e-06
2.710317460317460458e+00,-6.317421701872314884e-06,1.288592490556597024e-05
2.711111111111111249e+00,3.179347071713698699e-07,1.595728983048602692e-05
2.711904761904762040e+00,5.716249482780621472e-06,1.603523468162305725e-05
2.712698412698412831e+00,1.122086396896316726e-05,1.351763594433489980e-05
2.713492063492063622e+00,1.754842979988218966e-05,9.077548093445215536e-06
2.714285714285714413e+00,2.464542585692750632e-05,3.578046463282990712e-06
2.715079365079365203e+00,3.178322540080415854e-05,-2.013825983040004110e-06
2.715873015873015994e+00,3.784702618963970252e-05,-6.722993994812985472e-06
2.716666666666666785e+00,4.172659645326518924e-05,-9.679885830155881074e-06
2.717460317460317576e+00,4.268796622706809532e-05,-1.024848551500796410e-05
2.718253968253968367e+00,4.061054693949088220e-05,-8.149534929658888756e-06
2.719047619047619158e+00,3.601993609861521014e-05,-3.545671045920192974e-06
2.719841269841269948e+00,2.992073503963513690e-05,2.947015889709795661e-06
2.720634920634920739e+00,2.350578841692173090e-05,1.034186541580359418e-05
2.721428571428571530e+00,1.785386684064173022e-05,1.745176696163878676e-05
2.722222222222222321e+00,1.371240630437980639e-05,2.311040319995321288e-05
2.723015873015873112e+00,1.141171545483997450e-05,2.639226348581357528e-05
2.723809523809523903e+00,1.090278124678100247e-05,2.678076747353269431e-05
2.724603174603174693e+00,1.187415486252806630e-05,2.424927736138678531e-05
2.725396825396825484e+00,1.389046981505388963e-05,1.924123700302207048e-05
2.726190476190476275e+00,1.650341933550950025e-05,1.255760572892524488e-05
2.726984126984127066e+00,1.930934866423258451e-05,5.179735863901271756e-06
2.727777777777777857e+00,2.195597225210028962e-05,-1.928625691305118385e-06
2.728571428571428648e+00,2.412213531387668114e-05,-7.990776835950597697e-06
2.729365079365079438e+00,2.550121614505769174e-05,-1.251810341604246785e-05
2.730158730158730229e+00,2.581072534376075437e-05,-1.532720979925544994e-05
2.730952380952381020e+00,2.483327503373331058e-05,-1.648681828595831487e-05
2.731746031746031811e+00,2.247437414042565028e-05,-1.622817683259031646e-05
2.732539682539682602e+00,1.880804447008966937e-05,-1.485502465747799006e-05
2.733333333333333393e+00,1.407968170881290958e-05,-1.267638146755121695e-05
2.734126984126984183e+00,8.651301961119024531e-06,-9.968484405560653234e-06
2.734920634920634974e+00,2.903295904669126570e-06,-6.961312703877456440e-06
2.735714285714285765e+00,-2.865237887179294439e-06,-3.842749757358031127e-06
2.736507936507936556e+00,-8.486870859247238190e-06,-7.748022654650609385e-07
2.737301587301587347e+00,-1.389669313714036973e-05,2.084009184834904007e-06
2.738095238095238138e+00,-1.903520133034804313e-05,4.558880946746018134e-06
2.738888888888888928e+00,-2.373547822789649449e-05,6.452663148971369558e-06
2.739682539682539719e+00,-2.766239215239429803e-05,7.562673643280079732e-06
2.740476190476190510e+00,-3.035016424337329543e-05,7.722519274735273304e-06
2.741269841269841301e+00,-3.133503673807933894e-05,6.861014844572644347e-06
2.742063492063492092e+00,-3.032859340796480012e-05,5.060862836124367710e-06
2.742857142857142883e+00,-2.735454590959006093e-05,2.594714993134302982e-06
2.743650793650793673e+00,-2.278976672691679088e-05,-8.122693042735712040e-08
2.744444444444444464e+00,-1.729452447506388081e-05,-2.385130629693185800e-06
2.745238095238095255e+00,-1.166003007468484032e-05,-3.712621459976047348e-06
2.746031746031746046e+00,-6.625266187540174264e-06,-3.564576062815441499e-06
2.746825396825396837e+00,-2.717509680856907436e-06,-1.670495802663374765e-06
2.747619047619047628e+00,-1.582282716429590822e-07,1.923569102582447420e-06
2.748412698412698418e+00,1.145355023916961531e-06,6.828219393074570718e-06
2.749206349206349209e+00,1.527564229817759849e-06,1.235786632814152197e-05
2.750000000000000000e+00,1.437574120624626174e-06,1.764662268754009402e-05
2.750793650793650791e+00,1.299786971881372819e-06,2.180991464522990660e-05
2.751587301587301582e+00,1.402784717563487692e-06,2.411689656692551638e-05
2.752380952380952372e+00,1.845100200897309020e-06,2.413530130529951587e-05
2.753174603174603163e+00,2.544558712279232354e-06,2.181553374152419742e-05
2.753968253968253954e+00,3.297086595497975674e-06,1.749369967734321383e-05
2.754761904761904745e+00,3.858648143814737738e-06,1.181150142246642863e-05
2.755555555555555536e+00,4.023386828216596871e-06,5.571176132692806399e-06
2.756349206349206327e+00,3.679171028757569545e-06,-4.379172641958556378e-07
2.757142857142857117e+00,2.832648344943366665e-06,-5.594079273844143749e-06
2.757936507936507908e+00,1.604728858891224705e-06,-9.537818246862088840e-06
2.758730158730158699e+00,2.022484104951159872e-07,-1.218697916103127294e-05
2.759523809523809490e+00,-1.126522223524878970e-06,-1.368245020204420523e-05
2.760317460317460281e+00,-2.143258024338834005e-06,-1.429551097341220738e-05
2.761111111111111072e+00,-2.666375376414266066e-06,-1.433246711603005456e-05
2.761904761904761862e+00,-2.601517462108402029e-06,-1.406194462327216415e-05
2.762698412698412653e+00,-1.948731898507303236e-06,-1.367325925778673853e-05
2.763492063492063444e+00,-7.880786406552680132e-07,-1.326064872438239627e-05
2.764285714285714235e+00,7.464872573438818359e-07,-1.282419172982206658e-05
2.765079365079365026e+00,2.491852962869456517e-06,-1.228207910679372908e-05
2.765873015873015817e+00,4.268957406881354708e-06,-1.149317820620289346e-05
2.766666666666666607e+00,5.882285599463482403e-06,-1.028891932227877831e-05
2.767460317460317398e+00,7.113127104437855668e-06,-8.510867336775542732e-06
2.768253968253968189e+00,7.720909540338158781e-06,-6.048030524425846372e-06
2.769047619047618980e+00,7.467457349101074163e-06,-2.867360434263487076e-06
2.769841269841269771e+00,6.172666903635620411e-06,9.671510190512244419e-07
2.770634920634920562e+00,3.798155170015397068e-06,5.286676821600115449e-06
2.771428571428571352e+00,5.399230113090350444e-07,9.816820563534006758e-06
2.772222222222222143e+00,-3.104144097339763378e-06,1.418145414761788204e-05
2.773015873015872934e+00,-6.333810316850560810e-06,1.791667803262053026e-05
2.773809523809523725e+00,-8.146965049305597464e-06,2.050712840487400570e-05
2.774603174603174516e+00,-7.548059473108684962e-06,2.145335079738420271e-05
2.775396825396825307e+00,-3.831451278645014052e-06,2.036474898910191729e-05
2.776190476190476097e+00,3.133171799030785629e-06,1.705651583788114195e-05
2.776984126984126888e+00,1.270954528456976897e-05,1.162140620421858985e-05
2.777777777777777679e+00,2.348741524606941629e-05,4.452654375345655444e-06
2.778571428571428470e+00,3.350486811046932291e-05,-3.790524008167034280e-06
2.779365079365079261e+00,4.067144727499216029e-05,-1.226659270379525457e-05
2.780158730158730052e+00,4.328204385702207551e-05,-2.006535807721349852e-05
2.780952380952380842e+00,4.046160007092525251e-05,-2.632980132984387854e-05
2.781746031746031633e+00,3.239147031227659321e-05,-3.036694135879614749e-05
2.782539682539682424e+00,2.024275197033070328e-05,-3.173370036443593650e-05
2.783333333333333215e+00,5.850056743865437708e-06,-3.029069916821338273e-05
2.784126984126984006e+00,-8.750284362791269931e-06,-2.622393928390289738e-05
2.784920634920634797e+00,-2.176314854577980761e-05,-2.003675202511345254e-05
2.785714285714285587e+00,-3.193795722078895027e-05,-1.251009533186781234e-05
2.786507936507936378e+00,-3.867899058426592504e-05,-4.623678487905525527e-06
2.787301587301587169e+00,-4.197691122181962414e-05,2.567647513288462229e-06
2.788095238095237960e+00,-4.222621643913142042e-05,8.094859007359666545e-06
2.788888888888888751e+00,-4.001654326833511450e-05,1.124715790816528901e-05
2.789682539682539542e+00,-3.597331904968006997e-05,1.171555941034272228e-05
2.790476190476190332e+00,-3.068041439924959989e-05,9.665668141101984461e-06
2.791269841269841123e+00,-2.466973410960867052e-05,5.711564797076536808e-06
2.792063492063491914e+00,-1.843777455953785283e-05,7.891112120106639389e-07
2.792857142857142705e+00,-1.245315100630705705e-05,-4.042995144297520580e-06
2.793650793650793496e+00,-7.137881308432959457e-06,-7.823569078280454938e-06
2.794444444444444287e+00,-2.824697943943078527e-06,-9.873314083308523632e-06
2.795238095238095077e+00,2.926501695698709499e-07,-9.897729385724644615e-06
2.796031746031745868e+00,2.192450379494009805e-06,-7.989421218600100609e-06
2.796825396825396659e+00,3.022806308152586316e-06,-4.542358458467738148e-06
2.797619047619047450e+00,3.061473018380877675e-06,-1.153061907987605144e-07
2.798412698412698241e+00,2.653610751611822090e-06,4.710096737975530743e-06
2.799206349206349032e+00,2.152676157796471393e-06,9.439815604013319681e-06
2.799999999999999822e+00,1.882970649917037419e-06,1.372723059161443955e-05
2.800793650793650613e+00,2.123998724722331001e-06,1.738027933374795863e-05
2.801587301587301404e+00,3.100654075545732078e-06,2.032584319741255688e-05
2.802380952380952195e+00,4.961779696324433643e-06,2.254733847212426979e-05
2.803174603174602986e+00,7.742785732278037003e-06,2.401334744651895217e-05
2.803968253968253777e+00,1.132404388223594618e-05,2.461545222956400142e-05
2.804761904761904567e+00,1.540387398836574724e-05,2.413419970533229800e-05
2.805555555555555358e+00,1.950076032967756464e-05,2.225206455586074494e-05
2.806349206349206149e+00,2.299119519090189094e-05,1.862646263115309354e-05
2.807142857142856940e+00,2.518560519801523083e-05,1.302001598649597171e-05
2.807936507936507731e+00,2.544430460989172214e-05,5.461460629743209943e-06
2.808730158730158522e+00,2.332787906446919543e-05,-3.611632839864376453e-06
2.809523809523809312e+00,1.875541334363305278e-05,-1.328601562172039830e-05
2.810317460317460103e+00,1.211952979304294599e-05,-2.222819384271371881e-05
2.811111111111110894e+00,4.300599427490125128e-06,-2.887863989628846706e-05
2.811904761904761685e+00,-3.453414811818985450e-06,-3.176097672720442001e-05
2.812698412698412920e+00,-9.770438554534504439e-06,-2.984312440095812405e-05
2.813492063492063711e+00,-1.346932814452314318e-05,-2.286118466547703914e-05
2.814285714285714501e+00,-1.387283681850588272e-05,-1.151272230970354582e-05
2.815079365079365292e+00,-1.104006925131930847e-05,2.552437793689206243e-06
2.815873015873016083e+00,-5.848748527272259222e-06,1.697168048391312534e-05
2.816666666666666874e+00,1.161099459742993145e-07,2.910897013033794344e-05
2.817460317460317665e+00,4.866012239031779522e-06,3.660507365555532776e-05
2.818253968253968456e+00,6.453661676899438914e-06,3.790761418987869243e-05
2.819047619047619246e+00,3.467209093668359686e-06,3.264136500772481155e-05
2.819841269841270037e+00,-4.537245278416462037e-06,2.171250325294193494e-05
2.820634920634920828e+00,-1.677547329229717033e-05,7.109812294168817914e-06
2.821428571428571619e+00,-3.123465892712318475e-05,-8.548529433070333294e-06
2.822222222222222410e+00,-4.497159981167938322e-05,-2.259933817085275207e-05
2.823015873015873201e+00,-5.467928648190403877e-05,-3.289074998570824701e-05
2.823809523809523991e+00,-5.741823050718901123e-05,-3.816958791420108690e-05
2.824603174603174782e+00,-5.135136875075254525e-05,-3.822326699534320276e-05
2.825396825396825573e+00,-3.629346865965526618e-05,-3.377952553009959749e-05
2.826190476190476364e+00,-1.390231246378024595e-05,-2.622940943631284558e-05
2.826984126984127155e+00,1.258247391046463382e-05,-1.726749575483885221e-05
2.827777777777777946e+00,3.901089711676984244e-05,-8.540933623543041646e-06
2.828571428571428736e+00,6.121832075205468654e-05,-1.375303490766673602e-06
2.829365079365079527e+00,7.587914707371352864e-05,3.389456812081715751e-06
2.830158730158730318e+00,8.107983657535343912e-05,5.454065852808322075e-06
2.830952380952381109e+00,7.649589349773415242e-05,5.028365485914809189e-06
2.831746031746031900e+00,6.321356561683172501e-05,2.739963184492774005e-06
2.832539682539682691e+00,4.334715602754592845e-05,-4.962952515212009143e-07
2.833333333333333481e+00,1.961883000015667873e-05,-3.633294376903233521e-06
2.834126984126984272e+00,-4.999379781236007278e-06,-5.657731820627570811e-06
2.834920634920635063e+00,-2.757483130181658272e-05,-5.752177368533266344e-06
2.835714285714285854e+00,-4.548513286088574773e-05,-3.435061760032587192e-06
2.836507936507936645e+00,-5.671122342319211726e-05,1.341434690151365457e-06
2.837301587301587436e+00,-6.013350335495567975e-05,8.153826846493262805e-06
2.838095238095238226e+00,-5.575172495340528534e-05,1.614132632568563721e-05
2.838888888888889017e+00,-4.473434442928517793e-05,2.411269077224770669e-05
2.839682539682539808e+00,-2.924230017526143656e-05,3.071771127984009806e-05
2.840476190476190599e+00,-1.204112343543320928e-05,3.466613671002766704e-05
2.841269841269841390e+00,4.018844714994684932e-06,3.496590429016629563e-05
2.842063492063492181e+00,1.653508371350798174e-05,3.113987564791798643e-05
2.842857142857142971e+00,2.397739748179355027e-05,2.337164240946673123e-05
2.843650793650793762e+00,2.591512552760030265e-05,1.253488656613298906e-05
2.844444444444444553e+00,2.300766059868760734e-05,8.194430731119033369e-08
2.845238095238095344e+00,1.677015550894584944e-05,-1.219846475948655937e-05
2.846031746031746135e+00,9.171358679724861689e-06,-2.250820417599926036e-05
2.846825396825396925e+00,2.156588781868550220e-06,-2.937941235745228268e-05
2.847619047619047716e+00,-2.790307354132638570e-06,-3.194814703736660963e-05
2.848412698412698507e+00,-4.937145527401340518e-06,-3.009881574903284962e-05
2.849206349206349298e+00,-4.374773958599719446e-06,-2.445012971400778922e-05
2.850000000000000089e+00,-1.863464707114592348e-06,-1.619405687455785985e-05
2.850793650793650880e+00,1.481880499251495136e-06,-6.833641835865702743e-06
2.851587301587301670e+00,4.557021107127354121e-06,2.115168797270138591e-06
2.852380952380952461e+00,6.568651460909167044e-06,9.391412916469995119e-06
2.853174603174603252e+00,7.190772001958172366e-06,1.417572010245041564e-05
2.853968253968254043e+00,6.557202146644973696e-06,1.617053232285274846e-05
2.854761904761904834e+00,5.125293822492180046e-06,1.557665357334058720e-05
2.855555555555555625e+00,3.477736701370633463e-06,1.299024902840954310e-05
2.856349206349206415e+00,2.132578887882100417e-06,9.254542708262627218e-06
2.857142857142857206e+00,1.412426789444938679e-06,5.299413367025003065e-06
2.857936507936507997e+00,1.394267383517006134e-06,1.993914325779204518e-06
2.858730158730158788e+00,1.933822867732706434e-06,2.664705026766960090e-08
2.859523809523809579e+00,2.740863250872842230e-06,-1.793223019776305543e-07
2.860317460317460370e+00,3.476196451938627493e-06,1.484844359484766733e-06
2.861111111111111160e+00,3.844174340633817878e-06,4.801618933797112080e-06
2.861904761904761951e+00,3.662127085789289385e-06,9.251670702757563926e-06
2.862698412698412742e+00,2.896637588998405267e-06,1.407491209374688173e-05
2.863492063492063533e+00,1.664116732592127704e-06,1.836577866988073555e-05
2.864285714285714324e+00,1.994220499732161498e-07,2.119676058393318120e-05
2.865079365079365115e+00,-1.198435071488631381e-06,2.175916638792461366e-05
2.865873015873015905e+00,-2.230574263435398017e-06,1.950410683731648484e-05
2.866666666666666696e+00,-2.658514725468116982e-06,1.426090770030685769e-05
2.867460317460317487e+00,-2.348802959812878993e-06,6.307267216658459091e-06
2.868253968253968278e+00,-1.295043253705561269e-06,-3.631265279531647652e-06
2.869047619047619069e+00,3.846588194464064889e-07,-1.446380055534883942e-05
2.869841269841269860e+00,2.472611568311611438e-06,-2.489297259872236606e-05
2.870634920634920650e+00,4.693134442106234248e-06,-3.362666100422226383e-05
2.871428571428571441e+00,6.762329969906271266e-06,-3.960407662541816430e-05
2.872222222222222232e+00,8.435578030148656290e-06,-4.218732145205300604e-05
2.873015873015873023e+00,9.542424675473153601e-06,-4.126869828340717629e-05
2.873809523809523814e+00,1.000214442565704010e-05,-3.726120674856873294e-05
2.874603174603174605e+00,9.819568543675380765e-06,-3.097533268488371805e-05
2.875396825396825395e+00,9.066286941444159385e-06,-2.342374854103671346e-05
2.876190476190476186e+00,7.854306156803272907e-06,-1.561526842364373036e-05
2.876984126984126977e+00,6.308529443677401055e-06,-8.391178304759142569e-06
2.877777777777777768e+00,4.543455331505353891e-06,-2.330190502951723047e-06
2.878571428571428559e+00,2.648790262358708277e-06,2.279358059034249086e-06
2.879365079365079350e+00,6.867733462491990147e-07,5.416990535798127009e-06
2.880158730158730140e+00,-1.299711089802192839e-06,7.276199227673315543e-06
2.880952380952380931e+00,-3.272919564008971629e-06,8.193340871725178471e-06
2.881746031746031722e+00,-5.185967052398250648e-06,8.569116928886214401e-06
2.882539682539682513e+00,-6.972947282837208180e-06,8.791076178773371761e-06
2.883333333333333304e+00,-8.545152706404359247e-06,9.165830460680908122e-06
2.884126984126984095e+00,-9.793228383608629426e-06,9.869574564848333963e-06
2.884920634920634885e+00,-1.059520653860441688e-05,1.092413149823639828e-05
2.885714285714285676e+00,-1.083179380145347355e-05,1.220276256969447759e-05
2.886507936507936467e+00,-1.041092959038369714e-05,1.346539856291488065e-05
2.887301587301587258e+00,-9.301578514060344113e-06,1.441759211585512393e-05
2.888095238095238049e+00,-7.571753743780745519e-06,1.478276388495593429e-05
2.888888888888888840e+00,-5.419518398723591856e-06,1.437415586761656169e-05
2.889682539682539630e+00,-3.181072931735889606e-06,1.315141913168516922e-05
2.890476190476190421e+00,-1.300540956014656844e-06,1.124705000190853226e-05
2.891269841269841212e+00,-2.543823707904966743e-07,8.950915052541833530e-06
2.892063492063492003e+00,-4.389635670117548884e-07,6.648421878097458455e-06
2.892857142857142794e+00,-2.047683508481061135e-06,4.720217567044853802e-06
2.893650793650793585e+00,-4.976175874047306197e-06,3.426706742251897273e-06
2.894444444444444375e+00,-8.793296991213963846e-06,2.813407824001973626e-06
2.895238095238095166e+00,-1.279931623758796615e-05,2.674829969187959546e-06
2.896031746031745957e+00,-1.616494315633248613e-05,2.599433891014261345e-06
2.896825396825396748e+00,-1.811572485698815499e-05,2.089788318378583137e-06
2.897619047619047539e+00,-1.810884099279659530e-05,7.230961234183523534e-07
2.898412698412698330e+00,-1.595217809407497499e-05,-1.698725939713639556e-06
2.899206349206349120e+00,-1.183727377179792111e-05,-5.058146520917407081e-06
2.899999999999999911e+00,-6.287314445423892259e-06,-8.921630488424862310e-06
2.900793650793650702e+00,-4.560238491854538164e-08,-1.263370862931278864e-05
2.901587301587301493e+00,6.059774860764724909e-06,-1.547944710805000774e-05
2.902380952380952284e+00,1.124378197253219172e-05,-1.686738464135333402e-05
2.903174603174603075e+00,1.486651256884123050e-05,-1.648026613222391566e-05
2.903968253968253865e+00,1.650391976951273414e-05,-1.435358181783434492e-05
2.904761904761904656e+00,1.598828176640690194e-05,-1.086487725814249659e-05
2.905555555555555447e+00,1.342051289166305818e-05,-6.641794503668187606e-06
2.906349206349206238e+00,9.155808487178329708e-06,-2.417266441866133381e-06
2.907142857142857029e+00,3.764996082373605407e-06,1.128740756407705039e-06
2.907936507936507819e+00,-2.023759511260300620e-06,3.502456840869425172e-06
2.908730158730158610e+00,-7.397048152930084362e-06,4.477516895571118629e-06
2.909523809523809401e+00,-1.153788477636786973e-05,4.114251522916940112e-06
2.910317460317460192e+00,-1.371606631485763975e-05,2.723145615613128826e-06
2.911111111111110983e+00,-1.338790656588602797e-05,7.885504587787767268e-07
2.911904761904761774e+00,-1.030259894328417566e-05,-1.128210377940842382e-06
2.912698412698412564e+00,-4.603621311564626415e-06,-2.489288055905717094e-06
2.913492063492063355e+00,3.096599344357560431e-06,-2.871660702755491905e-06
2.914285714285714146e+00,1.169566964735339591e-05,-2.040238025679857171e-06
2.915079365079364937e+00,1.965683899438556197e-05,5.903858826111591320e-09
2.915873015873015728e+00,2.515226022900181877e-05,3.023970038712244301e-06
2.916666666666666519e+00,2.628875586835812826e-05,6.563481945542286555e-06
2.917460317460317309e+00,2.139452110853516708e-05,1.005055917369748334e-05
2.918253968253968100e+00,9.332784084505029102e-06,1.291107753477449809e-05
2.919047619047618891e+00,-1.019674671760533473e-05,1.470845834985121758e-05
2.919841269841269682e+00,-3.640853947658214806e-05,1.526000163898073606e-05
2.920634920634920473e+00,-6.727876714218231362e-05,1.469363639563794224e-05
2.921428571428571264e+00,-9.954728700727559889e-05,1.341924807779442119e-05
2.922222222222222054e+00,-1.289410820613631954e-04,1.201468971722857036e-05
2.923015873015872845e+00,-1.506701492446525174e-04,1.105809379416563919e-05
2.923809523809523636e+00,-1.601897419003138956e-04,1.096067063335036801e-05
2.924603174603174427e+00,-1.541311519758484694e-04,1.185470681290064835e-05
2.925396825396825218e+00,-1.312069888961901721e-04,1.356879029835876733e-05
2.926190476190476009e+00,-9.283874227412806208e-05,1.568925608967123648e-05
2.926984126984126799e+00,-4.327261671124475002e-05,1.768068167927657077e-05
2.927777777777777590e+00,1.094285306319771397e-05,1.902841611716073268e-05
2.928571428571428381e+00,6.207689923264935491e-05,1.936996259692983242e-05
2.929365079365079172e+00,1.027278734615845625e-04,1.858997746044114055e-05
2.930158730158729963e+00,1.274055306782989703e-04,1.685827242124662956e-05
2.930952380952380754e+00,1.338214444852538654e-04,1.459221347162195943e-05
2.931746031746031544e+00,1.235569250519691960e-04,1.233260185124307424e-05
2.932539682539682335e+00,1.018883453810453214e-04,1.054460988479739478e-05
2.933333333333333126e+00,7.673298196144330704e-05,9.392283542893927725e-06
2.934126984126983917e+00,5.690180099103856148e-05,8.570183814336086224e-06
2.934920634920634708e+00,5.004878544622996697e-05,7.282255170425166855e-06
2.935714285714285499e+00,6.081844276458404957e-05,4.417459024749496327e-06
2.936507936507936289e+00,8.966200776015613438e-05,-1.107086009667343296e-06
2.937301587301587080e+00,1.326178683188152007e-04,-9.944048325895014678e-06
2.938095238095238315e+00,1.820931065500571951e-04,-2.199972218996612108e-05
2.938888888888889106e+00,2.284315860649117110e-04,-3.632215007665327573e-05
2.939682539682539897e+00,2.618840703169572149e-04,-5.123782694322332035e-05
2.940476190476190688e+00,2.745386694236337196e-04,-6.469436478249780177e-05
2.941269841269841478e+00,2.618173624520187199e-04,-7.470150402183081109e-05
2.942063492063492269e+00,2.232674693361878901e-04,-7.974246372750525805e-05
2.942857142857143060e+00,1.625414587976622028e-04,-7.905403158527663627e-05
2.943650793650793851e+00,8.662979369977143391e-05,-7.272706369318559659e-05
2.944444444444444642e+00,4.553569584645409146e-06,-6.163169517920474925e-05
2.945238095238095433e+00,-7.419638883343206517e-05,-4.720771156785368179e-05
2.946031746031746223e+00,-1.411817353149215706e-04,-3.117916138974378726e-05
2.946825396825397014e+00,-1.902556600696899737e-04,-1.525719418987972863e-05
2.947619047619047805e+00,-2.183410583985471900e-04,-8.883377600292473063e-07
2.948412698412698596e+00,-2.256439377774052983e-04,1.091166720542452657e-05
2.949206349206349387e+00,-2.152918164071703519e-04,1.962235806325022579e-05
2.950000000000000178e+00,-1.924996472783350174e-04,2.518989124819159676e-05
2.950793650793650968e+00,-1.634627875374945695e-04,2.793178791799303439e-05
2.951587301587301759e+00,-1.342152384500582842e-04,2.840859459042920627e-05
2.952380952380952550e+00,-1.096609316806604811e-04,2.729289767071682137e-05
2.953174603174603341e+00,-9.291291121431624871e-05,2.525787358429955651e-05
2.953968253968254132e+00,-8.499707162997885760e-05,2.289798730091925020e-05
2.954761904761904923e+00,-8.491521480272617984e-05,2.068456353465055792e-05
2.955555555555555713e+00,-9.002000505858196659e-05,1.894973618515954659e-05
2.956349206349206504e+00,-9.662803686700646081e-05,1.788696280228132290e-05
2.957142857142857295e+00,-1.007793222992481948e-04,1.755771959344230607e-05
2.957936507936508086e+00,-9.903177962988534333e-05,1.790066311690601187e-05
2.958730158730158877e+00,-8.915582125658576339e-05,1.874595032069485581e-05
2.959523809523809668e+00,-7.058542875340719728e-05,1.983884887806763660e-05
2.960317460317460458e+00,-4.451618044719641578e-05,2.087359738250551134e-05
2.961111111111111249e+00,-1.362414933241128992e-05,2.153497247907454004e-05
2.961904761904762040e+00,1.851746462418309692e-05,2.154376075100355745e-05
2.962698412698412831e+00,4.816925226666021731e-05,2.070147263824225140e-05
2.963492063492063622e+00,7.212343613863500037e-05,1.892738643322379929e-05
2.964285714285714413e+00,8.821476147459195161e-05,1.627970921360277366e-05
2.965079365079365203e+00,9.555600038844505877e-05,1.295502811456067120e-05
2.965873015873015994e+00,9.449251702563742084e-05,9.264775821210473358e-06
2.966666666666666785e+00,8.634402899634339740e-05,5.591102083315871890e-06
2.967460317460317576e+00,7.304226781353263158e-05,2.327308386213661806e-06
2.968253968253968367e+00,5.677081080707841940e-05,-1.885605296036358086e-07
2.969047619047619158e+00,3.967500297826653420e-05,-1.734717406145719232e-06
2.969841269841269948e+00,2.365482571758417585e-05,-2.247238500037428437e-06
2.970634920634920739e+00,1.020764793990497068e-05,-1.829969104468183274e-06
2.971428571428571530e+00,2.757157720197282432e-07,-7.259158292896400990e-07
2.972222222222222321e+00,-5.914386715565606096e-06,7.476371910268494268e-07
2.973015873015873112e+00,-8.970971015730899386e-06,2.286999697627559449e-06
2.973809523809523903e+00,-1.031369879808598667e-05,3.690026335923349512e-06
2.974603174603174693e+00,-1.191075031231208730e-05,4.917082990940122108e-06
2.975396825396825484e+00,-1.576367828156337669e-05,6.101600362662525871e-06
2.976190476190476275e+00,-2.325596680558252865e-05,7.497797515523680671e-06
2.976984126984127066e+00,-3.458016698618937286e-05,9.369458891483492221e-06
2.977777777777777857e+00,-4.846393087740584520e-05,1.184278169564493991e-05
2.978571428571428648e+00,-6.232238035751289161e-05,1.476446482218116036e-05
2.979365079365079438e+00,-7.281785146365491758e-05,1.761664645469751065e-05
2.980158730158730229e+00,-7.666676722222872851e-05,1.953550852844765861e-05
2.980952380952381020e+00,-7.145027771511020139e-05,1.945730164280795748e-05
2.981746031746031811e+00,-5.619599163407150763e-05,1.637846546836441185e-05
2.982539682539682602e+00,-3.159644418038245079e-05,9.675322539537055367e-06
2.983333333333333393e+00,1.393391641748136380e-07,-6.039398293581172801e-07
2.984126984126984183e+00,3.570731319515734484e-05,-1.357333099700068421e-05
2.984920634920634974e+00,7.127286804069584607e-05,-2.754672821215130581e-05
2.985714285714285765e+00,1.030580236870546116e-04,-4.030461512500532024e-05
2.986507936507936556e+00,1.278562314408756098e-04,-4.954635952356475784e-05
2.987301587301587347e+00,1.434008435762350320e-04,-5.342117982662483218e-05
2.988095238095238138e+00,1.485334915864661772e-04,-5.099534310865962307e-05
2.988888888888888928e+00,1.431542625289249960e-04,-4.252121115456459913e-05
2.989682539682539719e+00,1.279942864853554662e-04,-2.942825768503672023e-05
2.990476190476190510e+00,1.043156908080705708e-04,-1.403922817698917685e-05
2.991269841269841301e+00,7.367604136328386876e-05,9.075800720713102491e-07
2.992063492063492092e+00,3.786026186966060642e-05,1.280644594570107733e-05
2.992857142857142883e+00,-1.016568122908661073e-06,1.968060140211173623e-05
2.993650793650793673e+00,-4.034789924180357727e-05,2.053608089304191693e-05
2.994444444444444464e+00,-7.698806233669934897e-05,1.552170773958788173e-05
2.995238095238095255e+00,-1.074502898708484306e-04,5.876818938566824373e-06
2.996031746031746046e+00,-1.283609155934746244e-04,-6.325237169124454194e-06
2.996825396825396837e+00,-1.370484833271850438e-04,-1.860080782045647437e-05
2.997619047619047628e+00,-1.320799529445693446e-04,-2.857337724647849710e-05
2.998412698412698418e+00,-1.135848166967019812e-04,-3.447606086318695388e-05
2.999206349206349209e+00,-8.330069252006428913e-05,-3.551615663823938355e-05
3.000000000000000000e+00,-4.436772315154037592e-05,-3.200194843786513109e-05
3.000793650793650791e+00,-9.472775009852524519e-07,-2.519142595096857478e-05
3.001587301587301582e+00,4.225889800871936809e-05,-1.689854227781753928e-05
3.002380952380952372e+00,8.053113822770371617e-05,-8.960759050574462124e-06
3.003174603174603163e+00,1.096512490963160407e-04,-2.714221945026629104e-06
3.003968253968253954e+00,1.263791054492710640e-04,1.372571538271355139e-06
3.004761904761904745e+00,1.288476801889031347e-04,3.797675493920654099e-06
3.005555555555555536e+00,1.168347135507782241e-04,5.830674873842883061e-06
3.006349206349206327e+00,9.186372301982028191e-05,9.091536518291983926e-06
3.007142857142857117e+00,5.708847259999485721e-05,1.503716609445364780e-05
3.007936507936507908e+00,1.693430266558399919e-05,2.450173359658787631e-05
3.008730158730158699e+00,-2.348966591507253301e-05,3.740030869831245777e-05
3.009523809523809490e+00,-5.913766938800949944e-05,5.264739574289962451e-05
3.010317460317460281e+00,-8.580978450818888470e-05,6.829014456512680852e-05
3.011111111111111072e+00,-1.008178279944376148e-04,8.182188722663215688e-05
3.011904761904761862e+00,-1.033974826746309763e-04,9.061916534539650762e-05
3.012698412698412653e+00,-9.477937547886134979e-05,9.242403610783683505e-05
3.013492063492063444e+00,-7.789625576544673222e-05,8.577695568417638135e-05
3.014285714285714235e+00,-5.677054368896806015e-05,7.031318848580647371e-05
3.015079365079365026e+00,-3.569230671604938524e-05,4.687520960719956557e-05
3.015873015873015817e+00,-1.835085602510773747e-05,1.744064165285640647e-05
3.016666666666666607e+00,-7.106915672291972023e-06,-1.511201702739830236e-05
3.017460317460317398e+00,-2.576623379660140026e-06,-4.737682949190337553e-05
3.018253968253968189e+00,-3.638898957553876467e-06,-7.589792131206907037e-05
3.019047619047618980e+00,-7.872019605808974109e-06,-9.767777505671456154e-05
3.019841269841269771e+00,-1.229111648926669334e-05,-1.106086216724551277e-04
3.020634920634920562e+00,-1.414883351976720697e-05,-1.137295565001946487e-04
3.021428571428571352e+00,-1.154250815548574551e-05,-1.072706743415952670e-04
3.022222222222222143e+00,-3.669101736078709369e-06,-9.251504335941602411e-05
3.023015873015872934e+00,9.261471192743744768e-06,-7.154959642699134758e-05
3.023809523809523725e+00,2.629642776041785345e-05,-4.697493350236599149e-05
3.024603174603174516e+00,4.598986941998033480e-05,-2.161439379162217124e-05
3.025396825396825307e+00,6.650093595161005536e-05,1.774709821694280376e-06
3.026190476190476097e+00,8.554899672286045767e-05,2.080847024629653414e-05
3.026984126984126888e+00,1.003612675186237187e-04,3.381277379969194587e-05
3.027777777777777679e+00,1.077939253298414261e-04,4.014804353709164542e-05
3.028571428571428470e+00,1.047475347025637117e-04,4.041396056319179351e-05
3.029365079365079261e+00,8.886135356982455670e-05,3.639488309331344524e-05
3.030158730158730052e+00,5.932651049149763301e-05,3.066166986011793262e-05
3.030952380952380842e+00,1.757070083045487703e-05,2.588246906479815953e-05
3.031746031746031633e+00,-3.243215783095344297e-05,2.404247464680773943e-05
3.032539682539682424e+00,-8.439455739910383455e-05,2.584113257961355968e-05
3.033333333333333215e+00,-1.305332306905550158e-04,3.048675599021785759e-05
3.034126984126984006e+00,-1.628776855930868519e-04,3.597391296929934519e-05
3.034920634920634797e+00,-1.748421896184572247e-04,3.976568632350290877e-05
3.035714285714285587e+00,-1.627238677083610351e-04,3.965828281689312654e-05
3.036507936507936378e+00,-1.267409342678066961e-04,3.452461610828873930e-05
3.037301587301587169e+00,-7.128647044134322445e-05,2.466565425380338108e-05
3.038095238095237960e+00,-4.259400654203054418e-06,1.165516407998205641e-05
3.038888888888888751e+00,6.440627195217019454e-05,-2.223336356683661592e-06
3.039682539682539542e+00,1.246602482117866709e-04,-1.469393764630770718e-05
3.040476190476190332e+00,1.682320371875327685e-04,-2.408471162967176714e-05
3.041269841269841123e+00,1.900622910373297178e-04,-2.962661501805879962e-05
3.042063492063491914e+00,1.889722808644314904e-04,-3.142699529563627967e-05
3.042857142857142705e+00,1.674805174047066874e-04,-3.021143182968197700e-05
3.043650793650793496e+00,1.308872738399005664e-04,-2.697744254654362681e-05
3.044444444444444287e+00,8.591494160746015270e-05,-2.268411654388576329e-05
3.045238095238095077e+00,3.927263925943364284e-05,-1.805046786129780112e-05
3.046031746031745868e+00,-3.513150633813787806e-06,-1.348735754612932391e-05
3.046825396825396659e+00,-3.877989546542818307e-05,-9.151223676248959564e-06
3.047619047619047450e+00,-6.486738689736738892e-05,-5.075887245728512045e-06
3.048412698412698241e+00,-8.181332201471533231e-05,-1.314570673768656040e-06
3.049206349206349032e+00,-9.079974998382120399e-05,1.976528612114441853e-06
3.049999999999999822e+00,-9.355625570371615941e-05,4.550368423883379130e-06
3.050793650793650613e+00,-9.187166924506865297e-05,6.163149669903569841e-06
3.051587301587301404e+00,-8.728282153079352981e-05,6.694299989945878592e-06
3.052380952380952195e+00,-8.093545104624173478e-05,6.226403417333590602e-06
3.053174603174602986e+00,-7.357344076956418000e-05,5.044323356076325873e-06
3.053968253968253777e+00,-6.560890270716750606e-05,3.554745650407412929e-06
3.054761904761904567e+00,-5.723690026009939727e-05,2.161828030488070578e-06
3.055555555555555358e+00,-4.856320893731026566e-05,1.147633658716746305e-06
3.056349206349206149e+00,-3.970962668688914543e-05,5.985242988931168490e-07
3.057142857142856940e+00,-3.086455566553118757e-05,3.992321980533013892e-07
3.057936507936507731e+00,-2.226775810674607248e-05,2.931575524815418567e-07
3.058730158730158522e+00,-1.414935519892101610e-05,-1.291047620340345686e-08
3.059523809523809312e+00,-6.664522601527862915e-06,-7.335026291342865434e-07
3.060317460317460103e+00,1.375444426158021833e-07,-1.913629422863466218e-06
3.061111111111110894e+00,6.296036902886252876e-06,-3.389129251855993071e-06
3.061904761904761685e+00,1.188552326899450401e-05,-4.810442368741377539e-06
3.062698412698412920e+00,1.695477897971570721e-05,-5.724244048675251156e-06
3.063492063492063711e+00,2.148212990131594631e-05,-5.689792393781759710e-06
3.064285714285714501e+00,2.535989804999734496e-05,-4.395310003331314449e-06
3.065079365079365292e+00,2.840680543729634527e-05,-1.740407942385304810e-06
3.065873015873016083e+00,3.039803821331113953e-05,2.135400926015787100e-06
3.066666666666666874e+00,3.110234137211367021e-05,6.877590910367571083e-06
3.067460317460317665e+00,3.032264785510697567e-05,1.197844805073963338e-05
3.068253968253968456e+00,2.794429519583014384e-05,1.685465044118693241e-05
3.069047619047619246e+00,2.399645895373580333e-05,2.092366847408649210e-05
3.069841269841270037e+00,1.872647712749859908e-05,2.366787981687295688e-05
3.070634920634920828e+00,1.267452559831422662e-05,2.467941181542807749e-05
3.071428571428571619e+00,6.720587136387286759e-06,2.368408056727259922e-05
3.072222222222222410e+00,2.064058808237604956e-06,2.055043719080409877e-05
3.073015873015873201e+00,9.955759943025342800e-08,1.529470499083839826e-05
3.073809523809523991e+00,2.177473060807783993e-06,8.090687368499643788e-06
3.074603174603174782e+00,9.279160338036983091e-06,-7.107073775324977480e-07
3.075396825396825573e+00,2.167650581713234396e-05,-1.055077485470659605e-05
3.076190476190476364e+00,3.866454254530250192e-05,-2.062455375579936778e-05
3.076984126984127155e+00,5.844622114246035755e-05,-2.985025558841799439e-05
3.077777777777777946e+00,7.821785426380220725e-05,-3.687959103282802950e-05
3.078571428571428736e+00,9.446632594422370538e-05,-4.019283252573419387e-05
3.079365079365079527e+00,1.034550234122258032e-04,-3.831340264802708651e-05
3.080158730158730318e+00,1.018461246595825837e-04,-3.014227525367024630e-05
3.080952380952381109e+00,8.737814021457504716e-05,-1.535983594562317160e-05
3.081746031746031900e+00,5.948671963031119172e-05,5.209817361101102968e-06
3.082539682539682691e+00,1.972888792518211911e-05,2.940737180304722395e-05
3.083333333333333481e+00,-2.813844593458573323e-05,5.384263993091047140e-05
3.084126984126984272e+00,-7.854205680836523018e-05,7.435394525937864883e-05
3.084920634920635063e+00,-1.249583751684790929e-04,8.677727328229963488e-05
3.085714285714285854e+00,-1.611285638427388490e-04,8.786838886441887553e-05
3.086507936507936645e+00,-1.823324362979389683e-04,7.614579264164806087e-05
3.087301587301587436e+00,-1.863574011994291793e-04,5.241436456082757423e-05
3.088095238095238226e+00,-1.738674215381101303e-04,1.979433599945046841e-05
3.088888888888889017e+00,-1.480679245268466172e-04,-1.679931788940087467e-05
3.089682539682539808e+00,-1.137878885615391396e-04,-5.163550002441196781e-05
3.090476190476190599e+00,-7.626632536111175524e-05,-7.937667074513175282e-05
3.091269841269841390e+00,-3.998888351791357875e-05,-9.621082752676496960e-05
3.092063492063492181e+00,-7.873272141793399796e-06,-1.006046992987738364e-04
3.092857142857142971e+00,1.902017491653923778e-05,-9.348185547092524019e-05
3.093650793650793762e+00,4.123222039849067116e-05,-7.779907712633985211e-05
3.094444444444444553e+00,6.022783107221052544e-05,-5.766903953253749436e-05
3.095238095238095344e+00,7.752483225776082084e-05,-3.729755805526826140e-05
3.096031746031746135e+00,9.388886590804084678e-05,-2.003413139541262514e-05
3.096825396825396925e+00,1.088174382183526627e-04,-7.773195518112389847e-06
3.097619047619047716e+00,1.204442697965994773e-04,-8.168740293322443182e-07
3.098412698412698507e+00,1.258895863688036781e-04,1.836887842673083812e-06
3.099206349206349298e+00,1.219929649848110187e-04,1.933927506356882786e-06
3.100000000000000089e+00,1.062914485246439962e-04,1.335063359899025206e-06
3.100793650793650880e+00,7.803131557704972036e-05,1.501239150769912770e-06
3.101587301587301670e+00,3.893780941612452864e-05,3.204795483947087474e-06
3.102380952380952461e+00,-6.540456917744027590e-06,6.494282801797400621e-06
3.103174603174603252e+00,-5.170332404036133249e-05,1.086720914209852288e-05
3.103968253968254043e+00,-8.878757669089122357e-05,1.555855993280945806e-05
3.104761904761904834e+00,-1.106381602580351208e-04,1.983922107330640086e-05
3.105555555555555625e+00,-1.124363148289789731e-04,2.323582203880283228e-05
3.106349206349206415e+00,-9.299608784984761064e-05,2.562183273924478608e-05
3.107142857142857206e+00,-5.524777325661581689e-05,2.717464953812840655e-05
3.107936507936507997e+00,-5.764149747567639703e-06,2.823188971090535371e-05
3.108730158730158788e+00,4.654455505800894139e-05,2.910365139653316150e-05
3.109523809523809579e+00,9.223044641065330552e-05,2.990314975900308216e-05
3.110317460317460370e+00,1.231639002684754901e-04,3.044779054065359781e-05
3.111111111111111160e+00,1.340260448262421179e-04,3.026087301550159372e-05
3.111904761904761951e+00,1.231447029245538488e-04,2.867640218784773428e-05
3.112698412698412742e+00,9.257085332191088351e-05,2.502226857693300727e-05
3.113492063492063533e+00,4.747786802953582274e-05,1.883611666580774222e-05
3.114285714285714324e+00,-4.914313666720809713e-06,1.005779435650007463e-05
3.115079365079365115e+00,-5.664957872150934621e-05,-8.551942271507361875e-07
3.115873015873015905e+00,-1.003523311176102091e-04,-1.292708757283746538e-05
3.116666666666666696e+00,-1.303435809888646522e-04,-2.478920773719182097e-05
3.117460317460317487e+00,-1.433738697497908762e-04,-3.490898839100335909e-05
3.118253968253968278e+00,-1.388518015600536586e-04,-4.186891333516770203e-05
3.119047619047619069e+00,-1.185686532536631388e-04,-4.462442232183309502e-05
3.119841269841269860e+00,-8.606420079313191257e-05,-4.267677857906973510e-05
3.120634920634920650e+00,-4.586674584827045111e-05,-3.612613315747284715e-05
3.121428571428571441e+00,-2.819362156257646247e-06,-2.560867918986146970e-05
3.122222222222222232e+00,3.840601454456230940e-05,-1.215445919330914240e-05
3.123015873015873023e+00,7.363342944445069448e-05,2.982096012910825263e-06
3.123809523809523814e+00,9.944737541645100342e-05,1.847257446353309731e-05
3.124603174603174605e+00,1.134836364543904898e-04,3.302184780511178042e-05
3.125396825396825395e+00,1.147493082402848948e-04,4.543478978699975546e-05
3.126190476190476186e+00,1.038757401744869321e-04,5.466398329593476235e-05
3.126984126984126977e+00,8.315502345285227608e-05,5.986469487908397589e-05
3.127777777777777768e+00,5.623849225048112570e-05,6.047318104290826693e-05
3.128571428571428559e+00,2.747831276683844649e-05,5.630287768884510897e-05
3.129365079365079350e+00,1.030986728273195745e-06,4.762964906322345011e-05
3.130158730158730140e+00,-2.003957627840575851e-05,3.522541960570214941e-05
3.130952380952380931e+00,-3.437443236247704492e-05,2.030746932758423947e-05
3.131746031746031722e+00,-4.242374414762092112e-05,4.394565454126332075e-06
3.132539682539682513e+00,-4.598786882069906534e-05,-1.091049992458921742e-05
3.133333333333333304e+00,-4.735674717346005750e-05,-2.416888401419541282e-05
3.134126984126984095e+00,-4.837110713003830146e-05,-3.432753556819090920e-05
3.134920634920634885e+00,-4.975623999650293216e-05,-4.085914187311548575e-05
3.135714285714285676e+00,-5.096094570335773307e-05,-4.378384970260241159e-05
3.136507936507936467e+00,-5.052788360213873546e-05,-4.357245654752913387e-05
3.137301587301587258e+00,-4.681659433075718261e-05,-4.097052751191881275e-05
3.138095238095238049e+00,-3.878007979153052468e-05,-3.680653294996039462e-05
3.138888888888888840e+00,-2.650156556481537393e-05,-3.184095515853704167e-05
3.139682539682539630e+00,-1.131231807278726504e-05,-2.668204626255039013e-05
3.140476190476190421e+00,4.525579512824360978e-06,-2.175902221747455357e-05
3.141269841269841212e+00,1.844047548606240865e-05,-1.732683886704148039e-05
3.142063492063492003e+00,2.825743615955430201e-05,-1.348306526082328670e-05
3.142857142857142794e+00,3.275941036194127544e-05,-1.019269469494851879e-05
3.143650793650793585e+00,3.193666241732860461e-05,-7.324105616839252038e-06
3.144444444444444375e+00,2.687460506672293214e-05,-4.694824911643887952e-06
3.145238095238095166e+00,1.935724015240337985e-05,-2.117743161627457696e-06
3.146031746031745957e+00,1.134923161375751842e-05,5.638387228331980088e-07
3.146825396825396748e+00,4.531208600430988771e-06,3.458570066897908983e-06
3.147619047619047539e+00,6.458013997227186515e-09,6.624441225489188197e-06
3.148412698412698330e+00,-1.787830806401429667e-06,1.007299011116859447e-05
3.149206349206349120e+00,-1.001869720285287844e-06,1.377254749324653749e-05
3.149999999999999911e+00,1.801232091849498718e-06,1.764835323399251293e-05
3.150793650793650702e+00,5.842725282204215408e-06,2.158320117761829235e-05
3.151587301587301493e+00,1.029527256776841181e-05,2.542316554223369608e-05
3.152380952380952284e+00,1.439686545426487780e-05,2.898794012718526334e-05
3.153174603174603075e+00,1.751750802030563773e-05,3.207881270794214274e-05
3.153968253968253865e+00,1.920204814355679199e-05,3.447562287545335487e-05
3.154761904761904656e+00,1.921272508160538515e-05,3.592025967402166016e-05
3.155555555555555447e+00,1.757916367315919223e-05,3.609595507942268624e-05
3.156349206349206238e+00,1.464034597449435421e-05,3.462250382041933891e-05
3.157142857142857029e+00,1.104503946998690863e-05,3.109025202315224783e-05
3.157936507936507819e+00,7.675075731204175340e-06,2.514548567000353632e-05
3.158730158730158610e+00,5.474688127951558604e-06,1.661819271145142018e-05
3.159523809523809401e+00,5.205289759753956486e-06,5.658296909538730115e-06
3.160317460317460192e+00,7.185258146441952203e-06,-7.170193832566875154e-06
3.161111111111110983e+00,1.109900460091229907e-05,-2.088581809743836570e-05
3.161904761904761774e+00,1.595335616295478530e-05,-3.420086328930783541e-05
3.162698412698412564e+00,2.022002537515771731e-05,-4.572973419085961985e-05
3.163492063492063355e+00,2.214435332924172934e-05,-5.423814734264744656e-05
3.164285714285714146e+00,2.014791844768364489e-05,-5.886070085272566299e-05
3.165079365079364937e+00,1.323081030515311225e-05,-5.922905434828692323e-05
3.165873015873015728e+00,1.292700236376788138e-06,-5.548784751289209303e-05
3.166666666666666519e+00,-1.468244678405327383e-05,-4.821095221785641840e-05
3.167460317460317309e+00,-3.262063645776988548e-05,-3.825335816460168374e-05
3.168253968253968100e+00,-4.957262696937160800e-05,-2.658228486328469481e-05
3.169047619047618891e+00,-6.217408864186815592e-05,-1.412856094714305585e-05
3.169841269841269682e+00,-6.732086491009317054e-05,-1.688245379937894131e-06
3.170634920634920473e+00,-6.294190109648707882e-05,1.011327328226116956e-05
3.171428571428571264e+00,-4.867277371663866119e-05,2.080231615803137689e-05
3.172222222222222054e+00,-2.621297820924897056e-05,3.000601000990446574e-05
3.173015873015872845e+00,7.833637097780490513e-07,3.739795910443532490e-05
3.173809523809523636e+00,2.730531753807307607e-05,4.266395386149647009e-05
3.174603174603174427e+00,4.795860963021286510e-05,4.549902544776050236e-05
3.175396825396825218e+00,5.810553940731066111e-05,4.563429621804282167e-05
3.176190476190476009e+00,5.492014877179774704e-05,4.288425013981624079e-05
3.176984126984126799e+00,3.811735324174112970e-05,3.720379915880432723e-05
3.177777777777777590e+00,1.017023100161921980e-05,2.874647660791207780e-05
3.178571428571428381e+00,-2.407362762713032592e-05,1.791501203133850117e-05
3.179365079365079172e+00,-5.833501992896759111e-05,5.391074500459290246e-06
3.180158730158729963e+00,-8.621824786674494472e-05,-7.874337544007176028e-06
3.180952380952380754e+00,-1.025897868404369119e-04,-2.072714106302814068e-05
3.181746031746031544e+00,-1.046655183486453665e-04,-3.193813792845201700e-05
3.182539682539682335e+00,-9.252005964092211278e-05,-4.037784783505785985e-05
3.183333333333333126e+00,-6.890533949092307684e-05,-4.520376218413068361e-05
3.184126984126983917e+00,-3.847439620423293304e-05,-4.601464285582411223e-05
3.184920634920634708e+00,-6.661102851390160233e-06,-4.293037680384241794e-05
3.185714285714285499e+00,2.148237594806447692e-05,-3.657519990311598702e-05
3.186507936507936289e+00,4.222892810230325847e-05,-2.796815334232723307e-05
3.187301587301587080e+00,5.372670469441416394e-05,-1.834484151650047062e-05
3.188095238095238315e+00,5.608405316075062969e-05,-8.944038208664813232e-06
3.188888888888889106e+00,5.102247702981011016e-05,-7.962597171550502183e-07
3.189682539682539897e+00,4.123020419803807981e-05,5.446484878007772226e-06
3.190476190476190688e+00,2.961704803402634940e-05,9.602633300323699001e-06
3.191269841269841478e+00,1.867838129606772080e-05,1.194915200711565891e-05
3.192063492063492269e+00,1.011244226787501474e-05,1.310241885225218405e-05
3.192857142857143060e+00,4.727509217814234062e-06,1.381685721249649261e-05
3.193650793650793851e+00,2.575342553422212706e-06,1.475236070869959730e-05
3.194444444444444642e+00,3.196795514334410372e-06,1.627545733342073268e-05
3.195238095238095433e+00,5.872163382664695362e-06,1.835282671063580027e-05
3.196031746031746223e+00,9.810819812763391435e-06,2.056831548991759740e-05
3.196825396825397014e+00,1.426268205327172039e-05,2.225510260992460189e-05
3.197619047619047805e+00,1.856804761903344423e-05,2.269877941380106279e-05
3.198412698412698596e+00,2.217586451288200414e-05,2.134851815019219581e-05
3.199206349206349387e+00,2.465664753957683890e-05,1.797695940005449312e-05
3.200000000000000178e+00,2.572226267841938943e-05,1.275053235039263447e-05
3.200793650793650968e+00,2.524887686164716834e-05,6.201356699671481327e-06
3.201587301587301759e+00,2.328937060554958223e-05,-8.808079723377294127e-07
3.202380952380952550e+00,2.006254196346328260e-05,-7.601576980924679738e-06
3.203174603174603341e+00,1.591729781956503352e-05,-1.312212711512467087e-05
3.203968253968254132e+00,1.128265989490380447e-05,-1.679559676109197271e-05
3.204761904761904923e+00,6.618811323604793113e-06,-1.825878008908734146e-05
3.205555555555555713e+00,2.376400154641722485e-06,-1.746825761105835271e-05
3.206349206349206504e+00,-1.042333934691856531e-06,-1.468034320432617491e-05
3.207142857142857295e+00,-3.332157115527151396e-06,-1.038432293073998725e-05
3.207936507936508086e+00,-4.343108163026902657e-06,-5.206110816989232274e-06
3.208730158730158877e+00,-4.128779470799648687e-06,1.974411578080450411e-07
3.209523809523809668e+00,-2.956071749007638402e-06,5.234720196648701065e-06
3.210317460317460458e+00,-1.259399331879474279e-06,9.451657546092100874e-06
3.211111111111111249e+00,4.541453467480389153e-07,1.257216046873531592e-05
3.211904761904762040e+00,1.723189624542985732e-06,1.450562605481892875e-05
3.212698412698412831e+00,2.243401483752195291e-06,1.532645215865340293e-05
3.213492063492063622e+00,1.946756621154238580e-06,1.523425073159328230e-05
3.214285714285714413e+00,1.032208095940901854e-06,1.450479499033503568e-05
3.215079365079365203e+00,-6.188508906133518419e-08,1.344070934290539619e-05
3.215873015873015994e+00,-7.463140804327099516e-07,1.232792215959606023e-05
3.216666666666666785e+00,-4.230358489319350117e-07,1.139999935008843922e-05
3.217460317460317576e+00,1.341255423198747335e-06,1.080940076204202746e-05
3.218253968253968367e+00,4.647148149812512127e-06,1.060425068606747073e-05
3.219047619047619158e+00,9.147378993527479818e-06,1.071198623680180619e-05
3.219841269841269948e+00,1.403045736557715977e-05,1.093549212920760384e-05
3.220634920634920739e+00,1.813237216510868614e-05,1.096971958678524346e-05
3.221428571428571530e+00,2.017455936136660285e-05,1.044487258316389739e-05
3.222222222222222321e+00,1.908647892348962826e-05,8.995949525090815167e-06
3.223015873015873112e+00,1.433379656403473737e-05,6.349578590648086717e-06
3.223809523809523903e+00,6.153087122299391510e-06,2.410215793288127817e-06
3.224603174603174693e+00,-4.395872117826598375e-06,-2.678437815117545418e-06
3.225396825396825484e+00,-1.560461177844386116e-05,-8.521032707269261168e-06
3.226190476190476275e+00,-2.549140474028222740e-05,-1.452143915147064606e-05
3.226984126984127066e+00,-3.227800937620947642e-05,-1.999097155686498862e-05
3.227777777777777857e+00,-3.482334558960356694e-05,-2.428568384038266162e-05
3.228571428571428648e+00,-3.288142038157092911e-05,-2.693240347544998271e-05
3.229365079365079438e+00,-2.711775962007700235e-05,-2.770847996341154384e-05
3.230158730158730229e+00,-1.890476971980321232e-05,-2.665899715631456210e-05
3.230952380952381020e+00,-9.978236232341476843e-06,-2.405668318727252321e-05
3.231746031746031811e+00,-2.056072779958115531e-06,-2.032425879997082734e-05
3.232539682539682602e+00,3.493713331032997308e-06,-1.594305943302525301e-05
3.233333333333333393e+00,5.877682097222041459e-06,-1.136830216258495849e-05
3.234126984126984183e+00,4.967266796873014102e-06,-6.965365335846762300e-06
3.234920634920634974e+00,1.256100196614961379e-06,-2.975764157423032240e-06
3.235714285714285765e+00,-4.290803273350916408e-06,4.840910541264323737e-07
