Timestamp,Flexor carpi radialis,Extensor digitorum
2.000000000000000000e+00,8.559419780393218020e-06,-1.906611181708282147e-05
2.000793650793650791e+00,2.158008465001701379e-05,-1.854285038435656992e-05
2.001587301587301582e+00,3.048862888310011976e-05,-1.605647017992455918e-05
2.002380952380952372e+00,3.348131384484806609e-05,-1.223015791349206127e-05
2.003174603174603163e+00,2.974481258245716773e-05,-7.827931848309891620e-06
2.003968253968253954e+00,1.976194746611650141e-05,-3.581286009266390893e-06
2.004761904761904745e+00,5.298747888532912313e-06,-5.525970624095589140e-08
2.005555555555555536e+00,-1.094157580136408544e-05,2.427421664947073112e-06
2.006349206349206327e+00,-2.590153095410963269e-05,3.804858375773074768e-06
2.007142857142857117e+00,-3.681492401510146360e-05,4.246777021156429318e-06
2.007936507936507908e+00,-4.173312606871514100e-05,4.088680407712854560e-06
2.008730158730158699e+00,-3.981760454512487258e-05,3.739924276049025361e-06
2.009523809523809490e+00,-3.138420675032901837e-05,3.578487421483255298e-06
2.010317460317460281e+00,-1.775377025694264079e-05,3.850517727665734285e-06
2.011111111111111072e+00,-9.736029686895047800e-07,4.597033700057631327e-06
2.011904761904761862e+00,1.654607332124539387e-05,5.628890190148458408e-06
2.012698412698412653e+00,3.244072541566504504e-05,6.563699467287091035e-06
2.013492063492063444e+00,4.478200792914310651e-05,6.926660560750291806e-06
2.014285714285714235e+00,5.236720030505334145e-05,6.301185355761410877e-06
2.015079365079365026e+00,5.483946329162699390e-05,4.495030135718597233e-06
2.015873015873015817e+00,5.261965392860713808e-05,1.669956422720497445e-06
2.016666666666666607e+00,4.668726573241062632e-05,-1.620302950887672613e-06
2.017460317460317398e+00,3.828683605982962257e-05,-4.519684889260549700e-06
2.018253968253968189e+00,2.864537380927808469e-05,-6.083598940665522727e-06
2.019047619047618980e+00,1.876828453317187236e-05,-5.566627048134209892e-06
2.019841269841269771e+00,9.346821630632662386e-06,-2.697389120626194649e-06
2.020634920634920562e+00,7.737345390177695153e-07,2.155577828566002442e-06
2.021428571428571352e+00,-6.762649701202024171e-06,7.997036386019814119e-06
2.022222222222222143e+00,-1.314812370462566508e-05,1.341147259867945019e-05
2.023015873015872934e+00,-1.822029684426862618e-05,1.691035616579210628e-05
2.023809523809523725e+00,-2.169541931631554097e-05,1.731701981455606998e-05
2.024603174603174516e+00,-2.317797934392247476e-05,1.407226557673976342e-05
2.025396825396825307e+00,-2.226995976526597329e-05,7.374535833532227372e-06
2.026190476190476097e+00,-1.876598383098224861e-05,-1.868274358020938356e-06
2.026984126984126888e+00,-1.287998907413265923e-05,-1.223170348230470555e-05
2.027777777777777679e+00,-5.414361841482566693e-06,-2.203326227598387713e-05
2.028571428571428470e+00,2.224875142454112053e-06,-2.959084101492397869e-05
2.029365079365079261e+00,8.228427000807923285e-06,-3.345917248692539039e-05
2.030158730158730052e+00,1.078735072010283002e-05,-3.265400101268727163e-05
2.030952380952380842e+00,8.599860247961227313e-06,-2.686250074787263552e-05
2.031746031746031633e+00,1.320236620723637336e-06,-1.659734792507617748e-05
2.032539682539682424e+00,-1.020922227156588706e-05,-3.223073228256622162e-06
2.033333333333333215e+00,-2.403101145986359343e-05,1.120175483210586271e-05
2.034126984126984006e+00,-3.743174363615511010e-05,2.426918028525578365e-05
2.034920634920634797e+00,-4.748387378475001899e-05,3.369320435733471524e-05
2.035714285714285587e+00,-5.163548748225445614e-05,3.780350001669395365e-05
2.036507936507936378e+00,-4.823170231518926720e-05,3.594264992086841398e-05
2.037301587301587169e+00,-3.688369500682794639e-05,2.866203880695378930e-05
2.038095238095237960e+00,-1.862647139300906683e-05,1.765049282913018892e-05
2.038888888888888751e+00,4.171311354623983426e-06,5.390155712542836247e-06
2.039682539682539542e+00,2.815011262587260361e-05,-5.394259177344408469e-06
2.040476190476190332e+00,4.951615865336159855e-05,-1.236520373269633328e-05
2.041269841269841123e+00,6.472799890550745561e-05,-1.412579235674277689e-05
2.042063492063491914e+00,7.119211366638108184e-05,-1.055842262906720976e-05
2.042857142857142705e+00,6.782618806485075848e-05,-2.863096531948157217e-06
2.043650793650793496e+00,5.535351396282533955e-05,6.716236334458010245e-06
2.044444444444444287e+00,3.623155887176767028e-05,1.541226936861394607e-05
2.045238095238095077e+00,1.419290981960558899e-05,2.057602688514300460e-05
2.046031746031745868e+00,-6.526336249887388329e-06,2.028614938087502191e-05
2.046825396825396659e+00,-2.210236385824837748e-05,1.378497063150456061e-05
2.047619047619047450e+00,-2.995616909000562759e-05,1.647240905495068443e-06
2.048412698412698241e+00,-2.928019346115125419e-05,-1.434677116222402815e-05
2.049206349206349032e+00,-2.111821692310765722e-05,-3.159326394895928139e-05
2.049999999999999822e+00,-7.993974859087288860e-06,-4.720518242591013864e-05
2.050793650793650613e+00,6.780628052082520958e-06,-5.858339648041222008e-05
2.051587301587301404e+00,1.990796017946437087e-05,-6.389324483445848611e-05
2.052380952380952195e+00,2.880733645683006898e-05,-6.235298886523611694e-05
2.053174603174602986e+00,3.206799457583677768e-05,-5.429259593087392403e-05
2.053968253968253777e+00,2.958894418565380719e-05,-4.099725210480151293e-05
2.054761904761904567e+00,2.242320203134835855e-05,-2.439400741406913539e-05
2.055555555555555358e+00,1.240206182331943934e-05,-6.662198768486315613e-06
2.056349206349206149e+00,1.647179963362804469e-06,1.015087707247041958e-05
2.057142857142856940e+00,-7.912872821741534634e-06,2.444075510478228028e-05
2.057936507936507731e+00,-1.491868853555396591e-05,3.523451890041584902e-05
2.058730158730158522e+00,-1.878254576454691874e-05,4.223213061660211355e-05
2.059523809523809312e+00,-1.970347610247901601e-05,4.570233681445021520e-05
2.060317460317460103e+00,-1.852946723568973898e-05,4.626619409353387532e-05
2.061111111111110894e+00,-1.652536043313675870e-05,4.463034700056667909e-05
2.061904761904761685e+00,-1.509971447256278692e-05,4.134830455813562605e-05
2.062698412698412920e+00,-1.552497734986962703e-05,3.668183154248308100e-05
2.063492063492063711e+00,-1.867370656529551161e-05,3.060504432171696023e-05
2.064285714285714501e+00,-2.479869422260428755e-05,2.294819743283825763e-05
2.065079365079365292e+00,-3.340056483092253801e-05,1.362956571722319145e-05
2.065873015873016083e+00,-4.323634847830731755e-05,2.888566693413808581e-06
2.066666666666666874e+00,-5.250791170194020404e-05,-8.573780248660227773e-06
2.067460317460317665e+00,-5.922093401956495722e-05,-1.961348725481247999e-05
2.068253968253968456e+00,-6.163657200165881115e-05,-2.883315108868628383e-05
2.069047619047619246e+00,-5.868364648893340500e-05,-3.489225431645528227e-05
2.069841269841270037e+00,-5.019534556618577024e-05,-3.684283100577639589e-05
2.070634920634920828e+00,-3.689280172572588566e-05,-3.438481757238354716e-05
2.071428571428571619e+00,-2.013432169776535092e-05,-2.796396141266191775e-05
2.072222222222222410e+00,-1.537492806808742664e-06,-1.868986456149272337e-05
2.073015873015873201e+00,1.737845544563148401e-05,-8.108303950605904770e-06
2.073809523809523991e+00,3.540585734898238032e-05,2.103222005998100138e-06
2.074603174603174782e+00,5.166627397735771752e-05,1.044375187185342071e-05
2.075396825396825573e+00,6.547044736353386705e-05,1.584466382576821193e-05
2.076190476190476364e+00,7.612417215684732239e-05,1.783603523205682479e-05
2.076984126984127155e+00,8.280051229024714961e-05,1.659929435249895015e-05
2.077777777777777946e+00,8.456433347570688609e-05,1.289404881623584761e-05
2.078571428571428736e+00,8.056698494191207483e-05,7.868893570332969844e-06
2.079365079365079527e+00,7.035287143646192475e-05,2.797007296286667993e-06
2.080158730158730318e+00,5.416014993028929025e-05,-1.197477509222265697e-06
2.080952380952381109e+00,3.307693773625364458e-05,-3.353507713434199762e-06
2.081746031746031900e+00,8.952396543986505280e-06,-3.381355076680159857e-06
2.082539682539682691e+00,-1.593771094866260190e-05,-1.454762948579474388e-06
2.083333333333333481e+00,-3.934858037606710749e-05,1.890795327447359028e-06
2.084126984126984272e+00,-5.945703389424149548e-05,5.912512165370067544e-06
2.084920634920635063e+00,-7.503949073311246877e-05,9.822416778538254554e-06
2.085714285714285854e+00,-8.542204263466516309e-05,1.292141781472038977e-05
2.086507936507936645e+00,-9.030970273131586556e-05,1.468590740152592649e-05
2.087301587301587436e+00,-8.963511016794723884e-05,1.480561837617539249e-05
2.088095238095238226e+00,-8.351129651510249066e-05,1.318515916961081917e-05
2.088888888888889017e+00,-7.228968705958709192e-05,9.927431444735223911e-06
2.089682539682539808e+00,-5.666537172546951825e-05,5.313923255219975550e-06
2.090476190476190599e+00,-3.774879256077528784e-05,-2.128578897731489701e-07
2.091269841269841390e+00,-1.703233546511050961e-05,-6.070170407347189315e-06
2.092063492063492181e+00,3.778057315561729954e-06,-1.157054868341960244e-05
2.092857142857142971e+00,2.303150403164601717e-05,-1.598331908802497363e-05
2.093650793650793762e+00,3.941042806998155165e-05,-1.862743261771467875e-05
2.094444444444444553e+00,5.211671767982282446e-05,-1.898979193555920092e-05
2.095238095238095344e+00,6.090650528913175299e-05,-1.684852723928402618e-05
2.096031746031746135e+00,6.598407814661981464e-05,-1.236794245737161024e-05
2.096825396825396925e+00,6.782194859358906805e-05,-6.129206038081832486e-06
2.097619047619047716e+00,6.698866021663207296e-05,9.273669272644473869e-07
2.098412698412698507e+00,6.403806790973051819e-05,7.649834569515350457e-06
2.099206349206349298e+00,5.946913306434104939e-05,1.288850336821001660e-05
2.100000000000000089e+00,5.373334236001708772e-05,1.573453045230948700e-05
2.100793650793650880e+00,4.725853631896128135e-05,1.573403091810784187e-05
2.101587301587301670e+00,4.046436378565524295e-05,1.302968636251904085e-05
2.102380952380952461e+00,3.375431620753888124e-05,8.388376471192095961e-06
2.103174603174603252e+00,2.747935813799857893e-05,3.085747947637369341e-06
2.103968253968254043e+00,2.187947752036457409e-05,-1.357434721859454870e-06
2.104761904761904834e+00,1.701965641778113765e-05,-3.552714263629666988e-06
2.105555555555555625e+00,1.274152975420122373e-05,-2.652110958907022498e-06
2.106349206349206415e+00,8.650624552080225815e-06,1.333341221270606416e-06
2.107142857142857206e+00,4.154904709776659601e-06,7.426261478772862265e-06
2.107936507936507997e+00,-1.434576945977467664e-06,1.385952090790329601e-05
2.108730158730158788e+00,-8.739760167705687481e-06,1.851943046663770428e-05
2.109523809523809579e+00,-1.810804348380200168e-05,1.953859597199363349e-05
2.110317460317460370e+00,-2.941062316703321552e-05,1.585525017480896595e-05
2.111111111111111160e+00,-4.191834283847087702e-05,7.556214453059100437e-06
2.111904761904761951e+00,-5.432031564898134001e-05,-4.107790820694838096e-06
2.112698412698412742e+00,-6.490978435534050885e-05,-1.703152121931158732e-05
2.113492063492063533e+00,-7.190317386387415008e-05,-2.877772193050022581e-05
2.114285714285714324e+00,-7.381044867995224107e-05,-3.714304682151756284e-05
2.115079365079365115e+00,-6.975978598268278155e-05,-4.060877552620103929e-05
2.115873015873015905e+00,-5.970062344183474547e-05,-3.858288122202324026e-05
2.116666666666666696e+00,-4.444989181548134754e-05,-3.142128676382564676e-05
2.117460317460317487e+00,-2.558290554301351249e-05,-2.027622011460938754e-05
2.118253968253968278e+00,-5.191176289109555472e-06,-6.841387045471159284e-06
2.119047619047619069e+00,1.445795802510390976e-05,6.944402208319075109e-06
2.119841269841269860e+00,3.130674521945592931e-05,1.919020411116373556e-05
2.120634920634920650e+00,4.386031025398595803e-05,2.830883925132560126e-05
2.121428571428571441e+00,5.141874745480158615e-05,3.320974038201410651e-05
2.122222222222222232e+00,5.411907976741660460e-05,3.341445894021956336e-05
2.123015873015873023e+00,5.277274417833472070e-05,2.909519645794755784e-05
2.123809523809523814e+00,4.855326576605226651e-05,2.104396849066563350e-05
2.124603174603174605e+00,4.264117143869826013e-05,1.057393875929873262e-05
2.125396825396825395e+00,3.594410308296985384e-05,-6.539870068928822983e-07
2.126190476190476186e+00,2.897388443189629603e-05,-1.087718172183353875e-05
2.126984126984126977e+00,2.189553849541906556e-05,-1.851766035379926308e-05
2.127777777777777768e+00,1.469601669231493572e-05,-2.244879217899886054e-05
2.128571428571428559e+00,7.380545958672988805e-06,-2.218321686993159707e-05
2.129365079365079350e+00,1.043735082945152557e-07,-1.794944184156715896e-05
2.130158730158730140e+00,-6.818025949871822838e-06,-1.065074974631107389e-05
2.130952380952380931e+00,-1.303021887600251617e-05,-1.711513843672705700e-06
2.131746031746031722e+00,-1.832413387239651526e-05,7.174222219050204580e-06
2.132539682539682513e+00,-2.280755668032716091e-05,1.435386001439675353e-05
2.133333333333333304e+00,-2.694625959640760518e-05,1.852217782883445866e-05
2.134126984126984095e+00,-3.142037205134144348e-05,1.895156777979236466e-05
2.134920634920634885e+00,-3.681517825967245048e-05,1.560024590487181948e-05
2.135714285714285676e+00,-4.325102201416680556e-05,9.088822861666305699e-06
2.136507936507936467e+00,-5.010524387932199932e-05,5.629333692101095575e-07
2.137301587301587258e+00,-5.596631995800184441e-05,-8.527692085051795731e-06
2.138095238095238049e+00,-5.888749140053921104e-05,-1.669572536850276635e-05
2.138888888888888840e+00,-5.689921661131667091e-05,-2.268121313181196502e-05
2.139682539682539630e+00,-4.863553488031197573e-05,-2.566417021035539300e-05
2.140476190476190421e+00,-3.386808744201019083e-05,-2.538619871162655728e-05
2.141269841269841212e+00,-1.375205992703270311e-05,-2.216796281825634244e-05
2.142063492063492003e+00,9.322189402293202750e-06,-1.683159612602930951e-05
2.142857142857142794e+00,3.223720622326293648e-05,-1.054546917735076013e-05
2.143650793650793585e+00,5.184926247508020176e-05,-4.609557482400634318e-06
2.144444444444444375e+00,6.565314567491327034e-05,-2.055428014972973272e-07
2.145238095238095166e+00,7.221633507533980372e-05,1.850168600036908515e-06
2.146031746031745957e+00,7.129282761628891760e-05,1.298577250864301198e-06
2.146825396825396748e+00,6.364695735005072234e-05,-1.478367199606485145e-06
2.147619047619047539e+00,5.070287825354356321e-05,-5.518958212483948510e-06
2.148412698412698330e+00,3.416349908956140447e-05,-9.487462451715014881e-06
2.149206349206349120e+00,1.571790116505262001e-05,-1.197970938321004436e-05
2.149999999999999911e+00,-3.102310198570515092e-06,-1.184952662088262465e-05
2.150793650793650702e+00,-2.092573039210322066e-05,-8.470136424022539130e-06
2.151587301587301493e+00,-3.646636456985614201e-05,-1.869744107211013359e-06
2.152380952380952284e+00,-4.846022743582810546e-05,7.275877091805949404e-06
2.153174603174603075e+00,-5.569107985131221397e-05,1.777132414271403958e-05
2.153968253968253865e+00,-5.714023406432189837e-05,2.810681514754628286e-05
2.154761904761904656e+00,-5.223688401384845079e-05,3.669686939163115786e-05
2.155555555555555447e+00,-4.113326197890537365e-05,4.212012454173447932e-05
2.156349206349206238e+00,-2.490191380382099405e-05,4.334088458515708548e-05
2.157142857142857029e+00,-5.559177372574375308e-06,3.989672243701069838e-05
2.157936507936507819e+00,1.414202226053459144e-05,3.202744255287548009e-05
2.158730158730158610e+00,3.114460688051051132e-05,2.070740166256603107e-05
2.159523809523809401e+00,4.266931111717421973e-05,7.542241329614136019e-06
2.160317460317460192e+00,4.681305057505296910e-05,-5.484414966620830927e-06
2.161111111111110983e+00,4.300671183322950133e-05,-1.638085054632317368e-05
2.161904761904761774e+00,3.219787593315934248e-05,-2.354976419582252581e-05
2.162698412698412564e+00,1.669082084694494821e-05,-2.611552354918234657e-05
2.163492063492063355e+00,-3.311888428158878348e-07,-2.408731610495770176e-05
2.164285714285714146e+00,-1.548746878950601295e-05,-1.832094307161713747e-05
2.165079365079364937e+00,-2.591583655389884431e-05,-1.029922681405634598e-05
2.165873015873015728e+00,-2.984794247829040552e-05,-1.792939135019494250e-06
2.166666666666666519e+00,-2.691224062645904125e-05,5.515048880563116816e-06
2.167460317460317309e+00,-1.810809804785393088e-05,1.035861328991570492e-05
2.168253968253968100e+00,-5.480112773466013720e-06,1.210315660028146452e-05
2.169047619047618891e+00,8.403599072079860296e-06,1.080985315387505390e-05
2.169841269841269682e+00,2.102229711880435203e-05,7.149391517079842319e-06
2.170634920634920473e+00,3.038005307901406798e-05,2.197854222462089844e-06
2.171428571428571264e+00,3.529663749304408013e-05,-2.831321266447987425e-06
2.172222222222222054e+00,3.548919619982378115e-05,-6.857976046051310669e-06
2.173015873015872845e+00,3.148098782150348610e-05,-9.152725960390388794e-06
2.173809523809523636e+00,2.440087951450373095e-05,-9.461843131366133860e-06
2.174603174603174427e+00,1.573300258000293286e-05,-8.022903817896805091e-06
2.175396825396825218e+00,7.054155187583849979e-06,-5.477708092096697500e-06
2.176190476190476009e+00,-2.235323009911619253e-07,-2.706755137851223498e-06
2.176984126984126799e+00,-5.091434381338120479e-06,-6.204495519839236223e-07
2.177777777777777590e+00,-7.139497776306294292e-06,5.249747194739971894e-08
2.178571428571428381e+00,-6.666937989192499374e-06,-1.061179709243100448e-06
2.179365079365079172e+00,-4.665823008297294058e-06,-3.878200897993025597e-06
2.180158730158729963e+00,-2.653009461883081149e-06,-7.852940751061700353e-06
2.180952380952380754e+00,-2.358316804572117298e-06,-1.207275327254652912e-05
2.181746031746031544e+00,-5.312345483086117707e-06,-1.544142985173128002e-05
2.182539682539682335e+00,-1.240954870416515873e-05,-1.691903871792068995e-05
2.183333333333333126e+00,-2.354748685528759112e-05,-1.576945769309178122e-05
2.184126984126983917e+00,-3.745166638326538622e-05,-1.175658636975946691e-05
2.184920634920634708e+00,-5.177107226488952341e-05,-5.234800732112113233e-06
2.185714285714285499e+00,-6.346557325779555200e-05,2.896508152217635859e-06
2.186507936507936289e+00,-6.941886952830109223e-05,1.136690011024664683e-05
2.187301587301587080e+00,-6.713524728358302826e-05,1.879432671859249143e-05
2.188095238095238315e+00,-5.534985119645995040e-05,2.396625166139457788e-05
2.188888888888889106e+00,-3.441072224297123073e-05,2.607643791334519610e-05
2.189682539682539897e+00,-6.355652750995173823e-06,2.486598641134822919e-05
2.190476190476190688e+00,2.532542052089953430e-05,2.064540554725580442e-05
2.191269841269841478e+00,5.620142174154714801e-05,1.420786901433999351e-05
2.192063492063492269e+00,8.160931693396459782e-05,6.668320757616863580e-06
2.192857142857143060e+00,9.745773842392218644e-05,-7.306607351676487036e-07
2.193650793650793851e+00,1.009937486596390030e-04,-6.813773376248141555e-06
2.194444444444444642e+00,9.138299457954915752e-05,-1.064786766329444671e-05
2.195238095238095433e+00,6.996237951105064266e-05,-1.168252833994277049e-05
2.196031746031746223e+00,4.007540496421786518e-05,-9.843485909995966211e-06
2.196825396825397014e+00,6.489548698172911315e-06,-5.566308978606791246e-06
2.197619047619047805e+00,-2.550123769124249063e-05,2.405118871184747534e-07
2.198412698412698596e+00,-5.109735360501428339e-05,6.310281289975567398e-06
2.199206349206349387e+00,-6.689869807940952674e-05,1.120991263218191229e-05
2.200000000000000178e+00,-7.146987756852096068e-05,1.359337216875648936e-05
2.200793650793650968e+00,-6.542840566403283992e-05,1.248063417930597878e-05
2.201587301587301759e+00,-5.106064665011020401e-05,7.505746838682839691e-06
2.202380952380952550e+00,-3.161384078514398508e-05,-9.326476961904712238e-07
2.203174603174603341e+00,-1.049547274297990123e-05,-1.167574736136269108e-05
2.203968253968254132e+00,9.396432915085891271e-06,-2.298803096061808295e-05
2.204761904761904923e+00,2.606775937277757297e-05,-3.289176053529324493e-05
2.205555555555555713e+00,3.850945530821534501e-05,-3.957195000071112462e-05
2.206349206349206504e+00,4.652236462331052101e-05,-4.174284632042039585e-05
2.207142857142857295e+00,5.040341821273191999e-05,-3.888005232848416371e-05
2.207936507936508086e+00,5.062466704798475499e-05,-3.127229419162937872e-05
2.208730158730158877e+00,4.760387041878878767e-05,-1.990788370091725639e-05
2.209523809523809668e+00,4.160734861725174180e-05,-6.253799311739585009e-06
2.210317460317460458e+00,3.277633660224350029e-05,8.003764433523088132e-06
2.211111111111111249e+00,2.124557138115861516e-05,2.120265358985444997e-05
2.211904761904762040e+00,7.315375965234824887e-06,3.190037552283159694e-05
2.212698412698412831e+00,-8.373460827273920980e-06,3.901240177577266387e-05
2.213492063492063622e+00,-2.472621740439029047e-05,4.190005277800965970e-05
2.214285714285714413e+00,-4.020179073024008498e-05,4.042265750902323412e-05
2.215079365079365203e+00,-5.296885681765732963e-05,3.496304210847044839e-05
2.215873015873015994e+00,-6.118906017265224751e-05,2.641794744946993092e-05
2.216666666666666785e+00,-6.335914871464109371e-05,1.612763412246293005e-05
2.217460317460317576e+00,-5.861948146369264030e-05,5.717430160994103089e-06
2.218253968253968367e+00,-4.694717624965801222e-05,-3.153734888066846894e-06
2.219047619047619158e+00,-2.919850760162639186e-05,-9.103437000393846092e-06
2.219841269841269948e+00,-7.025913428916890236e-06,-1.132286051514604506e-05
2.220634920634920739e+00,1.726684707782537092e-05,-9.774969931456316860e-06
2.221428571428571530e+00,4.087960184459975038e-05,-5.226451701483628583e-06
2.222222222222222321e+00,6.068553475566712172e-05,9.092107748563547850e-07
2.223015873015873112e+00,7.348511588744454346e-05,6.887160160951209744e-06
2.223809523809523903e+00,7.643465851003520422e-05,1.103091977871657387e-05
2.224603174603174693e+00,6.767826314696706472e-05,1.211880323884329077e-05
2.225396825396825484e+00,4.707319529112151890e-05,9.660817598054011475e-06
2.226190476190476275e+00,1.675028474554044047e-05,3.996912271231077312e-06
2.226984126984127066e+00,-1.880964621521404598e-05,-3.804799003611157419e-06
2.227777777777777857e+00,-5.340743752949994735e-05,-1.221603045291357199e-05
2.228571428571428648e+00,-8.044575393170482001e-05,-1.960592924070729957e-05
2.229365079365079438e+00,-9.461519271753985791e-05,-2.459609496122417628e-05
2.230158730158730229e+00,-9.340547303718534089e-05,-2.633249393681202582e-05
2.230952380952381020e+00,-7.789520835838688491e-05,-2.462220954908102817e-05
2.231746031746031811e+00,-5.250695774058360588e-05,-1.991861018098815906e-05
2.232539682539682602e+00,-2.378217559466577817e-05,-1.317561957282263243e-05
2.233333333333333393e+00,1.433325310723739273e-06,-5.622421287497601767e-06
2.234126984126984183e+00,1.782460978678421880e-05,1.477363320310245472e-06
2.234920634920634974e+00,2.291237811366417538e-05,7.029359074883704785e-06
2.235714285714285765e+00,1.746149361414944747e-05,1.025003709484382714e-05
2.236507936507936556e+00,4.920509076577483389e-06,1.074738960795552082e-05
2.237301587301587347e+00,-9.864562660493615264e-06,8.552247764009040471e-06
2.238095238095238138e+00,-2.218783431225326575e-05,4.106811645137582719e-06
2.238888888888888928e+00,-2.875057363681655600e-05,-1.792184456887015353e-06
2.239682539682539719e+00,-2.829538515994893039e-05,-8.100539158215061398e-06
2.240476190476190510e+00,-2.152418874180521771e-05,-1.368022905059309759e-05
2.241269841269841301e+00,-1.047024961317281295e-05,-1.748031320034742049e-05
2.242063492063492092e+00,2.376446506395771651e-06,-1.871264308784539935e-05
2.242857142857142883e+00,1.489235557720551987e-05,-1.698916969075789444e-05
2.243650793650793673e+00,2.587304585212825791e-05,-1.239946587799863684e-05
2.244444444444444464e+00,3.520327988677218723e-05,-5.519774910784183854e-06
2.245238095238095255e+00,4.364359793626197475e-05,2.652205322017258960e-06
2.246031746031746046e+00,5.233523951078319496e-05,1.084443717465718602e-05
2.246825396825396837e+00,6.219893050391743776e-05,1.773700913291787821e-05
2.247619047619047628e+00,7.342374503725697746e-05,2.223539067972336733e-05
2.248412698412698418e+00,8.520192802950138995e-05,2.372246283373639482e-05
2.249206349206349209e+00,9.578221664325291002e-05,2.220698046976016414e-05
2.250000000000000000e+00,1.028209214901369033e-04,1.830912555661798308e-05
2.250793650793650791e+00,1.039334280017045758e-04,1.307718251976949950e-05
2.251587301587301582e+00,9.729930396139171945e-05,7.689118086952536366e-06
2.252380952380952372e+00,8.215740464993319641e-05,3.133685943962448067e-06
2.253174603174603163e+00,5.905535364176956446e-05,-2.773180524348180492e-08
2.253968253968253954e+00,2.979594245952105105e-05,-1.746973376219536907e-06
2.254761904761904745e+00,-2.875672009236294084e-06,-2.405691714279656306e-06
2.255555555555555536e+00,-3.573036363085842101e-05,-2.604269431509321295e-06
2.256349206349206327e+00,-6.554316187383474974e-05,-2.904907324855255325e-06
2.257142857142857117e+00,-8.953959944923478218e-05,-3.619746521291244156e-06
2.257936507936507908e+00,-1.057646403194627212e-04,-4.712711409948266925e-06
2.258730158730158699e+00,-1.133363797924852084e-04,-5.840480483238880083e-06
2.259523809523809490e+00,-1.125298941232518438e-04,-6.508676180311984713e-06
2.260317460317460281e+00,-1.046490403929503307e-04,-6.280432982644803449e-06
2.261111111111111072e+00,-9.169967592338424355e-05,-4.959476317104287621e-06
2.261904761904761862e+00,-7.594680614823678217e-05,-2.683562007605201181e-06
2.262698412698412653e+00,-5.947711369335325482e-05,1.004627457063868511e-07
2.263492063492063444e+00,-4.387735749604665478e-05,2.766908305988721321e-06
2.264285714285714235e+00,-3.009120605506558537e-05,4.700714141481208837e-06
2.265079365079365026e+00,-1.845890679257403133e-05,5.484649516268727574e-06
2.265873015873015817e+00,-8.894939680977823415e-06,5.026737716692219569e-06
2.266666666666666607e+00,-1.126539907533108304e-06,3.590666478405825277e-06
2.267460317460317398e+00,5.093559559180581680e-06,1.721996700247445728e-06
2.268253968253968189e+00,9.868164491198781548e-06,9.378115950263987813e-08
2.269047619047618980e+00,1.315525211187349901e-05,-6.827299952491137742e-07
2.269841269841269771e+00,1.486167752310280549e-05,-2.294889166025867403e-07
2.270634920634920562e+00,1.497478020983933243e-05,1.489635471422369511e-06
2.271428571428571352e+00,1.367367105443980013e-05,4.148864193996527716e-06
2.272222222222222143e+00,1.138174014098494022e-05,7.131275770222645791e-06
2.273015873015872934e+00,8.745679563572105166e-06,9.668886855243754211e-06
2.273809523809523725e+00,6.543080045959846315e-06,1.101479281443964267e-05
2.274603174603174516e+00,5.533075736139204448e-06,1.060766055591243686e-05
2.275396825396825307e+00,6.279837287932739812e-06,8.197863336160346605e-06
2.276190476190476097e+00,8.996094146672654150e-06,3.916065521921343411e-06
2.276984126984126888e+00,1.346203343335666659e-05,-1.727566512409651448e-06
2.277777777777777679e+00,1.906107685019081875e-05,-7.919950956788005713e-06
2.278571428571428470e+00,2.493557279024073898e-05,-1.369361338032956475e-05
2.279365079365079261e+00,3.021576619440584526e-05,-1.812515849780221074e-05
2.280158730158730052e+00,3.423891626965038974e-05,-2.054054928107038213e-05
2.280952380952380842e+00,3.667371506227290202e-05,-2.067076755140099818e-05
2.281746031746031633e+00,3.750253524243441378e-05,-1.870741484952790799e-05
2.282539682539682424e+00,3.687288629586657458e-05,-1.523631286707521177e-05
2.283333333333333215e+00,3.488147277825614004e-05,-1.106792714340530722e-05
2.284126984126984006e+00,3.137911023417638660e-05,-7.018188514059229245e-06
2.284920634920634797e+00,2.587900066072053299e-05,-3.707633564388548491e-06
2.285714285714285587e+00,1.762193461697107160e-05,-1.436934719351337205e-06
2.286507936507936378e+00,5.809004007450996360e-06,-1.683584674264469738e-07
2.287301587301587169e+00,-1.003648507148979608e-05,3.934554476124219520e-07
2.288095238095237960e+00,-2.966252117928220769e-05,6.589138454120877627e-07
2.288888888888888751e+00,-5.175660006614963275e-05,1.002146842749090729e-06
2.289682539682539542e+00,-7.382122412456615216e-05,1.650264347737322965e-06
2.290476190476190332e+00,-9.236914882481376968e-05,2.642472152009560350e-06
2.291269841269841123e+00,-1.034844783559161308e-04,3.860069450391330530e-06
2.292063492063491914e+00,-1.036816026595495420e-04,5.102229229447792521e-06
2.292857142857142705e+00,-9.086044219595680658e-05,6.167901864426917992e-06
2.293650793650793496e+00,-6.506565569334506638e-05,6.906759897559522216e-06
2.294444444444444287e+00,-2.877406311140554926e-05,7.221032037987637921e-06
2.295238095238095077e+00,1.342608878954959560e-05,7.027212251146019061e-06
2.296031746031745868e+00,5.569566141155570031e-05,6.209228159393254488e-06
2.296825396825396659e+00,9.210294414374767355e-05,4.601533832358783485e-06
2.297619047619047450e+00,1.177680125378340807e-04,2.028097826952592374e-06
2.298412698412698241e+00,1.297257922976459974e-04,-1.602856592882922388e-06
2.299206349206349032e+00,1.273541087254576336e-04,-6.176573425071593688e-06
2.299999999999999822e+00,1.123338495136052097e-04,-1.126881950399191510e-05
2.300793650793650613e+00,8.819617245012874220e-05,-1.611164303566527532e-05
2.301587301587301404e+00,5.956355922736824893e-05,-1.966244199521171416e-05
2.302380952380952195e+00,3.122690879094960767e-05,-2.078284099376608734e-05
2.303174603174602986e+00,7.231147864433370097e-06,-1.850018265926446593e-05
2.303968253968253777e+00,-9.845102215369745202e-06,-1.229484060073160470e-05
2.304761904761904567e+00,-1.925684815705382990e-05,-2.339451082112992086e-06
2.305555555555555358e+00,-2.202365044952118856e-05,1.038457819788562299e-05
2.306349206349206149e+00,-2.045078689589503805e-05,2.415187473958027253e-05
2.307142857142856940e+00,-1.737823676874096439e-05,3.676280671094178605e-05
2.307936507936507731e+00,-1.536800845691633575e-05,4.598512029961582389e-05
2.308730158730158522e+00,-1.604827356493656218e-05,5.006705975430333937e-05
2.309523809523809312e+00,-1.977443214290116921e-05,4.817514047898965916e-05
2.310317460317460103e+00,-2.566716194194827835e-05,4.061883395714549065e-05
2.311111111111110894e+00,-3.198108955105211814e-05,2.879209852917396370e-05
2.311904761904761685e+00,-3.667415488526132241e-05,1.485265750001207329e-05
2.312698412698412920e+00,-3.800463137363656356e-05,1.231422471297463216e-06
2.313492063492063711e+00,-3.498912536879490129e-05,-9.902034260900871628e-06
2.314285714285714501e+00,-2.760973035962435118e-05,-1.709109700268319525e-05
2.315079365079365292e+00,-1.674515181410923009e-05,-1.985651336054288855e-05
2.315873015873016083e+00,-3.888100425547185237e-06,-1.871356451595077499e-05
2.316666666666666874e+00,9.233002335231889720e-06,-1.494545004817219624e-05
2.317460317460317665e+00,2.100399940338516837e-05,-1.020417117642114066e-05
2.318253968253968456e+00,3.016115041096855979e-05,-6.057916230628690572e-06
2.319047619047619246e+00,3.588735941640552955e-05,-3.612844867025736431e-06
2.319841269841270037e+00,3.779537903228510454e-05,-3.304977136560257852e-06
2.320634920634920828e+00,3.585329638885618374e-05,-4.897596127568034219e-06
2.321428571428571619e+00,3.030743417648186605e-05,-7.653530117064299493e-06
2.322222222222222410e+00,2.163661822701838043e-05,-1.060465375625943332e-05
2.323015873015873201e+00,1.054199129893120559e-05,-1.282922138466324330e-05
2.323809523809523991e+00,-2.049262765617466206e-06,-1.366893510893292758e-05
2.324603174603174782e+00,-1.499943641947679653e-05,-1.285302777070270971e-05
2.325396825396825573e+00,-2.702124154552654192e-05,-1.052576651234112616e-05
2.326190476190476364e+00,-3.679071709264441814e-05,-7.189118113991562470e-06
2.326984126984127155e+00,-4.309964698560950490e-05,-3.578928271845326078e-06
2.327777777777777946e+00,-4.502757555260549481e-05,-4.980945362091323540e-07
2.328571428571428736e+00,-4.211597002203559521e-05,1.363831824265731603e-06
2.329365079365079527e+00,-3.452658826806090603e-05,1.590445639167864474e-06
2.330158730158730318e+00,-2.315292020101364546e-05,1.434445260269471616e-07
2.330952380952381109e+00,-9.634138875384380479e-06,-2.613971282457191637e-06
2.331746031746031900e+00,3.784849440122326745e-06,-5.986000077286436170e-06
2.332539682539682691e+00,1.457850071576201329e-05,-9.094606455921681477e-06
2.333333333333333481e+00,2.042554874040429362e-05,-1.107932132764730419e-05
2.334126984126984272e+00,1.976023147825187729e-05,-1.129996488516660440e-05
2.334920634920635063e+00,1.224628160764258953e-05,-9.492556636070120988e-06
2.335714285714285854e+00,-9.788238735061036085e-07,-5.838903032065742568e-06
2.336507936507936645e+00,-1.740393906892495594e-05,-9.326480447584118889e-07
2.337301587301587436e+00,-3.362551959250148172e-05,4.347828195841498440e-06
2.338095238095238226e+00,-4.614055999308156424e-05,9.026413622823420378e-06
2.338888888888889017e+00,-5.226594343808275159e-05,1.223180615090444400e-05
2.339682539682539808e+00,-5.091415042513972527e-05,1.337195763165626438e-05
2.340476190476190599e+00,-4.295493070051921864e-05,1.224534649601407641e-05
2.341269841269841390e+00,-3.100466835494992626e-05,9.067436375920044775e-06
2.342063492063492181e+00,-1.867661846684986533e-05,4.408375333061057732e-06
2.342857142857142971e+00,-9.513326422744120521e-06,-9.411543575280852414e-07
2.343650793650793762e+00,-5.929315827982410042e-06,-6.139627337886068469e-06
2.344444444444444553e+00,-8.487318970254286097e-06,-1.045342180316089067e-05
2.345238095238095344e+00,-1.572945659986531332e-05,-1.336386498654831397e-05
2.346031746031746135e+00,-2.461818276122364600e-05,-1.460335903414275392e-05
2.346825396825396925e+00,-3.145100690742261930e-05,-1.412926736509655547e-05
2.347619047619047716e+00,-3.295610091606795641e-05,-1.206448732464635182e-05
2.348412698412698507e+00,-2.721973965707536624e-05,-8.637533117330057034e-06
2.349206349206349298e+00,-1.417394920853724730e-05,-4.144518003280705090e-06
2.350000000000000089e+00,4.452355514914899893e-06,1.060957024078918745e-06
2.350793650793650880e+00,2.563010102456685896e-05,6.558903676893785985e-06
2.351587301587301670e+00,4.577190438643482698e-05,1.185318121511489791e-05
2.352380952380952461e+00,6.150409182400675800e-05,1.638060516088272819e-05
2.353174603174603252e+00,7.031551841577583643e-05,1.955301096070500392e-05
2.353968253968254043e+00,7.100638137232191042e-05,2.083625176944438879e-05
2.354761904761904834e+00,6.390499411332715616e-05,1.985812639211073484e-05
2.355555555555555625e+00,5.082790156424757351e-05,1.652410138029357085e-05
2.356349206349206415e+00,3.476127447241178010e-05,1.110740434466105949e-05
2.357142857142857206e+00,1.927674454954884871e-05,4.275067448034758446e-06
2.357936507936507997e+00,7.769485898795071063e-06,-2.978723180707185454e-06
2.358730158730158788e+00,2.687164491604889860e-06,-9.494968213994041799e-06
2.359523809523809579e+00,4.953056388684238128e-06,-1.417756684908533510e-05
2.360317460317460370e+00,1.374220028558610486e-05,-1.622880970236176035e-05
2.361111111111111160e+00,2.666342743246347265e-05,-1.532658407992684154e-05
2.361904761904761951e+00,4.028883051897332761e-05,-1.169290036119211240e-05
2.362698412698412742e+00,5.090065428576042854e-05,-6.037436761953459083e-06
2.363492063492063533e+00,5.529692330026184853e-05,6.020670196934203757e-07
2.364285714285714324e+00,5.149260882613094982e-05,7.073885819866505027e-06
2.365079365079365115e+00,3.916607867874523152e-05,1.232527531600949884e-05
2.365873015873015905e+00,1.974370579540621362e-05,1.557032412201177701e-05
2.366666666666666696e+00,-3.900583608217523371e-06,1.638957687344903930e-05
2.367460317460317487e+00,-2.804777422227336303e-05,1.475850594088123632e-05
2.368253968253968278e+00,-4.887441796109597670e-05,1.101576813501779678e-05
2.369047619047619069e+00,-6.315251395326142722e-05,5.788227505732431135e-06
2.369841269841269860e+00,-6.877497743584137400e-05,-1.115006608253179849e-07
2.370634920634920650e+00,-6.503820064687506057e-05,-5.804633020728266442e-06
2.371428571428571441e+00,-5.266627517206917230e-05,-1.047587785052252769e-05
2.372222222222222232e+00,-3.360092514357140066e-05,-1.350195981195192069e-05
2.373015873015873023e+00,-1.061671815663164405e-05,-1.455776021560466291e-05
2.373809523809523814e+00,1.314950362518495046e-05,-1.367188023176412567e-05
2.374603174603174605e+00,3.465583170157746047e-05,-1.120919116474362028e-05
2.375396825396825395e+00,5.131886579132001090e-05,-7.778109617898526368e-06
2.376190476190476186e+00,6.124754813604549612e-05,-4.085758721982124106e-06
2.376984126984126977e+00,6.336102452898300329e-05,-7.812522232117185867e-07
2.377777777777777768e+00,5.743428451397494003e-05,1.671385506011731343e-06
2.378571428571428559e+00,4.411132032726814729e-05,3.061283457907668059e-06
2.379365079365079350e+00,2.489290950168532735e-05,3.429154636541952333e-06
2.380158730158730140e+00,2.063505757767306653e-06,3.005404653313720565e-06
2.380952380952380931e+00,-2.150525471543109478e-05,2.114098237341826997e-06
2.381746031746031722e+00,-4.272017663683905057e-05,1.077533349555329425e-06
2.382539682539682513e+00,-5.877497859906229556e-05,1.514362350815953578e-07
2.383333333333333304e+00,-6.767998662595790793e-05,-4.969763279120932942e-07
2.384126984126984095e+00,-6.864079621915710101e-05,-7.777666898436956001e-07
2.384920634920634885e+00,-6.215464381962547554e-05,-6.567145613671363562e-07
2.385714285714285676e+00,-4.980380184035141094e-05,-1.435168654490208877e-07
2.386507936507936467e+00,-3.383592640703654320e-05,7.044842496934692889e-07
2.387301587301587258e+00,-1.667587735607290275e-05,1.772278417934367881e-06
2.388095238095238049e+00,-5.017526714670920347e-07,2.887063698168561343e-06
2.388888888888888840e+00,1.303563005147887265e-05,3.840768100262543411e-06
2.389682539682539630e+00,2.293139553578152760e-05,4.436752285613654245e-06
2.390476190476190421e+00,2.880834857404606438e-05,4.548572773619000004e-06
2.391269841269841212e+00,3.080574893736535882e-05,4.168856342771396546e-06
2.392063492063492003e+00,2.942164160167121443e-05,3.425434905492184317e-06
2.392857142857142794e+00,2.535243996898793928e-05,2.551634885328404068e-06
2.393650793650793585e+00,1.936857306405746871e-05,1.815410824079993050e-06
2.394444444444444375e+00,1.225232244639253613e-05,1.431145064298027843e-06
2.395238095238095166e+00,4.798192663399315292e-06,1.489067854066546008e-06
2.396031746031745957e+00,-2.157599365375514716e-06,1.932639877121067746e-06
2.396825396825396748e+00,-7.737633522870164239e-06,2.593451765480930136e-06
2.397619047619047539e+00,-1.111192287606270738e-05,3.265455864112525254e-06
2.398412698412698330e+00,-1.169427726593399274e-05,3.780475584143678814e-06
2.399206349206349120e+00,-9.396322435026941894e-06,4.047087376840544379e-06
2.399999999999999911e+00,-4.819610725396912260e-06,4.036726538897884734e-06
2.400793650793650702e+00,7.519178809497290333e-07,3.732630481668109503e-06
2.401587301587301493e+00,5.627705116975596300e-06,3.080082062556509856e-06
2.402380952380952284e+00,8.191594631822785103e-06,1.975951064499049529e-06
2.403174603174603075e+00,7.412000669765934759e-06,3.116684955211506570e-07
2.403968253968253865e+00,3.179615214956610148e-06,-1.949035034205321765e-06
2.404761904761904656e+00,-3.659937755493093187e-06,-4.698722630623541334e-06
2.405555555555555447e+00,-1.158806724044791337e-05,-7.661951200982623951e-06
2.406349206349206238e+00,-1.889619417709412905e-05,-1.043657958841184713e-05
2.407142857142857029e+00,-2.418352209143226334e-05,-1.258783729626866337e-05
2.407936507936507819e+00,-2.669249323307992957e-05,-1.375915919726972115e-05
2.408730158730158610e+00,-2.638844795647180111e-05,-1.375961960066354644e-05
2.409523809523809401e+00,-2.380437728242554751e-05,-1.260109405392454394e-05
2.410317460317460192e+00,-1.976127243842365727e-05,-1.047911633624675355e-05
2.411111111111110983e+00,-1.510010301283792055e-05,-7.709604086767118407e-06
2.411904761904761774e+00,-1.051846543782507452e-05,-4.644099764937121385e-06
2.412698412698412564e+00,-6.527756025144115491e-06,-1.589036361202086419e-06
2.413492063492063355e+00,-3.486753171920965661e-06,1.248422525251914010e-06
2.414285714285714146e+00,-1.653624485677005612e-06,3.773748380520304943e-06
2.415079365079364937e+00,-1.218427754586145679e-06,5.976832935479930387e-06
2.415873015873015728e+00,-2.302276330056064973e-06,7.876300627350562509e-06
2.416666666666666519e+00,-4.922646727643044421e-06,9.459542370812850067e-06
2.417460317460317309e+00,-8.932043981410805444e-06,1.063988755849571116e-05
2.418253968253968100e+00,-1.394820783711780203e-05,1.124277813564912470e-05
2.419047619047618891e+00,-1.930717022045408204e-05,1.102373422546119755e-05
2.419841269841269682e+00,-2.407480260974893967e-05,9.716419696576129077e-06
2.420634920634920473e+00,-2.713930289778657021e-05,7.106066486841503736e-06
2.421428571428571264e+00,-2.738176460176649447e-05,3.117581548253773187e-06
2.422222222222222054e+00,-2.389888200469297581e-05,-2.100964012970041808e-06
2.423015873015872845e+00,-1.623795309073787336e-05,-8.125972023556360513e-06
2.423809523809523636e+00,-4.595424508209010931e-06,-1.426434490280321127e-05
2.424603174603174427e+00,1.007684001505235915e-05,-1.963524326230096614e-05
2.425396825396825218e+00,2.611156116187620481e-05,-2.332319868896031096e-05
2.426190476190476009e+00,4.134468918514007125e-05,-2.457060079254285852e-05
2.426984126984126799e+00,5.350168054281821315e-05,-2.295706612132819075e-05
2.427777777777777590e+00,6.068627326925740299e-05,-1.851177537441976346e-05
2.428571428571428381e+00,6.185865656356141556e-05,-1.172413911867186392e-05
2.429365079365079172e+00,5.716433356789082151e-05,-3.448956228593249981e-06
2.430158730158729963e+00,4.798808761824115566e-05,5.267927640023842593e-06
2.430952380952380754e+00,3.667231692687196383e-05,1.339810502179042065e-05
2.431746031746031544e+00,2.594828716180473099e-05,2.012346334501325016e-05
2.432539682539682335e+00,1.824139133982649450e-05,2.497274894018141483e-05
2.433333333333333126e+00,1.506889651213752755e-05,2.787722800472149508e-05
2.434126984126983917e+00,1.671638573397633292e-05,2.913658410553840558e-05
2.434920634920634708e+00,2.227253182472394808e-05,2.929988239003535294e-05
2.435714285714285499e+00,2.997276901429963116e-05,2.898249540106447156e-05
2.436507936507936289e+00,3.770625422291100034e-05,2.866059061995240007e-05
2.437301587301587080e+00,4.351246263772951689e-05,2.850171884212371145e-05
2.438095238095238315e+00,4.593670437838844988e-05,2.828873934130988888e-05
2.438888888888889106e+00,4.419571914352438612e-05,2.746871620383477608e-05
2.439682539682539897e+00,3.817715225682904258e-05,2.531770702191130139e-05
2.440476190476190688e+00,2.833046981333721200e-05,2.117399656797222356e-05
2.441269841269841478e+00,1.550671517032483363e-05,1.467088831931696151e-05
2.442063492063492269e+00,7.919586667021682745e-07,5.900857450484663075e-06
2.442857142857143060e+00,-1.463354709236317119e-05,-4.537288826572161091e-06
2.443650793650793851e+00,-2.959398843889564978e-05,-1.562340862148433178e-05
2.444444444444444642e+00,-4.297958272801536024e-05,-2.610974554396747405e-05
2.445238095238095433e+00,-5.379707927574865154e-05,-3.476880092428199110e-05
2.446031746031746223e+00,-6.123949324746998232e-05,-4.063006215021194726e-05
2.446825396825397014e+00,-6.478486736757992223e-05,-4.315189482456406974e-05
2.447619047619047805e+00,-6.429886988810001544e-05,-4.229813275161506690e-05
2.448412698412698596e+00,-6.009135853069250496e-05,-3.851224879820446412e-05
2.449206349206349387e+00,-5.288315354573162554e-05,-3.260193382213564091e-05
2.450000000000000178e+00,-4.367592298771168913e-05,-2.556342108619918610e-05
2.450793650793650968e+00,-3.356338767536400970e-05,-1.838575666827788456e-05
2.451587301587301759e+00,-2.354828805827207207e-05,-1.187844404654304422e-05
2.452380952380952550e+00,-1.442311414095632229e-05,-6.561147837766097626e-06
2.453174603174603341e+00,-6.740791873176668589e-06,-2.639321220305150161e-06
2.453968253968254132e+00,-8.625687233083025762e-07,-6.325999415831152002e-08
2.454761904761904923e+00,2.959896029660841258e-06,1.362097150783530132e-06
2.455555555555555713e+00,4.523425805659108606e-06,1.867093082496502955e-06
2.456349206349206504e+00,3.677748180197731189e-06,1.651674853442614043e-06
2.457142857142857295e+00,4.073135024375008390e-07,8.832402929776334768e-07
2.457936507936508086e+00,-5.041217781092951838e-06,-2.539561160746359095e-07
2.458730158730158877e+00,-1.205065862335673473e-05,-1.493106010437502191e-06
2.459523809523809668e+00,-1.961045544615154019e-05,-2.446746623424837892e-06
2.460317460317460458e+00,-2.641058883129529332e-05,-2.632157621413311717e-06
2.461111111111111249e+00,-3.103082282614838902e-05,-1.572440757469784494e-06
2.461904761904762040e+00,-3.216601123955970139e-05,1.048831984737869882e-06
2.462698412698412831e+00,-2.882798977704341344e-05,5.233661028090358985e-06
2.463492063492063622e+00,-2.049674200817919206e-05,1.058228193552515757e-05
2.464285714285714413e+00,-7.227585403617380017e-06,1.631819044532951854e-05
2.465079365079365203e+00,1.027140514801168066e-05,2.142833800948685041e-05
2.465873015873015994e+00,3.059836541330562620e-05,2.488083541265364855e-05
2.466666666666666785e+00,5.168724352460325549e-05,2.586304468055580422e-05
2.467460317460317576e+00,7.095457927388433843e-05,2.398204031782726121e-05
2.468253968253968367e+00,8.559769533260205745e-05,1.937624868672404110e-05
2.469047619047619158e+00,9.304205718695750227e-05,1.270218669307391635e-05
2.469841269841269948e+00,9.148088630924240011e-05,4.991976202850426675e-06
2.470634920634920739e+00,8.039030013951145104e-05,-2.578775347481312731e-06
2.471428571428571530e+00,6.085972022323948123e-05,-8.939463057671581775e-06
2.472222222222222321e+00,3.557703565544304345e-05,-1.331443812812860182e-05
2.473015873015873112e+00,8.375386860597542439e-06,-1.531204200627093049e-05
2.473809523809523903e+00,-1.661258230336945613e-05,-1.491740948793410529e-05
2.474603174603174693e+00,-3.597587098626035606e-05,-1.242769438558936881e-05
2.475396825396825484e+00,-4.788622074087305140e-05,-8.372450058687465265e-06
2.476190476190476275e+00,-5.248447075060154622e-05,-3.440618801476980398e-06
2.476984126984127066e+00,-5.165115574841076801e-05,1.590834708711963582e-06
2.477777777777777857e+00,-4.826165740927497813e-05,5.942860940244944638e-06
2.478571428571428648e+00,-4.521009658555749335e-05,8.940652399552470912e-06
2.479365079365079438e+00,-4.453550835453973060e-05,1.012468005997481168e-05
2.480158730158730229e+00,-4.690440925895808630e-05,9.335811141188301473e-06
2.480952380952381020e+00,-5.155644885172265481e-05,6.746030926829730639e-06
2.481746031746031811e+00,-5.667141518036017753e-05,2.823145614695253745e-06
2.482539682539682602e+00,-6.000585224630092777e-05,-1.761033421592932972e-06
2.483333333333333393e+00,-5.958846047593679930e-05,-6.254296794619546583e-06
2.484126984126984183e+00,-5.426352098835664841e-05,-9.949967515007293408e-06
2.484920634920634974e+00,-4.393857283006892019e-05,-1.228996084517862931e-05
2.485714285714285765e+00,-2.950942051658271483e-05,-1.292908637567875274e-05
2.486507936507936556e+00,-1.255057009288238481e-05,-1.175638258301215644e-05
2.487301587301587347e+00,5.082554563353943598e-06,-8.881467989688944661e-06
2.488095238095238138e+00,2.160979694643490643e-05,-4.602366787480499010e-06
2.488888888888888928e+00,3.557666066894689757e-05,6.293528770289909877e-07
2.489682539682539719e+00,4.600406837010980084e-05,6.240512194211060055e-06
2.490476190476190510e+00,5.247670272758742121e-05,1.157277628943925545e-05
2.491269841269841301e+00,5.519269085712643946e-05,1.593763290776957235e-05
2.492063492063492092e+00,5.495026429107998858e-05,1.869843390727187794e-05
2.492857142857142883e+00,5.301568910975897438e-05,1.937261444119953979e-05
2.493650793650793673e+00,5.083834780693834388e-05,1.773088243436763046e-05
2.494444444444444464e+00,4.964815935754925423e-05,1.386317228903210197e-05
2.495238095238095255e+00,5.004483638739870837e-05,8.187611235637099602e-06
2.496031746031746046e+00,5.172159512777889362e-05,1.395008939627970651e-06
2.496825396825396837e+00,5.343782666773828796e-05,-5.660103058001473098e-06
2.497619047619047628e+00,5.327948757419479343e-05,-1.209738237105001740e-05
2.498412698412698418e+00,4.915628783550341266e-05,-1.714861921785377634e-05
2.499206349206349209e+00,3.941286698652587397e-05,-2.027038680871829276e-05
2.500000000000000000e+00,2.339398244779345508e-05,-2.121349035916048788e-05
2.500793650793650791e+00,1.806746929118055726e-06,-2.003962046242225382e-05
2.501587301587301582e+00,-2.323275724553748852e-05,-1.708460335791838031e-05
2.502380952380952372e+00,-4.850121562498325685e-05,-1.287707459806709210e-05
2.503174603174603163e+00,-7.025494853824815883e-05,-8.029262051306836013e-06
2.503968253968253954e+00,-8.495818912346883404e-05,-3.121140119301366715e-06
2.504761904761904745e+00,-8.997347870709271117e-05,1.399088846382678751e-06
2.505555555555555536e+00,-8.405651601209563836e-05,5.276181538617309282e-06
2.506349206349206327e+00,-6.756378466650866553e-05,8.454319398165385674e-06
2.507142857142857117e+00,-4.236100368254033273e-05,1.102461081333992832e-05
2.507936507936507908e+00,-1.148650369014682013e-05,1.312657397725725637e-05
2.508730158730158699e+00,2.133602423761408288e-05,1.483377593122616225e-05
2.509523809523809490e+00,5.222959054869842068e-05,1.606421734511849991e-05
2.510317460317460281e+00,7.765184556619919110e-05,1.655344109050873515e-05
2.511111111111111072e+00,9.478591769054239369e-05,1.591063830472963397e-05
2.511904761904761862e+00,1.018198254300774474e-04,1.374956365071943812e-05
2.512698412698412653e+00,9.812546648141987082e-05,9.856883353790726098e-06
2.513492063492063444e+00,8.434924643836587725e-05,4.342853883599385988e-06
2.514285714285714235e+00,6.240259907577197106e-05,-2.278607471101862678e-06
2.515079365079365026e+00,3.530815896449193469e-05,-9.112231372010875542e-06
2.515873015873015817e+00,6.845466453111733073e-06,-1.500785485912763576e-05
2.516666666666666607e+00,-1.902566817874607190e-05,-1.876651314113747762e-05
2.517460317460317398e+00,-3.890345099671425460e-05,-1.938590706518846809e-05
2.518253968253968189e+00,-5.068391366942659768e-05,-1.629857884004816781e-05
2.519047619047618980e+00,-5.408186236281413943e-05,-9.554694736774514794e-06
2.519841269841269771e+00,-5.073993544320709034e-05,9.598351994222012422e-08
2.520634920634920562e+00,-4.385037483573913682e-05,1.125782074767000815e-05
2.521428571428571352e+00,-3.736972741647425140e-05,2.209153144277129939e-05
2.522222222222222143e+00,-3.502750166563610402e-05,3.064423114363227667e-05
2.523015873015872934e+00,-3.937215676749543733e-05,3.524672728097195154e-05
2.523809523809523725e+00,-5.106875425507274602e-05,3.488319480926734830e-05
2.524603174603174516e+00,-6.859933737133647278e-05,2.942878641294149113e-05
2.525396825396825307e+00,-8.844791333821784302e-05,1.968044903059725209e-05
2.526190476190476097e+00,-1.057758563054663772e-04,7.169782936461167392e-06
2.526984126984126888e+00,-1.154947285792866802e-04,-6.182855700553407649e-06
2.527777777777777679e+00,-1.135226140933451192e-04,-1.846828694992910604e-05
2.528571428571428470e+00,-9.790458016200872875e-05,-2.813383701835454271e-05
2.529365079365079261e+00,-6.945302255514125415e-05,-3.419850116635976859e-05
2.530158730158730052e+00,-3.167050682869100190e-05,-3.631384457381220225e-05
2.530952380952380842e+00,1.005755635068317984e-05,-3.469521009977056766e-05
2.531746031746031633e+00,4.976069535760366204e-05,-2.997706826658989531e-05
2.532539682539682424e+00,8.226736679967890434e-05,-2.304828680397756044e-05
2.533333333333333215e+00,1.042630609845013448e-04,-1.490221121830503864e-05
2.534126984126984006e+00,1.147505815334773084e-04,-6.509586836539843323e-06
2.534920634920634797e+00,1.148613173178179468e-04,1.290872587227758880e-06
2.535714285714285587e+00,1.071772288263387848e-04,7.882531581465705088e-06
2.536507936507936378e+00,9.484579468330999233e-05,1.292530561775375269e-05
2.537301587301587169e+00,8.077168369422032753e-05,1.635441816662217503e-05
2.538095238095237960e+00,6.707593018302666378e-05,1.831576688939723103e-05
2.538888888888888751e+00,5.488677156615100628e-05,1.905206537609963464e-05
2.539682539682539542e+00,4.442051371760683627e-05,1.877424190606436682e-05
2.540476190476190332e+00,3.525165768282824701e-05,1.756139027970738612e-05
2.541269841269841123e+00,2.665861951186770327e-05,1.532409064485682200e-05
2.542063492063491914e+00,1.794985858689541482e-05,1.184345458321200671e-05
2.542857142857142705e+00,8.706914522974270394e-06,6.873192837092298494e-06
2.543650793650793496e+00,-1.087868576902330576e-06,2.751390650957391386e-07
2.544444444444444287e+00,-1.104585332619355706e-05,-7.846813818972508945e-06
2.545238095238095077e+00,-2.047544566485295892e-05,-1.704677867377606517e-05
2.546031746031745868e+00,-2.856261329186703389e-05,-2.649732578136168625e-05
2.546825396825396659e+00,-3.458106300402015942e-05,-3.503018725023127278e-05
2.547619047619047450e+00,-3.807614466921724501e-05,-4.126952763076777251e-05
2.548412698412698241e+00,-3.897255823725713232e-05,-4.385662816096600722e-05
2.549206349206349032e+00,-3.757901979225126672e-05,-4.173996470924167793e-05
2.549999999999999822e+00,-3.449664077560634555e-05,-3.447121889074842487e-05
2.550793650793650613e+00,-3.046774872217211628e-05,-2.242140988445966024e-05
2.551587301587301404e+00,-2.621516813505693871e-05,-6.832401553205902729e-06
2.552380952380952195e+00,-2.231485239298257653e-05,1.034208637470602268e-05
2.553174603174602986e+00,-1.912375843271119910e-05,2.678399104199475351e-05
2.553968253968253777e+00,-1.676185963500316598e-05,4.025575182923174451e-05
2.554761904761904567e+00,-1.513291015818913504e-05,4.901546644200398300e-05
2.555555555555555358e+00,-1.396721029619228659e-05,5.209312968153570998e-05
2.556349206349206149e+00,-1.287749373862649002e-05,4.937868756961790682e-05
2.557142857142856940e+00,-1.142799526060782053e-05,4.153919546443244417e-05
2.557936507936507731e+00,-9.219095433593268033e-06,2.982404048209341368e-05
2.558730158730158522e+00,-5.982632487817106333e-06,1.582560093671095430e-05
2.559523809523809312e+00,-1.670320702856917236e-06,1.247139886985630347e-06
2.560317460317460103e+00,3.490089122488534277e-06,-1.229607333982140920e-05
2.561111111111110894e+00,8.990927960876209381e-06,-2.343905842531572310e-05
2.561904761904761685e+00,1.409657550606916843e-05,-3.119795028729065671e-05
2.562698412698412920e+00,1.793911552344678488e-05,-3.506611874191403294e-05
2.563492063492063711e+00,1.964139526684514415e-05,-3.505698475379153621e-05
2.564285714285714501e+00,1.845808040505004133e-05,-3.166960056358182737e-05
2.565079365079365292e+00,1.393140265263363996e-05,-2.576854133034618116e-05
2.565873015873016083e+00,6.051681723846254411e-06,-1.839962906131780787e-05
2.566666666666666874e+00,-4.607451286338004303e-06,-1.058814616357931141e-05
2.567460317460317665e+00,-1.683060438580354329e-05,-3.171136968605284522e-06
2.568253968253968456e+00,-2.883555850586883582e-05,3.299698430502107535e-06
2.569047619047619246e+00,-3.851529162327333345e-05,8.572309410302675478e-06
2.569841269841270037e+00,-4.383091987673344542e-05,1.263668762292854108e-05
2.570634920634920828e+00,-4.327702532156078565e-05,1.562248629127256701e-05
2.571428571428571619e+00,-3.629027581825539463e-05,1.768620306031147503e-05
2.572222222222222410e+00,-2.346125032735050061e-05,1.892081601697551666e-05
2.573015873015873201e+00,-6.456858738492309946e-06,1.931284799528919284e-05
2.573809523809523991e+00,1.234138433528248267e-05,1.875901418610713092e-05
2.574603174603174782e+00,3.037163967943349487e-05,1.713740117722375726e-05
2.575396825396825573e+00,4.542623751381182236e-05,1.440939448765119434e-05
2.576190476190476364e+00,5.602792128205515127e-05,1.071513507660656017e-05
2.576984126984127155e+00,6.156449377231231260e-05,6.423500864125330546e-06
2.577777777777777946e+00,6.219375021913553189e-05,2.108751897223031748e-06
2.578571428571428736e+00,5.860341624281742976e-05,-1.552496444700334017e-06
2.579365079365079527e+00,5.173621046822596438e-05,-3.942613261639243790e-06
2.580158730158730318e+00,4.256898172745799715e-05,-4.675656754469955490e-06
2.580952380952381109e+00,3.198983025315729599e-05,-3.723548503211305375e-06
2.581746031746031900e+00,2.077508093381121417e-05,-1.449935909883276436e-06
2.582539682539682691e+00,9.641058617959129314e-06,1.463012352483338524e-06
2.583333333333333481e+00,-6.712699059845782082e-07,4.173993903821227863e-06
2.584126984126984272e+00,-9.334004680465200605e-06,5.881541577256717772e-06
2.584920634920635063e+00,-1.545015101053824440e-05,6.007735637257783132e-06
2.585714285714285854e+00,-1.818706329658034606e-05,4.320623662737903176e-06
2.586507936507936645e+00,-1.701333463372832125e-05,9.694593102962798284e-07
2.587301587301587436e+00,-1.197365155516319439e-05,-3.568790674808798177e-06
2.588095238095238226e+00,-3.901977037580464587e-06,-8.610543332347321663e-06
2.588888888888889017e+00,5.525810952245411298e-06,-1.341664584990042248e-05
2.589682539682539808e+00,1.395957536869271259e-05,-1.733041139460888175e-05
2.590476190476190599e+00,1.875653376245213283e-05,-1.987006681519354293e-05
2.591269841269841390e+00,1.750406663619863128e-05,-2.076613574010663865e-05
2.592063492063492181e+00,8.571084035341800436e-06,-1.995658128536292593e-05
2.592857142857142971e+00,-8.432054838162661656e-06,-1.756027663545305450e-05
2.593650793650793762e+00,-3.239327665987800351e-05,-1.384225145528333357e-05
2.594444444444444553e+00,-6.072113613285545986e-05,-9.173937575414983453e-06
2.595238095238095344e+00,-8.968022980743592051e-05,-3.987946137568744020e-06
2.596031746031746135e+00,-1.149856419839728701e-04,1.270799457570444304e-06
2.596825396825396925e+00,-1.325186866993614712e-04,6.193258614453132629e-06
2.597619047619047716e+00,-1.389924927115444430e-04,1.044964116395299444e-05
2.598412698412698507e+00,-1.324306363629742015e-04,1.382425319594787781e-05
2.599206349206349298e+00,-1.124008458106776353e-04,1.623581342759292830e-05
2.600000000000000089e+00,-8.002775315222606213e-05,1.773395346785468910e-05
2.600793650793650880e+00,-3.785793680124478625e-05,1.846417771188829733e-05
2.601587301587301670e+00,1.035303322422676263e-05,1.860289584448591651e-05
2.602380952380952461e+00,5.991022810436553596e-05,1.827759461641624648e-05
2.603174603174603252e+00,1.055407374462095352e-04,1.749799996934686444e-05
2.603968253968254043e+00,1.419031044289623307e-04,1.612718507562888100e-05
2.604761904761904834e+00,1.642645489452973517e-04,1.391472077248311320e-05
2.605555555555555625e+00,1.692811176766068700e-04,1.059637872370385801e-05
2.606349206349206415e+00,1.557234324245399145e-04,6.038743125760845586e-06
2.607142857142857206e+00,1.249420297906171683e-04,3.811613351548051495e-07
2.607936507936507997e+00,8.089327525428496770e-05,-5.883758775721396318e-06
2.608730158730158788e+00,2.964404790996124549e-05,-1.193588575785463278e-05
2.609523809523809579e+00,-2.159268885728403946e-05,-1.676846636581709151e-05
2.610317460317460370e+00,-6.571175885616775886e-05,-1.941159764787748742e-05
2.611111111111111160e+00,-9.699449131996934178e-05,-1.917648302332090949e-05
2.611904761904761951e+00,-1.121237638760126659e-04,-1.585193099875711596e-05
2.612698412698412742e+00,-1.106897195852439271e-04,-9.799760292508678992e-06
2.613492063492063533e+00,-9.505382172598203082e-05,-1.924636590122385805e-06
2.614285714285714324e+00,-6.961008559228066498e-05,6.474561823842558837e-06
2.615079365079365115e+00,-3.965982876777023926e-05,1.393894864111275895e-05
2.615873015873015905e+00,-1.022537664213786747e-05,1.912030525249291951e-05
2.616666666666666696e+00,1.487957241519595282e-05,2.103337956239674457e-05
2.617460317460317487e+00,3.352086982723122250e-05,1.923974366450405469e-05
2.618253968253968278e+00,4.522217640288920523e-05,1.392742906845892821e-05
2.619047619047619069e+00,5.076772543955919653e-05,5.871194682865171083e-06
2.619841269841269860e+00,5.162925396617607502e-05,-3.718460014188954479e-06
2.620634920634920650e+00,4.941589732517000645e-05,-1.342624185187594872e-05
2.621428571428571441e+00,4.548294603694818400e-05,-2.189242084431967917e-05
2.622222222222222232e+00,4.075005533566110328e-05,-2.804411261719602974e-05
2.623015873015873023e+00,3.570773924485785546e-05,-3.124884338111746934e-05
2.623809523809523814e+00,3.055024858847986261e-05,-3.136655464771071909e-05
2.624603174603174605e+00,2.536041748430049151e-05,-2.870384769555706927e-05
2.625396825396825395e+00,2.027608661012996711e-05,-2.389413374652245487e-05
2.626190476190476186e+00,1.558168774800852905e-05,-1.773797057039921680e-05
2.626984126984126977e+00,1.169354449757176745e-05,-1.104202875106404682e-05
2.627777777777777768e+00,9.042944765678032857e-06,-4.492551671855873964e-06
2.628571428571428559e+00,7.897674484420911826e-06,1.412233863352428940e-06
2.629365079365079350e+00,8.186051941619121273e-06,6.365126784458869103e-06
2.630158730158730140e+00,9.388848893505142513e-06,1.020311970216947211e-05
2.630952380952380931e+00,1.054628682484667698e-05,1.284004908633778347e-05
2.631746031746031722e+00,1.039813428642214225e-05,1.421166839647558607e-05
2.632539682539682513e+00,7.641662338973824887e-06,1.425795463127174847e-05
2.633333333333333304e+00,1.259499562362057319e-06,1.295093945700681803e-05
2.634126984126984095e+00,-9.155735534745582758e-06,1.035700988266432049e-05
2.634920634920634885e+00,-2.316230934112060652e-05,6.706563926411176146e-06
2.635714285714285676e+00,-3.938765757166491258e-05,2.436476586318283927e-06
2.636507936507936467e+00,-5.564860476725433467e-05,-1.824800592845252602e-06
2.637301587301587258e+00,-6.927712443232504722e-05,-5.343414212705240314e-06
2.638095238095238049e+00,-7.760473081847409429e-05,-7.426797587650054184e-06
2.638888888888888840e+00,-7.850928334144074029e-05,-7.594551111921831351e-06
2.639682539682539630e+00,-7.089806260695028861e-05,-5.721036197796403946e-06
2.640476190476190421e+00,-5.500581910746451310e-05,-2.099442980088260643e-06
2.641269841269841212e+00,-3.242902039434248247e-05,2.600433183900930823e-06
2.642063492063492003e+00,-5.886435814801085416e-06,7.474421547178328689e-06
2.642857142857142794e+00,2.123202392767673723e-05,1.158919960829376987e-05
2.643650793650793585e+00,4.542011321520224358e-05,1.419715034586590058e-05
2.644444444444444375e+00,6.360151254769486843e-05,1.490718999804955027e-05
2.645238095238095166e+00,7.358507435684505697e-05,1.376963772095181927e-05
2.646031746031745957e+00,7.438504753216562226e-05,1.125294074323483095e-05
2.646825396825396748e+00,6.638766685876110944e-05,8.115058996845067347e-06
2.647619047619047539e+00,5.135152329850343063e-05,5.199450883324940223e-06
2.648412698412698330e+00,3.222437905091497280e-05,3.209166793971870618e-06
2.649206349206349120e+00,1.275968278248346989e-05,2.523387323480605776e-06
2.649999999999999911e+00,-3.062628846310429891e-06,3.110652237731534062e-06
2.650793650793650702e+00,-1.175784931575305777e-05,4.562671231288027510e-06
2.651587301587301493e+00,-1.108301936218003871e-05,6.233640784148602241e-06
2.652380952380952284e+00,-6.411954139420399556e-07,7.437890730343891579e-06
2.653174603174603075e+00,1.782524263185087274e-05,7.644218025051248105e-06
2.653968253968253865e+00,4.056768415848597403e-05,6.611545425944803486e-06
2.654761904761904656e+00,6.241715965894017114e-05,4.433684952222794280e-06
2.655555555555555447e+00,7.774668198169263267e-05,1.491577667024349048e-06
2.656349206349206238e+00,8.163324960420438017e-05,-1.662223974059163644e-06
2.657142857142857029e+00,7.096744904957489523e-05,-4.448605659732583072e-06
2.657936507936507819e+00,4.524213341209439899e-05,-6.399235572916767838e-06
2.658730158730158610e+00,6.815354561902536290e-06,-7.258534645264479515e-06
2.659523809523809401e+00,-3.942924092621401537e-05,-7.032977138370985307e-06
2.660317460317460192e+00,-8.695764113508131909e-05,-5.978859400831078815e-06
2.661111111111110983e+00,-1.288141907895099675e-04,-4.529450664356609524e-06
2.661904761904761774e+00,-1.589461143640236282e-04,-3.176679402275597882e-06
2.662698412698412564e+00,-1.733303834956531977e-04,-2.338034645404385064e-06
2.663492063492063355e+00,-1.706385005072311211e-04,-2.247699150930793260e-06
2.664285714285714146e+00,-1.522949330963679156e-04,-2.905366325530057851e-06
2.665079365079364937e+00,-1.219646629418519676e-04,-4.097396386160942357e-06
2.665873015873015728e+00,-8.466025707716235240e-05,-5.480369349778150282e-06
2.666666666666666519e+00,-4.572530034113810894e-05,-6.696442849965143922e-06
2.667460317460317309e+00,-9.927157524465964769e-06,-7.481240236733182716e-06
2.668253968253968100e+00,1.918731788747376783e-05,-7.731408782950985158e-06
2.669047619047618891e+00,3.961539192587998045e-05,-7.516450207341921214e-06
2.669841269841269682e+00,5.092226240848296158e-05,-7.038533850662591740e-06
2.670634920634920473e+00,5.402766071160501165e-05,-6.556999270341747477e-06
2.671428571428571264e+00,5.082838660395910054e-05,-6.300280715684095233e-06
2.672222222222222054e+00,4.373111889215274711e-05,-6.389898539163238818e-06
2.673015873015872845e+00,3.517357182689999611e-05,-6.798979305266079556e-06
2.673809523809523636e+00,2.721135102609963062e-05,-7.358738669952636712e-06
2.674603174603174427e+00,2.123318610211240724e-05,-7.810871118101208249e-06
2.675396825396825218e+00,1.784007748979893213e-05,-7.887720399604781395e-06
2.676190476190476009e+00,1.689199082262605832e-05,-7.392759520431085862e-06
2.676984126984126799e+00,1.769466927634730141e-05,-6.254951334721999136e-06
2.677777777777777590e+00,1.927307807377123000e-05,-4.540477496097712536e-06
2.678571428571428381e+00,2.066302887424216811e-05,-2.419684156537693564e-06
2.679365079365079172e+00,2.115447856476748663e-05,-1.019400723294056287e-07
2.680158730158729963e+00,2.043912912587240771e-05,2.236627768278789288e-06
2.680952380952380754e+00,1.864473025779753694e-05,4.502487551902895547e-06
2.681746031746031544e+00,1.626936710837007986e-05,6.688554047759896621e-06
2.682539682539682335e+00,1.405201935049504966e-05,8.829741392869476507e-06
2.683333333333333126e+00,1.282268583054019496e-05,1.093042208234154470e-05
2.684126984126983917e+00,1.336089495555778122e-05,1.289765875646849994e-05
2.684920634920634708e+00,1.626144262037033030e-05,1.451202795979504336e-05
2.685714285714285499e+00,2.178553932237713481e-05,1.545337919300580085e-05
2.686507936507936289e+00,2.969303129434550087e-05,1.537980695673681018e-05
2.687301587301587080e+00,3.910457746401421866e-05,1.404032240735834462e-05
2.688095238095238315e+00,4.848583887424099380e-05,1.138813107468940195e-05
2.688888888888889106e+00,5.583063075769408766e-05,7.655266742716011408e-06
2.689682539682539897e+00,5.904622663532257970e-05,3.354849566264722428e-06
2.690476190476190688e+00,5.645633953099833105e-05,-8.039325477914971801e-07
2.691269841269841478e+00,4.728182223162222876e-05,-4.075186247763762140e-06
2.692063492063492269e+00,3.195487082431838240e-05,-5.869592455741768712e-06
2.692857142857143060e+00,1.216375171827523308e-05,-5.924370570794732210e-06
2.693650793650793851e+00,-9.405786280553103202e-06,-4.393884827870062603e-06
2.694444444444444642e+00,-2.958752445433145419e-05,-1.825776872586452913e-06
2.695238095238095433e+00,-4.539286234884159474e-05,9.770219782652060406e-07
2.696031746031746223e+00,-5.464546943366315487e-05,3.170072066008943861e-06
2.696825396825397014e+00,-5.642788975813440558e-05,4.093291241784946428e-06
2.697619047619047805e+00,-5.122971024742587517e-05,3.442660061625294069e-06
2.698412698412698596e+00,-4.077386486207953980e-05,1.341047042233283803e-06
2.699206349206349387e+00,-2.758119090764637299e-05,-1.706967644387197469e-06
2.700000000000000178e+00,-1.439039462446115807e-05,-4.959533559797240950e-06
2.700793650793650968e+00,-3.576395792693050144e-06,-7.640611513163119805e-06
2.701587301587301759e+00,3.296057370905349714e-06,-9.148685873354150475e-06
2.702380952380952550e+00,5.685855102948920880e-06,-9.217171260051172608e-06
2.703174603174603341e+00,4.025129673122874169e-06,-7.982071842499006926e-06
2.703968253968254132e+00,-5.484568481275709739e-07,-5.932933890768608170e-06
2.704761904761904923e+00,-6.567766429127150780e-06,-3.754987313784193349e-06
2.705555555555555713e+00,-1.259168819890480889e-05,-2.107390885533468345e-06
2.706349206349206504e+00,-1.744481474726630765e-05,-1.409594366914485271e-06
2.707142857142857295e+00,-2.031380927360226021e-05,-1.709557114011970246e-06
2.707936507936508086e+00,-2.073691214037887278e-05,-2.679930259226498440e-06
2.708730158730158877e+00,-1.855339610071003885e-05,-3.741948409432683348e-06
2.709523809523809668e+00,-1.386883607645361250e-05,-4.270620318386871754e-06
2.710317460317460458e+00,-7.051318305280911230e-06,-3.807234233275993968e-06
2.711111111111111249e+00,1.270801313975859851e-06,-2.206487653416621165e-06
2.711904761904762040e+00,1.025626970703502552e-05,3.265670132197329555e-07
2.712698412698412831e+00,1.896557042458216788e-05,3.313377330131116085e-06
2.713492063492063622e+00,2.651647471315774147e-05,6.158358290694716393e-06
2.714285714285714413e+00,3.222110531720991789e-05,8.328490882096014285e-06
2.715079365079365203e+00,3.565508990109452029e-05,9.497363154821097510e-06
2.715873015873015994e+00,3.665285125369204824e-05,9.611362255219948179e-06
2.716666666666666785e+00,3.526239482063852644e-05,8.864863798376116296e-06
2.717460317460317576e+00,3.169928500614910228e-05,7.603401930790004685e-06
2.718253968253968367e+00,2.631738827990400285e-05,6.197158491904394890e-06
2.719047619047619158e+00,1.958879321823988411e-05,4.932439796031819146e-06
2.719841269841269948e+00,1.207548956627978377e-05,3.954642687268676899e-06
2.720634920634920739e+00,4.381389449817176141e-06,3.270671133478237004e-06
2.721428571428571530e+00,-2.913966661284436255e-06,2.794980024632783466e-06
2.722222222222222321e+00,-9.327392951018238521e-06,2.411189808129484840e-06
2.723015873015873112e+00,-1.453136842999697222e-05,2.022256573623480214e-06
2.723809523809523903e+00,-1.838323500632941255e-05,1.572198385488713580e-06
2.724603174603174693e+00,-2.091407159868417212e-05,1.035932918929344522e-06
2.725396825396825484e+00,-2.227876167712463057e-05,3.873082576403600007e-07
2.726190476190476275e+00,-2.268117785926021280e-05,-4.334701491481472677e-07
2.726984126984127066e+00,-2.229670003068440836e-05,-1.527451042531978888e-06
2.727777777777777857e+00,-2.121535224375966221e-05,-3.002715841825109020e-06
2.728571428571428648e+00,-1.942306472202535354e-05,-4.904077225360307543e-06
2.729365079365079438e+00,-1.682909200970575343e-05,-7.137722669319628134e-06
2.730158730158730229e+00,-1.333768004834876057e-05,-9.432369836338851246e-06
2.730952380952381020e+00,-8.952620767598666054e-06,-1.136573314834115337e-05
2.731746031746031811e+00,-3.893053818357363223e-06,-1.245626269491953563e-05
2.732539682539682602e+00,1.313339456810661318e-06,-1.229158944645648492e-05
2.733333333333333393e+00,5.804949433171996986e-06,-1.065115271139549733e-05
2.734126984126984183e+00,8.474729435026754899e-06,-7.585728055550686484e-06
2.734920634920634974e+00,8.195514167485332057e-06,-3.434719726913438318e-06
2.735714285714285765e+00,4.152920797419012408e-06,1.218474001643498645e-06
2.736507936507936556e+00,-3.807739448831256467e-06,5.639935239726156712e-06
2.737301587301587347e+00,-1.495442121288140702e-05,9.068552720612919286e-06
2.738095238095238138e+00,-2.767917636552744801e-05,1.084751049947546752e-05
2.738888888888888928e+00,-3.978852253896003784e-05,1.054102102370488482e-05
2.739682539682539719e+00,-4.900724675241250250e-05,8.015069221402048189e-06
2.740476190476190510e+00,-5.353967369318093661e-05,3.467151907042025278e-06
2.741269841269841301e+00,-5.250556620972014125e-05,-2.599767012882551850e-06
2.742063492063492092e+00,-4.611630960932225338e-05,-9.451861258168168172e-06
2.742857142857142883e+00,-3.555101311081965273e-05,-1.622961583865220231e-05
2.743650793650793673e+00,-2.258616938024171880e-05,-2.205954865209642471e-05
2.744444444444444464e+00,-9.098979834471138307e-06,-2.615036046536197488e-05
2.745238095238095255e+00,3.404974644856808912e-06,-2.786182622160097573e-05
2.746031746031746046e+00,1.410039335633364094e-05,-2.674939287186152922e-05
2.746825396825396837e+00,2.290337286797449013e-05,-2.259815559425572726e-05
2.747619047619047628e+00,3.028484756147484431e-05,-1.545998278764823148e-05
2.748412698412698418e+00,3.691654298479355188e-05,-5.696751511285231783e-06
2.749206349206349209e+00,4.327750099049825850e-05,5.983355837350044794e-06
2.750000000000000000e+00,4.935271147571465816e-05,1.852295400790005220e-05
2.750793650793650791e+00,5.452032226766730441e-05,3.057636159552703972e-05
2.751587301587301582e+00,5.766561543770818538e-05,4.065444027759231851e-05
2.752380952380952372e+00,5.749441825258655187e-05,4.734824378327882313e-05
2.753174603174603163e+00,5.295925478891492046e-05,4.959307611646885197e-05
2.753968253968253954e+00,4.367069042111081312e-05,4.690841129550671850e-05
2.754761904761904745e+00,3.015644035315015434e-05,3.954495932221388391e-05
2.755555555555555536e+00,1.386191482189523556e-05,2.849077995994392067e-05
2.756349206349206327e+00,-3.141111144444981203e-06,1.532358008117147777e-05
2.757142857142857117e+00,-1.867196716184317122e-05,1.933842735368776260e-06
2.757936507936507908e+00,-3.102770248885228536e-05,-9.824182653960500175e-06
2.758730158730158699e+00,-3.943804907588214272e-05,-1.847554981315776553e-05
2.759523809523809490e+00,-4.421719445084126626e-05,-2.318206621749217537e-05
2.760317460317460281e+00,-4.654112078144825209e-05,-2.385637370854780406e-05
2.761111111111111072e+00,-4.791805802172787533e-05,-2.111371082878595834e-05
2.761904761904761862e+00,-4.954030069686279859e-05,-1.608365010729126098e-05
2.762698412698412653e+00,-5.175240125681585505e-05,-1.013497438146525453e-05
2.763492063492063444e+00,-5.382478471555899663e-05,-4.581379528306131413e-06
2.764285714285714235e+00,-5.411143168645529033e-05,-4.328881458356102329e-07
2.765079365079365026e+00,-5.054326982066829080e-05,1.760202539751116946e-06
2.765873015873015817e+00,-4.130505123440294228e-05,1.951114675833135913e-06
2.766666666666666607e+00,-2.548910648564979556e-05,5.352878111839566282e-07
2.767460317460317398e+00,-3.527702341275693593e-06,-1.789387401564478115e-06
2.768253968253968189e+00,2.272670278244029086e-05,-4.204035810332800083e-06
2.769047619047618980e+00,5.029724633631221857e-05,-5.952765849371780644e-06
2.769841269841269771e+00,7.566493591750872135e-05,-6.493576888324189986e-06
2.770634920634920562e+00,9.546720117024438880e-05,-5.590255586697618143e-06
2.771428571428571352e+00,1.071266414181855641e-04,-3.334374618273632553e-06
2.772222222222222143e+00,1.092747144875581318e-04,-1.032306414458043203e-07
2.773015873015872934e+00,1.019187115535312611e-04,3.528233104110662915e-06
2.773809523809523725e+00,8.637119507074512384e-05,6.899769672527333580e-06
2.774603174603174516e+00,6.499459653836249810e-05,9.384072303518393987e-06
2.775396825396825307e+00,4.081670991004924035e-05,1.049745288384027039e-05
2.776190476190476097e+00,1.706740392399449990e-05,9.990697277197794140e-06
2.776984126984126888e+00,-3.311288217852101054e-06,7.905040692237482131e-06
2.777777777777777679e+00,-1.811862794434233195e-05,4.576423855777187201e-06
2.778571428571428470e+00,-2.623706685813905715e-05,5.763443248585037320e-07
2.779365079365079261e+00,-2.778773163516687271e-05,-3.408267828908507020e-06
2.780158730158730052e+00,-2.404957418906174824e-05,-6.733779821569526507e-06
2.780952380952380842e+00,-1.714107237116981139e-05,-8.956492478300797237e-06
2.781746031746031633e+00,-9.519320520707822623e-06,-9.939530553349765798e-06
2.782539682539682424e+00,-3.397126876435718542e-06,-9.873767026895788001e-06
2.783333333333333215e+00,-2.095089205751220581e-07,-9.204328808920531277e-06
2.784126984126984006e+00,-2.749577014271634734e-07,-8.486220070031647182e-06
2.784920634920634797e+00,-2.777870458296203080e-06,-8.213736088994057815e-06
2.785714285714285587e+00,-6.121547072568745605e-06,-8.670960691103684768e-06
2.786507936507936378e+00,-8.566353068209372416e-06,-9.839171719298042275e-06
2.787301587301587169e+00,-8.929914247291415282e-06,-1.138155763064403414e-05
2.788095238095237960e+00,-7.072583833732885901e-06,-1.271135726266312869e-05
2.788888888888888751e+00,-3.969759381779113211e-06,-1.313435996536355874e-05
2.789682539682539542e+00,-1.344659137445107467e-06,-1.203898390853054747e-05
2.790476190476190332e+00,-1.009299888383381335e-06,-9.090569950831928116e-06
2.791269841269841123e+00,-4.162770151904476198e-06,-4.377742381080460432e-06
2.792063492063491914e+00,-1.090085788660528298e-05,1.536642222427568561e-06
2.792857142857142705e+00,-2.011547998177799643e-05,7.687148186810173191e-06
2.793650793650793496e+00,-2.983522521594307792e-05,1.289481304274161913e-05
2.794444444444444287e+00,-3.790801971092851071e-05,1.603341617342388218e-05
2.795238095238095077e+00,-4.278888698811265560e-05,1.630715301594275936e-05
2.796031746031745868e+00,-4.412367225911202959e-05,1.346657297863012642e-05
2.796825396825396659e+00,-4.286612475028596050e-05,7.903184791702634563e-06
2.797619047619047450e+00,-4.083715629483361780e-05,5.936694767423862088e-07
2.798412698412698241e+00,-3.986894577553010892e-05,-7.096335104856231305e-06
2.799206349206349032e+00,-4.087056581985932960e-05,-1.370191433065204188e-05
2.799999999999999822e+00,-4.321626904244714874e-05,-1.797001029543553383e-05
2.800793650793650613e+00,-4.475248464020228575e-05,-1.911449352342087799e-05
2.801587301587301404e+00,-4.247285802846075730e-05,-1.695488514972152839e-05
2.802380952380952195e+00,-3.362513982841716648e-05,-1.191362322261017407e-05
2.803174603174602986e+00,-1.683442269884734136e-05,-4.886504691384667206e-06
2.803968253968253777e+00,7.153014563729938637e-06,2.969706092910169294e-06
2.804761904761904567e+00,3.532178858002920740e-05,1.047675636383040103e-05
2.805555555555555358e+00,6.284538373516628158e-05,1.664935405925875131e-05
2.806349206349206149e+00,8.402511653442816715e-05,2.084515320039286360e-05
2.807142857142856940e+00,9.352141798858233266e-05,2.282738645383440798e-05
2.807936507936507731e+00,8.764381579472291348e-05,2.273534677318774568e-05
2.808730158730158522e+00,6.541854677806305544e-05,2.097664167257407448e-05
2.809523809523809312e+00,2.913814645450006190e-05,1.807250364166047664e-05
2.810317460317460103e+00,-1.583232392003584428e-05,1.449980839762729263e-05
2.811111111111110894e+00,-6.204546628138037534e-05,1.057631771755326039e-05
2.811904761904761685e+00,-1.015748375804225405e-04,6.424663865703784618e-06
2.812698412698412920e+00,-1.278283989069329272e-04,2.025062995120576002e-06
2.813492063492063711e+00,-1.370578871988031649e-04,-2.666147554063262458e-06
2.814285714285714501e+00,-1.291083535262655378e-04,-7.582127943277612549e-06
2.815079365079365292e+00,-1.071796243973524376e-04,-1.245444036410073257e-05
2.815873015873016083e+00,-7.669459797920131984e-05,-1.681002630433543575e-05
2.816666666666666874e+00,-4.366312910171752840e-05,-2.006639686231677646e-05
2.817460317460317665e+00,-1.307696563591397425e-05,-2.169293482515697626e-05
2.818253968253968456e+00,1.217819869599404797e-05,-2.137564432717680576e-05
2.819047619047619246e+00,3.161918793439304708e-05,-1.912034347574712199e-05
2.819841269841270037e+00,4.668208205981320676e-05,-1.525741549573257827e-05
2.820634920634920828e+00,5.972408379490113880e-05,-1.035396635542997629e-05
2.821428571428571619e+00,7.290532563782945309e-05,-5.073010412980829889e-06
2.822222222222222410e+00,8.732046434853726630e-05,-2.960442748627150229e-08
2.823015873015873201e+00,1.026084799956817012e-04,4.317221067304870254e-06
2.823809523809523991e+00,1.170856925305340798e-04,7.718251207947802764e-06
2.824603174603174782e+00,1.282881395572349926e-04,1.013384609409074771e-05
2.825396825396825573e+00,1.337144027249649765e-04,1.169215286798161025e-05
2.826190476190476364e+00,1.315401164246122242e-04,1.262324233265262485e-05
2.826984126984127155e+00,1.211187343106280790e-04,1.318534040812766886e-05
2.827777777777777946e+00,1.031636281309316418e-04,1.359484661720128707e-05
2.828571428571428736e+00,7.959649131861520194e-05,1.396884066643960238e-05
2.829365079365079527e+00,5.312579761346795964e-05,1.428924413716248023e-05
2.830158730158730318e+00,2.667520220941403295e-05,1.439846091467350868e-05
2.830952380952381109e+00,2.808535716365925273e-06,1.403246646334472537e-05
2.831746031746031900e+00,-1.670988529031092345e-05,1.288834736908085110e-05
2.832539682539682691e+00,-3.112436502258330846e-05,1.071302203016467193e-05
2.833333333333333481e+00,-4.064006492335608993e-05,7.392447932571177570e-06
2.834126984126984272e+00,-4.616452752448358912e-05,3.018014681010816555e-06
2.834920634920635063e+00,-4.893533942346664663e-05,-2.090157132556211645e-06
2.835714285714285854e+00,-5.014551755786508368e-05,-7.414144324170888200e-06
2.836507936507936645e+00,-5.066072866210138661e-05,-1.232053274000350481e-05
2.837301587301587436e+00,-5.088642838412376084e-05,-1.617657404293876906e-05
2.838095238095238226e+00,-5.079891746413450776e-05,-1.847232411780310780e-05
2.838888888888889017e+00,-5.010853247191494414e-05,-1.891854169078133923e-05
2.839682539682539808e+00,-4.848600972700789166e-05,-1.749716353783496202e-05
2.840476190476190599e+00,-4.576775737448240868e-05,-1.445623457454292274e-05
2.841269841269841390e+00,-4.206888780208850912e-05,-1.025861442610823043e-05
2.842063492063492181e+00,-3.777009752765243675e-05,-5.504995857213347615e-06
2.842857142857142971e+00,-3.339311092653817479e-05,-8.508644449981778877e-07
2.843650793650793762e+00,-2.942093626690312080e-05,3.073841509725194692e-06
2.844444444444444553e+00,-2.613560559831595037e-05,5.744696394548146862e-06
2.845238095238095344e+00,-2.353151928208326778e-05,6.825651485323002268e-06
2.846031746031746135e+00,-2.132863430497570080e-05,6.246808753579640680e-06
2.846825396825396925e+00,-1.907546349805190966e-05,4.254290335034416919e-06
2.847619047619047716e+00,-1.630847405058641732e-05,1.402847321375067633e-06
2.848412698412698507e+00,-1.272266409340374868e-05,-1.530695314754270091e-06
2.849206349206349298e+00,-8.305732175003601884e-06,-3.715046538738691556e-06
2.850000000000000089e+00,-3.395672749661486659e-06,-4.486142815482320157e-06
2.850793650793650880e+00,1.360327903320396587e-06,-3.564013283996245107e-06
2.851587301587301670e+00,5.141502903698206582e-06,-1.184151134784864762e-06
2.852380952380952461e+00,7.151246336570969430e-06,1.929053929014049673e-06
2.853174603174603252e+00,6.823321859036951974e-06,4.770328743932455016e-06
2.853968253968254043e+00,3.976877323314754052e-06,6.391543303491621927e-06
2.854761904761904834e+00,-1.125299059745143062e-06,6.253484010004605052e-06
2.855555555555555625e+00,-7.828621000089481242e-06,4.454756515797148655e-06
2.856349206349206415e+00,-1.522239878552988801e-05,1.738745659185092480e-06
2.857142857142857206e+00,-2.230443563831189464e-05,-7.366774309497964114e-07
2.857936507936507997e+00,-2.811892662245569065e-05,-1.784840638080165393e-06
2.858730158730158788e+00,-3.184112135542607665e-05,-5.824605857645751305e-07
2.859523809523809579e+00,-3.282043891804442771e-05,3.083620903740183679e-06
2.860317460317460370e+00,-3.061237418558411310e-05,8.802116125432310283e-06
2.861111111111111160e+00,-2.501700982756592019e-05,1.573863716682972542e-05
2.861904761904761951e+00,-1.611445795177504116e-05,2.294292475099883773e-05
2.862698412698412742e+00,-4.272693219507945168e-06,2.961599575845754511e-05
2.863492063492063533e+00,9.886218101282476820e-06,3.522926242794474936e-05
2.864285714285714324e+00,2.555033094743027887e-05,3.947554566669022886e-05
2.865079365079365115e+00,4.178202991944487244e-05,4.211823426101232758e-05
2.865873015873015905e+00,5.755178581521250703e-05,4.284570978233665889e-05
2.866666666666666696e+00,7.173217061779236581e-05,4.122228712819532402e-05
2.867460317460317487e+00,8.307724265047160598e-05,3.677158799151306794e-05
2.868253968253968278e+00,9.024229393138543732e-05,2.915999082472516023e-05
2.869047619047619069e+00,9.190202722796978591e-05,1.839425059114627690e-05
2.869841269841269860e+00,8.699048218915254437e-05,4.936483531668346854e-06
2.870634920634920650e+00,7.502588111941425506e-05,-1.031644731787495670e-05
2.871428571428571441e+00,5.642702635028230124e-05,-2.616825943946051293e-05
2.872222222222222232e+00,3.270146186675108673e-05,-4.130047974700925710e-05
2.873015873015873023e+00,6.401317792332875664e-06,-5.442540671899556769e-05
2.873809523809523814e+00,-1.920127251125018324e-05,-6.440061640783019436e-05
2.874603174603174605e+00,-4.068385276888833088e-05,-7.033593356350306995e-05
2.875396825396825395e+00,-5.516649394418182104e-05,-7.172057081982894289e-05
2.876190476190476186e+00,-6.094863877702997554e-05,-6.855440106608582719e-05
2.876984126984126977e+00,-5.790965946788944658e-05,-6.142674749457948974e-05
2.877777777777777768e+00,-4.755255417349196171e-05,-5.148294670953236149e-05
2.878571428571428559e+00,-3.266952998712067930e-05,-4.025345095442962341e-05
2.879365079365079350e+00,-1.671200900854535613e-05,-2.936998319285208045e-05
2.880158730158730140e+00,-3.023339379834441951e-06,-2.023467334127141155e-05
2.880952380952380931e+00,5.878641693033177722e-06,-1.372674130207814844e-05
2.881746031746031722e+00,8.802331112207457617e-06,-1.002321132172020745e-05
2.882539682539682513e+00,6.058415425771478280e-06,-8.580827492943362891e-06
2.883333333333333304e+00,-7.161588992347344339e-07,-8.286686789930300563e-06
2.884126984126984095e+00,-9.030746290559057613e-06,-7.744798423639654556e-06
2.884920634920634885e+00,-1.618803668446387202e-05,-5.630900689075137766e-06
2.885714285714285676e+00,-1.994843612154234878e-05,-1.025854855279252178e-06
2.886507936507936467e+00,-1.905797700045783137e-05,6.360103587474609379e-06
2.887301587301587258e+00,-1.352430417115938475e-05,1.612812378615966264e-05
2.888095238095238049e+00,-4.586171567315462292e-06,2.729997273872131921e-05
2.888888888888888840e+00,5.610408678814547571e-06,3.854760761198651112e-05
2.889682539682539630e+00,1.455371904560649977e-05,4.846447591920974432e-05
2.890476190476190421e+00,2.000087587677640264e-05,5.580081337202979109e-05
2.891269841269841212e+00,2.055387390443727742e-05,5.961522522300993088e-05
2.892063492063492003e+00,1.603072118042225933e-05,5.933896116393327485e-05
2.892857142857142794e+00,7.527764536837421082e-06,5.478467593967559945e-05
2.893650793650793585e+00,-2.852676728642373787e-06,4.614055003227304617e-05
2.894444444444444375e+00,-1.253550911763696414e-05,3.397232397519880649e-05
2.895238095238095166e+00,-1.910406342439224917e-05,1.922474718978883237e-05
2.896031746031745957e+00,-2.083528104416543450e-05,3.190422898122316886e-06
2.896825396825396748e+00,-1.700103436910955693e-05,-1.258820208149779814e-05
2.897619047619047539e+00,-7.914613947290017603e-06,-2.649817176749394855e-05
2.898412698412698330e+00,5.196051540130466022e-06,-3.709860800259324158e-05
2.899206349206349120e+00,2.038151480738411721e-05,-4.337574470531861513e-05
2.899999999999999911e+00,3.517613681731780701e-05,-4.493997757781318498e-05
2.900793650793650702e+00,4.683978196058999891e-05,-4.209993659727801694e-05
2.901587301587301493e+00,5.270066946544414065e-05,-3.578199196487201434e-05
2.902380952380952284e+00,5.063241261787540629e-05,-2.731250986585137772e-05
2.903174603174603075e+00,3.960590031369726259e-05,-1.812302063907616771e-05
2.903968253968253865e+00,2.015429460898173175e-05,-9.458843984532087741e-06
2.904761904761904656e+00,-5.459366782521872009e-06,-2.165715549818930347e-06
2.905555555555555447e+00,-3.353037479050326489e-05,3.398169836987062087e-06
2.906349206349206238e+00,-5.965920908279469665e-05,7.316004236623389606e-06
2.907142857142857029e+00,-7.976251078799970575e-05,9.961644506901058327e-06
2.907936507936507819e+00,-9.102112976785906430e-05,1.179989268036567938e-05
2.908730158730158610e+00,-9.245318005051222335e-05,1.320088340137706130e-05
2.909523809523809401e+00,-8.495438332677386032e-05,1.432148739581250887e-05
2.910317460317460192e+00,-7.084997220974693780e-05,1.508334766889947761e-05
2.911111111111110983e+00,-5.315204166265545787e-05,1.524675273373340160e-05
2.911904761904761774e+00,-3.476968231861753930e-05,1.454958794925909363e-05
2.912698412698412564e+00,-1.788935304429551678e-05,1.285984693873946729e-05
2.913492063492063355e+00,-3.662006606837493533e-06,1.028575195602576383e-05
2.914285714285714146e+00,7.769665727100149994e-06,7.201591656054901307e-06
2.915079365079364937e+00,1.696981883955357243e-05,4.175720280445562599e-06
2.915873015873015728e+00,2.477069620343216611e-05,1.820671534925742283e-06
2.916666666666666519e+00,3.185733959460365514e-05,6.132213319430519590e-07
2.917460317460317309e+00,3.850694353548687687e-05,7.449284423607746260e-07
2.918253968253968100e+00,4.454207736582242911e-05,2.055733438299141573e-06
2.919047619047618891e+00,4.947200187212181182e-05,4.076089788746107745e-06
2.919841269841269682e+00,5.273259472758762127e-05,6.165808902381331488e-06
2.920634920634920473e+00,5.391514050023166248e-05,7.703770950468198005e-06
2.921428571428571264e+00,5.289766447922484964e-05,8.264806410353951573e-06
2.922222222222222054e+00,4.984163617928201695e-05,7.725730518178373652e-06
2.923015873015872845e+00,4.507051723852527895e-05,6.269926359690083992e-06
2.923809523809523636e+00,3.889001155370471808e-05,4.297915462259014566e-06
2.924603174603174427e+00,3.143146843373151273e-05,2.284036891886988082e-06
2.925396825396825218e+00,2.259099579020586667e-05,6.335935226054852652e-07
2.926190476190476009e+00,1.210017908639932304e-05,-4.129641116797120145e-07
2.926984126984126799e+00,-2.844915506913487013e-07,-8.055197018160455736e-07
2.927777777777777590e+00,-1.452921160018587746e-05,-6.435698715890890150e-07
2.928571428571428381e+00,-3.008873670610634707e-05,-9.509226923655368224e-08
2.929365079365079172e+00,-4.577662591881180652e-05,6.889846208058581427e-07
2.930158730158729963e+00,-5.981000608669365413e-05,1.631350747437332974e-06
2.930952380952380754e+00,-7.006114831176574697e-05,2.735956266797045831e-06
2.931746031746031544e+00,-7.448902734022478137e-05,4.046217770196620264e-06
2.932539682539682335e+00,-7.165554691262806413e-05,5.572791496916606429e-06
2.933333333333333126e+00,-6.117885928610660036e-05,7.222865224736019086e-06
2.934126984126983917e+00,-4.396854853458516865e-05,8.763617836090828347e-06
2.934920634920634708e+00,-2.213913495006698958e-05,9.839634003234081354e-06
2.935714285714285499e+00,1.401381048243438231e-06,1.004317920528736577e-05
2.936507936507936289e+00,2.357942339909408736e-05,9.017110925023285104e-06
2.937301587301587080e+00,4.181585158309220881e-05,6.560408362696617214e-06
2.938095238095238315e+00,5.452576403911694422e-05,2.707147509706239721e-06
2.938888888888889106e+00,6.132570687311916097e-05,-2.241979014664471287e-06
2.939682539682539897e+00,6.291634103892685412e-05,-7.744358179390720988e-06
2.940476190476190688e+00,6.071051356560450542e-05,-1.309176039562926180e-05
2.941269841269841478e+00,5.634476384271221367e-05,-1.752218331337932047e-05
2.942063492063492269e+00,5.122734100352457399e-05,-2.034519646299032521e-05
2.942857142857143060e+00,4.624088649916150459e-05,-2.105967320925684734e-05
2.943650793650793851e+00,4.165374353539981044e-05,-1.944801398804894696e-05
2.944444444444444642e+00,3.722575011845995831e-05,-1.563544949659747017e-05
2.945238095238095433e+00,3.244221047993967592e-05,-1.010364142160450321e-05
2.946031746031746223e+00,2.678521359977882021e-05,-3.646907664990613535e-06
2.946825396825397014e+00,1.995732038741646901e-05,2.736604723416258315e-06
2.947619047619047805e+00,1.200175665865743153e-05,8.013251974519228297e-06
2.948412698412698596e+00,3.302239361053501003e-06,1.131617461477411674e-05
2.949206349206349387e+00,-5.518318790954518823e-06,1.213738898737594118e-05
2.950000000000000178e+00,-1.375635702335038256e-05,1.045790717788910375e-05
2.950793650793650968e+00,-2.079130841058087498e-05,6.773419067925255642e-06
2.951587301587301759e+00,-2.621065079887932022e-05,1.998122453687049181e-06
2.952380952380952550e+00,-2.987245158723092543e-05,-2.738397276564473531e-06
2.953174603174603341e+00,-3.190313969947756784e-05,-6.357001956394258449e-06
2.953968253968254132e+00,-3.264366320735870633e-05,-8.093513104060801494e-06
2.954761904761904923e+00,-3.256345198302000100e-05,-7.692194283538305035e-06
2.955555555555555713e+00,-3.216080534894027684e-05,-5.473137515301403106e-06
2.956349206349206504e+00,-3.186498259840690831e-05,-2.254502171967260921e-06
2.957142857142857295e+00,-3.195296418562823808e-05,8.462332328714571415e-07
2.957936507936508086e+00,-3.249286249653775889e-05,2.679300250989692536e-06
2.958730158730158877e+00,-3.332404634114868652e-05,2.339379892450989041e-06
2.959523809523809668e+00,-3.407941839069302561e-05,-6.012086511210031018e-07
2.960317460317460458e+00,-3.424838354423944710e-05,-5.951909331690358744e-06
2.961111111111111249e+00,-3.327185524039751101e-05,-1.289839540375992788e-05
2.961904761904762040e+00,-3.065518069907515933e-05,-2.015288543197345429e-05
2.962698412698412831e+00,-2.608201346789263905e-05,-2.624016522603525245e-05
2.963492063492063622e+00,-1.951154588035820247e-05,-2.985193117784823438e-05
2.964285714285714413e+00,-1.124233557206623352e-05,-3.017098395479081164e-05
2.965079365079365203e+00,-1.927758603406006886e-06,-2.706916735655398720e-05
2.965873015873015994e+00,7.468723648929480994e-06,-2.112021916160542631e-05
2.966666666666666785e+00,1.578409257727318577e-05,-1.342621988014927981e-05
2.967460317460317576e+00,2.182650482381844344e-05,-5.312482320589185729e-06
2.968253968253968367e+00,2.458524489176142333e-05,2.017114270322435816e-06
2.969047619047619158e+00,2.344447826471126933e-05,7.762904103973523756e-06
2.969841269841269948e+00,1.835863013558227969e-05,1.166860084127462455e-05
2.970634920634920739e+00,9.950943647345699902e-06,1.398014724701662912e-05
2.971428571428571530e+00,-4.928069885753689502e-07,1.524682578878719031e-05
2.972222222222222321e+00,-1.115247437956868847e-05,1.604086375523562587e-05
2.973015873015873112e+00,-1.992971837899278902e-05,1.669773088168473627e-05
2.973809523809523903e+00,-2.482085982398788380e-05,1.716698198652873131e-05
2.974603174603174693e+00,-2.436372502358621203e-05,1.702169433375998729e-05
2.975396825396825484e+00,-1.807259782457558528e-05,1.562358651255748744e-05
2.976190476190476275e+00,-6.736573694157774799e-06,1.239594819235534524e-05
2.976984126984127066e+00,7.550825804511573797e-06,7.122061360321986426e-06
2.977777777777777857e+00,2.171578445699509435e-05,1.671695699987758084e-07
2.978571428571428648e+00,3.236536852806468572e-05,-7.469673597203741569e-06
2.979365079365079438e+00,3.664453944103858131e-05,-1.431837368465473850e-05
2.980158730158730229e+00,3.305221423555951033e-05,-1.877810293815071184e-05
2.980952380952381020e+00,2.195850675532107796e-05,-1.952325649456865627e-05
2.981746031746031811e+00,5.635326207297923460e-06,-1.584099473251850739e-05
2.982539682539682602e+00,-1.224379147306558012e-05,-7.808295009097642841e-06
2.983333333333333393e+00,-2.750584567942985009e-05,3.712328130329220308e-06
2.984126984126984183e+00,-3.651466341107445073e-05,1.722551678067762971e-05
2.984920634920634974e+00,-3.703033293508104401e-05,3.085195927868794434e-05
2.985714285714285765e+00,-2.865706746342189341e-05,4.262185870500012256e-05
2.986507936507936556e+00,-1.280053184686039510e-05,5.076627290179014314e-05
2.987301587301587347e+00,7.787267552898747693e-06,5.396872209114743059e-05
2.988095238095238138e+00,2.969995222918237092e-05,5.155410951134637657e-05
2.988888888888888928e+00,4.960602880402816532e-05,4.360205437159188487e-05
2.989682539682539719e+00,6.484691495753949720e-05,3.096797956459024622e-05
2.990476190476190510e+00,7.379756662232494547e-05,1.518745603364037208e-05
2.991269841269841301e+00,7.595784830190363459e-05,-1.750110426521239409e-06
2.992063492063492092e+00,7.181108251501894084e-05,-1.773427632828522847e-05
2.992857142857142883e+00,6.253253559956094905e-05,-3.090206275029544838e-05
2.993650793650793673e+00,4.964679058010583478e-05,-3.994785944914384034e-05
2.994444444444444464e+00,3.472092731472777884e-05,-4.429622586166782623e-05
2.995238095238095255e+00,1.914927301241297909e-05,-4.410486905865619172e-05
2.996031746031746046e+00,4.048280576088127540e-06,-4.011825980627883073e-05
2.996825396825396837e+00,-9.750069351822221166e-06,-3.343252826225974933e-05
2.997619047619047628e+00,-2.163468408133081369e-05,-2.524752985276145252e-05
2.998412698412698418e+00,-3.111675148054532418e-05,-1.666982348267040571e-05
2.999206349206349209e+00,-3.773512773497783156e-05,-8.597990188319799062e-06
3.000000000000000000e+00,-4.100671640591827861e-05,-1.684435001457758772e-06
3.000793650793650791e+00,-4.045675549659335233e-05,3.657122091935846769e-06
3.001587301587301582e+00,-3.574350703561879258e-05,7.231781385501603247e-06
3.002380952380952372e+00,-2.685815487250319133e-05,9.048482465956758528e-06
3.003174603174603163e+00,-1.434364818850769808e-05,9.306853586670298437e-06
3.003968253968253954e+00,5.496930956676660425e-07,8.371999616261791561e-06
3.004761904761904745e+00,1.585547104403704124e-05,6.726224135218480355e-06
3.005555555555555536e+00,2.908338782890540323e-05,4.897342184345577822e-06
3.006349206349206327e+00,3.760986576003435395e-05,3.372289621270164790e-06
3.007142857142857117e+00,3.919835976524127931e-05,2.508260094974201457e-06
3.007936507936507908e+00,3.252859215778184526e-05,2.455492716171239442e-06
3.008730158730158699e+00,1.759663936921236830e-05,3.110253563999237041e-06
3.009523809523809490e+00,-4.127756838184436365e-06,4.119892867327599944e-06
3.010317460317460281e+00,-2.984235551901087425e-05,4.955505261205550918e-06
3.011111111111111072e+00,-5.583507888329518998e-05,5.048423836462476055e-06
3.011904761904761862e+00,-7.810620979185652210e-05,3.961202393819727966e-06
3.012698412698412653e+00,-9.306932213633185055e-05,1.543391700555183170e-06
3.013492063492063444e+00,-9.820283428796495833e-05,-1.982429664089853993e-06
3.014285714285714235e+00,-9.253735340712387631e-05,-6.042265732584984184e-06
3.015079365079365026e+00,-7.688304440963775340e-05,-9.842226656535730235e-06
3.015873015873015817e+00,-5.372814288769292720e-05,-1.257186155699364901e-05
3.016666666666666607e+00,-2.679318467537618678e-05,-1.361584741589001043e-05
3.017460317460317398e+00,-3.110273905218582776e-07,-1.271192187747009890e-05
3.018253968253968189e+00,2.180968268442314296e-05,-1.001638397493951797e-05
3.019047619047618980e+00,3.673615081266332397e-05,-6.068210321770065015e-06
3.019841269841269771e+00,4.319987686507066350e-05,-1.665214713420980950e-06
3.020634920634920562e+00,4.162015402297544265e-05,2.321195493900694565e-06
3.021428571428571352e+00,3.385726001426848936e-05,5.155884723081580928e-06
3.022222222222222143e+00,2.267590714929645519e-05,6.427180979811099045e-06
3.023015873015872934e+00,1.105914482079433064e-05,6.158963810294045408e-06
3.023809523809523725e+00,1.539700483094572719e-06,4.805368563400028433e-06
3.024603174603174516e+00,-4.296303942535616159e-06,3.116462368689296363e-06
3.025396825396825307e+00,-6.029965904239245999e-06,1.907371159352775916e-06
3.026190476190476097e+00,-4.327415246933735975e-06,1.801683570447195442e-06
3.026984126984126888e+00,-6.033682722899295451e-07,3.032510009281866274e-06
3.027777777777777679e+00,3.464614984629485637e-06,5.365126857717276824e-06
3.028571428571428470e+00,6.437567709513504050e-06,8.163924688820344285e-06
3.029365079365079261e+00,7.501299949755007261e-06,1.058034798760452049e-05
3.030158730158730052e+00,6.639789593407350201e-06,1.180226497567179047e-05
3.030952380952380842e+00,4.556820658451287628e-06,1.128869791793861836e-05
3.031746031746031633e+00,2.379638480802927820e-06,8.921611139439752523e-06
3.032539682539682424e+00,1.246539709530835542e-06,5.035286844136389264e-06
3.033333333333333215e+00,1.918852457399670987e-06,3.226263216355508627e-07
3.034126984126984006e+00,4.546049477169220225e-06,-4.347641595911737689e-06
3.034920634920634797e+00,8.650169050298646832e-06,-8.148546588398225773e-06
3.035714285714285587e+00,1.330979285153798242e-05,-1.048922677160088782e-05
3.036507936507936378e+00,1.745679324107043146e-05,-1.113730980121086753e-05
3.037301587301587169e+00,2.017897322238470278e-05,-1.023929881810736662e-05
3.038095238095237960e+00,2.094562476752970010e-05,-8.235806861070725765e-06
3.038888888888888751e+00,1.971606334704848176e-05,-5.700104752795368325e-06
3.039682539682539542e+00,1.692786244300829117e-05,-3.154456465589286730e-06
3.040476190476190332e+00,1.338145719182669563e-05,-9.261073838426558073e-07
3.041269841269841123e+00,1.004758074386507504e-05,9.115770782674810957e-07
3.042063492063491914e+00,7.834999694742226492e-06,2.500087908275556517e-06
3.042857142857142705e+00,7.369312047879155062e-06,4.080859868749647742e-06
3.043650793650793496e+00,8.837437654434769182e-06,5.850362476862258119e-06
3.044444444444444287e+00,1.193588125253131974e-05,7.838160739638549092e-06
3.045238095238095077e+00,1.592833980803120810e-05,9.851959438811983891e-06
3.046031746031745868e+00,1.978777167126059131e-05,1.151247744970061074e-05
3.046825396825396659e+00,2.238439064840826935e-05,1.237160386150787649e-05
3.047619047619047450e+00,2.268318677520717402e-05,1.207593283073340575e-05
3.048412698412698241e+00,1.992071358251685278e-05,1.051577982611746701e-05
3.049206349206349032e+00,1.373373963380792246e-05,7.899300503112135024e-06
3.049999999999999822e+00,4.217039150237865018e-06,4.716339424987206656e-06
3.050793650793650613e+00,-8.096618473976125959e-06,1.598581968642725057e-06
3.051587301587301404e+00,-2.231564686639605547e-05,-8.760425149559179892e-07
3.052380952380952195e+00,-3.728996280134401698e-05,-2.364346123747571464e-06
3.053174603174602986e+00,-5.169813031631877664e-05,-2.860465705462712051e-06
3.053968253968253777e+00,-6.411359121257677990e-05,-2.687406376779082413e-06
3.054761904761904567e+00,-7.307261073906966330e-05,-2.384463781418392781e-06
3.055555555555555358e+00,-7.717926304004908006e-05,-2.528344339605955099e-06
3.056349206349206149e+00,-7.526971905345055790e-05,-3.540255827192247013e-06
3.057142857142856940e+00,-6.662617238081492636e-05,-5.531246753719406425e-06
3.057936507936507731e+00,-5.119423898199227459e-05,-8.228197561862094246e-06
3.058730158730158522e+00,-2.973192671994536070e-05,-1.100510254539894417e-05
3.059523809523809312e+00,-3.817124044248752218e-06,-1.301974853337566400e-05
3.060317460317460103e+00,2.432738665022696149e-05,-1.342849547094230904e-05
3.061111111111110894e+00,5.217167517288441749e-05,-1.162823749901580614e-05
3.061904761904761685e+00,7.729331611139998888e-05,-7.461470034294836056e-06
3.062698412698412920e+00,9.774571199334215277e-05,-1.323023137686554768e-06
3.063492063492063711e+00,1.122722520703564619e-04,5.871513589869190146e-06
3.064285714285714501e+00,1.203216616892776724e-04,1.285808553302131697e-05
3.065079365079365292e+00,1.218978955084507748e-04,1.829759124953576514e-05
3.065873015873016083e+00,1.173320791785886064e-04,2.108059311674393235e-05
3.066666666666666874e+00,1.070746377860311803e-04,2.058534192719743260e-05
3.067460317460317665e+00,9.157859714194715973e-05,1.682440477396553928e-05
3.068253968253968456e+00,7.129954326242448996e-05,1.044339044716122553e-05
3.069047619047619246e+00,4.679313004430513541e-05,2.572019571433472556e-06
3.069841269841270037e+00,1.886040742002367129e-05,-5.434316803589785517e-06
3.070634920634920828e+00,-1.131888969692941289e-05,-1.229557096396217043e-05
3.071428571428571619e+00,-4.211556498314530272e-05,-1.707327767990317397e-05
3.072222222222222410e+00,-7.147411621442663224e-05,-1.933633836657740150e-05
3.073015873015873201e+00,-9.704614206613493049e-05,-1.919130122752360344e-05
3.073809523809523991e+00,-1.164437017238887230e-04,-1.718187117994639959e-05
3.074603174603174782e+00,-1.276112231300755549e-04,-1.409719697667437072e-05
3.075396825396825573e+00,-1.292784875345375666e-04,-1.074708516387100531e-05
3.076190476190476364e+00,-1.213943169116765718e-04,-7.762546438892811590e-06
3.076984126984127155e+00,-1.053854778437284071e-04,-5.467168980116055013e-06
3.077777777777777946e+00,-8.409112170574088165e-05,-3.844710396771665466e-06
3.078571428571428736e+00,-6.131338052367211599e-05,-2.604644943353809996e-06
3.079365079365079527e+00,-4.106343635764256111e-05,-1.323292761039863484e-06
3.080158730158730318e+00,-2.669845789245762097e-05,3.816337913446697210e-07
3.080952380952381109e+00,-2.018521949736583034e-05,2.694747501814010151e-06
3.081746031746031900e+00,-2.168283319055168491e-05,5.511323178121966049e-06
3.082539682539682691e+00,-2.953692298042978281e-05,8.436421316769553207e-06
3.083333333333333481e+00,-4.066340837455751820e-05,1.087258373743018566e-05
3.084126984126984272e+00,-5.121171742790710902e-05,1.216859269744320399e-05
3.084920634920635063e+00,-5.735293995539033268e-05,1.178836680737194493e-05
3.085714285714285854e+00,-5.603031207189662822e-05,9.458419849311326373e-06
3.086507936507936645e+00,-4.552479686958979782e-05,5.259998828707139548e-06
3.087301587301587436e+00,-2.572937415927895892e-05,-3.556234784130750664e-07
3.088095238095238226e+00,1.903882195985509064e-06,-6.634390667183561022e-06
3.088888888888889017e+00,3.469701942955418747e-05,-1.265693639248995581e-05
3.089682539682539808e+00,6.925064673011979135e-05,-1.751716780218424201e-05
3.090476190476190599e+00,1.019903782514865333e-04,-2.050161771277901813e-05
3.091269841269841390e+00,1.296453095784323706e-04,-2.122713416876607849e-05
3.092063492063492181e+00,1.495919911285961310e-04,-1.970329011697494258e-05
3.092857142857142971e+00,1.600487843732001088e-04,-1.630531113396227689e-05
3.093650793650793762e+00,1.601482652435251271e-04,-1.166890908601067042e-05
3.094444444444444553e+00,1.499336830086164503e-04,-6.540406152616016110e-06
3.095238095238095344e+00,1.303151926217747199e-04,-1.624006912724524577e-06
3.096031746031746135e+00,1.029961373041269045e-04,2.538869589342660893e-06
3.096825396825396925e+00,7.035868844249332688e-05,5.638794151484489902e-06
3.097619047619047716e+00,3.529226147503036884e-05,7.612432119856874091e-06
3.098412698412698507e+00,9.568766116619205317e-07,8.609439301775708800e-06
3.099206349206349298e+00,-2.951010432204903639e-05,8.926033699298719848e-06
3.100000000000000089e+00,-5.332233698805067981e-05,8.920379176406275989e-06
3.100793650793650880e+00,-6.838241626304475515e-05,8.924393456368749473e-06
3.101587301587301670e+00,-7.360098047675051654e-05,9.167266805197423960e-06
3.102380952380952461e+00,-6.915290241931134675e-05,9.727270810040201682e-06
3.103174603174603252e+00,-5.659948655656409333e-05,1.052618646896155577e-05
3.103968253968254043e+00,-3.879221693003592986e-05,1.137111480465404431e-05
3.104761904761904834e+00,-1.950129856033274570e-05,1.203233540160722857e-05
3.105555555555555625e+00,-2.784030720921007716e-06,1.233000943399969065e-05
3.106349206349206415e+00,7.801216717984993783e-06,1.219648376644419404e-05
3.107142857142857206e+00,9.955665412897383686e-06,1.169010467295122658e-05
3.107936507936507997e+00,3.169084597793677705e-06,1.095694303451810645e-05
3.108730158730158788e+00,-1.114988321865019654e-05,1.015837219729902450e-05
3.109523809523809579e+00,-3.000534276029858652e-05,9.395655195065517033e-06
3.110317460317460370e+00,-4.953223723536765501e-05,8.663460788488550599e-06
3.111111111111111160e+00,-6.590079157076756755e-05,7.853031265728705243e-06
3.111904761904761951e+00,-7.614716056931752767e-05,6.806128782225151894e-06
3.112698412698412742e+00,-7.870429492154508194e-05,5.399451448858725169e-06
3.113492063492063533e+00,-7.352514136770245455e-05,3.624839759957366954e-06
3.114285714285714324e+00,-6.183822336811038484e-05,1.630565877631936019e-06
3.115079365079365115e+00,-4.568193768505513663e-05,-2.962680112180017464e-07
3.115873015873015905e+00,-2.738688503186172634e-05,-1.803775874729705898e-06
3.116666666666666696e+00,-9.129732441423194880e-06,-2.582695987956285599e-06
3.117460317460317487e+00,7.382858413047190630e-06,-2.472049200384536832e-06
3.118253968253968278e+00,2.108562551520933370e-05,-1.527595706958492195e-06
3.119047619047619069e+00,3.158353978749908758e-05,-2.915402111120719481e-08
3.119841269841269860e+00,3.904746030501750521e-05,1.576708222756328686e-06
3.120634920634920650e+00,4.400042416283936553e-05,2.779787262858160213e-06
3.121428571428571441e+00,4.704156323305730631e-05,3.121960415561288085e-06
3.122222222222222232e+00,4.857706529357660888e-05,2.292633647931982785e-06
3.123015873015873023e+00,4.863804813252660094e-05,1.843489762949341169e-07
3.123809523809523814e+00,4.685468135136810981e-05,-3.093638426508750608e-06
3.124603174603174605e+00,4.261851322498120127e-05,-7.233869595413209171e-06
3.125396825396825395e+00,3.540268745876443867e-05,-1.176879224247390255e-05
3.126190476190476186e+00,2.513920466922560607e-05,-1.612150235633881933e-05
3.126984126984126977e+00,1.250408484386386733e-05,-1.966988572127306278e-05
3.127777777777777768e+00,-1.034057744182163334e-06,-2.182770801577241717e-05
3.128571428571428559e+00,-1.347607220995538955e-05,-2.214023400205687202e-05
3.129365079365079350e+00,-2.281946727258290063e-05,-2.038026292973413873e-05
3.130158730158730140e+00,-2.768295094860262186e-05,-1.662093917342573918e-05
3.130952380952380931e+00,-2.779541614589324145e-05,-1.126125490418761607e-05
3.131746031746031722e+00,-2.414908066021135113e-05,-4.989873943589155774e-06
3.132539682539682513e+00,-1.873702314629630846e-05,1.312276382098068628e-06
3.133333333333333304e+00,-1.394799932561678493e-05,6.716626381673898645e-06
3.134126984126984095e+00,-1.181433798127228990e-05,1.041503742442222013e-05
3.134920634920634885e+00,-1.336442318407971229e-05,1.188091496021373700e-05
3.135714285714285676e+00,-1.830316029204828501e-05,1.098953531678111449e-05
3.136507936507936467e+00,-2.513178065914034565e-05,8.066174609719417761e-06
3.137301587301587258e+00,-3.165487769373124378e-05,3.841424515961845156e-06
3.138095238095238049e+00,-3.567741837211751239e-05,-6.878545351416548733e-07
3.138888888888888840e+00,-3.563885979046254720e-05,-4.469576868640289885e-06
3.139682539682539630e+00,-3.098671298068049462e-05,-6.634590188959172864e-06
3.140476190476190421e+00,-2.221488225374032755e-05,-6.703773428950927304e-06
3.141269841269841212e+00,-1.061455230763443518e-05,-4.708390673065026762e-06
3.142063492063492003e+00,2.137798548010261294e-06,-1.187925503708262444e-06
3.142857142857142794e+00,1.440971632983619063e-05,2.938234974959618989e-06
3.143650793650793585e+00,2.493976098144646628e-05,6.594696213598850036e-06
3.144444444444444375e+00,3.299790953270445771e-05,8.813418241719206961e-06
3.145238095238095166e+00,3.837727367617564325e-05,8.970664350303765493e-06
3.146031746031745957e+00,4.126246351051063895e-05,6.939551269508814130e-06
3.146825396825396748e+00,4.204120627920777839e-05,3.122662248867849668e-06
3.147619047619047539e+00,4.112276466570010026e-05,-1.640762352401308373e-06
3.148412698412698330e+00,3.880996765111131868e-05,-6.269182225585124692e-06
3.149206349206349120e+00,3.525173392790544762e-05,-9.688531676581715752e-06
3.149999999999999911e+00,3.048302680826698736e-05,-1.107930180420938415e-05
3.150793650793650702e+00,2.453648999576536443e-05,-1.006270301068376643e-05
3.151587301587301493e+00,1.758413819013293394e-05,-6.781086884552675903e-06
3.152380952380952284e+00,1.004680913484582041e-05,-1.854294720769619521e-06
3.153174603174603075e+00,2.608591602616418621e-06,3.773392371716471832e-06
3.153968253968253865e+00,-3.896099917280446121e-06,9.052979753225881779e-06
3.154761904761904656e+00,-8.699348530490069912e-06,1.306053413517156693e-05
3.155555555555555447e+00,-1.134157820263227821e-05,1.518263031425121872e-05
3.156349206349206238e+00,-1.183789864077753974e-05,1.521830017398844948e-05
3.157142857142857029e+00,-1.069706161113818942e-05,1.338159449432427350e-05
3.157936507936507819e+00,-8.783309405857167232e-06,1.021425437745365028e-05
3.158730158730158610e+00,-7.069767875852891124e-06,6.438448226410445354e-06
3.159523809523809401e+00,-6.359853941343032652e-06,2.789443427155986212e-06
3.160317460317460192e+00,-7.050313581309354325e-06,-1.337123039610549777e-07
3.161111111111110983e+00,-8.990894072094127658e-06,-1.971702871517596045e-06
3.161904761904761774e+00,-1.147301895436950714e-05,-2.648778351065790617e-06
3.162698412698412564e+00,-1.335650659115185418e-05,-2.356427418356926703e-06
3.163492063492063355e+00,-1.331914841864227731e-05,-1.486649710393857186e-06
3.164285714285714146e+00,-1.018950526486375343e-05,-5.311543778606751380e-07
3.165079365079364937e+00,-3.300893419444846008e-06,3.344643504269900719e-08
3.165873015873015728e+00,7.211959140197079319e-06,-1.470291167074148487e-07
3.166666666666666519e+00,2.025625520737956919e-05,-1.224478881929234564e-06
3.167460317460317309e+00,3.383022965896796290e-05,-3.111397541525165776e-06
3.168253968253968100e+00,4.530119588658357749e-05,-5.494319888461754292e-06
3.169047619047618891e+00,5.187603764047957601e-05,-7.896641067613880267e-06
3.169841269841269682e+00,5.117271882283646998e-05,-9.780163864551337315e-06
3.170634920634920473e+00,4.177238778753695103e-05,-1.066613146570385848e-05
3.171428571428571264e+00,2.363244075053818176e-05,-1.025023151645025741e-05
3.172222222222222054e+00,-1.740332906712729547e-06,-8.483872375852811882e-06
3.173015873015872845e+00,-3.142549676855432313e-05,-5.598475407559877869e-06
3.173809523809523636e+00,-6.154427170561034121e-05,-2.062226501830634201e-06
3.174603174603174427e+00,-8.795563556392273295e-05,1.523006180226998309e-06
3.175396825396825218e+00,-1.070280996810047216e-04,4.559926428775910028e-06
3.176190476190476009e+00,-1.162919414316577435e-04,6.594899204685388810e-06
3.176984126984126799e+00,-1.148207780840530817e-04,7.422632400930240903e-06
3.177777777777777590e+00,-1.032765191207407027e-04,7.128207359125013497e-06
3.178571428571428381e+00,-8.363547290909347160e-05,6.052840944014253200e-06
3.179365079365079172e+00,-5.868105840305245721e-05,4.690595764174297272e-06
3.180158730158729963e+00,-3.139980567554493779e-05,3.544341042927667209e-06
3.180952380952380754e+00,-4.436754553826273248e-06,2.981825701779171562e-06
3.181746031746031544e+00,2.026731917223278964e-05,3.131830189932864017e-06
3.182539682539682335e+00,4.161167528650159468e-05,3.848493665174312472e-06
3.183333333333333126e+00,5.927419819817593167e-05,4.754584385365357259e-06
3.184126984126983917e+00,7.351548692626714621e-05,5.354868103689047102e-06
3.184920634920634708e+00,8.490448336403250086e-05,5.191196719326104310e-06
3.185714285714285499e+00,9.400821571416415393e-05,3.996645845618606114e-06
3.186507936507936289e+00,1.010927902812378844e-04,1.802802140213203755e-06
3.187301587301587080e+00,1.059020958982386808e-04,-1.035666822793451359e-06
3.188095238095238315e+00,1.075908567496462352e-04,-3.913576669622641283e-06
3.188888888888889106e+00,1.048664972316063751e-04,-6.131026800276015911e-06
3.189682539682539897e+00,9.633698670379154208e-05,-7.090783743033958341e-06
3.190476190476190688e+00,8.099005914682411188e-05,-6.478270570124823067e-06
3.191269841269841478e+00,5.867195546572004632e-05,-4.366988304075528868e-06
3.192063492063492269e+00,3.041343668646382290e-05,-1.214860532951417249e-06
3.192857142857143060e+00,-1.520721851521801802e-06,2.247744877343007413e-06
3.193650793650793851e+00,-3.390692167418046820e-05,5.204129775949352812e-06
3.194444444444444642e+00,-6.311148739405198350e-05,6.957910441901697897e-06
3.195238095238095433e+00,-8.577852342498379389e-05,7.105179288977293491e-06
3.196031746031746223e+00,-9.948500989652355603e-05,5.630148161095886035e-06
3.196825396825397014e+00,-1.032023082036512724e-04,2.903134358477437436e-06
3.197619047619047805e+00,-9.745110033290298223e-05,-4.170156135892970531e-07
3.198412698412698596e+00,-8.411392261977034966e-05,-3.552474714564454544e-06
3.199206349206349387e+00,-6.596371495909274815e-05,-5.807610683259641001e-06
3.200000000000000178e+00,-4.604627149811707824e-05,-6.751671374766983048e-06
3.200793650793650968e+00,-2.708381303984436412e-05,-6.332964740426039540e-06
3.201587301587301759e+00,-1.103847324276155757e-05,-4.888726993171809059e-06
3.202380952380952550e+00,1.088790357620424657e-06,-3.044383063234171253e-06
3.203174603174603341e+00,9.217044379793182149e-06,-1.531996253899502582e-06
3.203968253968254132e+00,1.395109242432763211e-05,-9.834141604957830933e-07
3.204761904761904923e+00,1.623914543590166217e-05,-1.756982441840764706e-06
3.205555555555555713e+00,1.702128740687930007e-05,-3.841001601908552455e-06
3.206349206349206504e+00,1.695907345518358415e-05,-6.854706542790975464e-06
3.207142857142857295e+00,1.630849245661109400e-05,-1.014580602203057487e-05
3.207936507936508086e+00,1.495637364718767061e-05,-1.296152366451207608e-05
3.208730158730158877e+00,1.259296148901564716e-05,-1.464800134006080465e-05
3.209523809523809668e+00,8.953488949388903694e-06,-1.481968448725265121e-05
3.210317460317460458e+00,4.042862619602230159e-06,-1.344677153779048517e-05
3.211111111111111249e+00,-1.732770358904313973e-06,-1.083600482622437355e-05
3.211904761904762040e+00,-7.571109361038674461e-06,-7.516566840758698580e-06
3.212698412698412831e+00,-1.241740977981303464e-05,-4.073252445137730737e-06
3.213492063492063622e+00,-1.521046581462314792e-05,-9.829694600718732007e-07
3.214285714285714413e+00,-1.516443994483552016e-05,1.495226980200346936e-06
3.215079365079365203e+00,-1.200272561183247173e-05,3.348484299501070077e-06
3.215873015873015994e+00,-6.065644068083593871e-06,4.757822826433076092e-06
3.216666666666666785e+00,1.749233365305258317e-06,5.990451521587691234e-06
3.217460317460317576e+00,1.019616454808858825e-05,7.274420982149856494e-06
3.218253968253968367e+00,1.796836835647024958e-05,8.693342304799569868e-06
3.219047619047619158e+00,2.397047542604242268e-05,1.013065416550441565e-05
3.219841269841269948e+00,2.749857785377908867e-05,1.128012000057907781e-05
3.220634920634920739e+00,2.828824335449230655e-05,1.172336108389249980e-05
3.221428571428571530e+00,2.643794528589845421e-05,1.105743458596957976e-05
3.222222222222222321e+00,2.226015955169630115e-05,9.039290727678416570e-06
3.223015873015873112e+00,1.613863723855126062e-05,5.705199193407892062e-06
3.223809523809523903e+00,8.461053383506615661e-06,1.426813912760832633e-06
3.224603174603174693e+00,-3.486618746267565982e-07,-3.118283383361275047e-06
3.225396825396825484e+00,-9.730544112489100732e-06,-7.060578604709202578e-06
3.226190476190476275e+00,-1.889090560522519615e-05,-9.514408412623443710e-06
3.226984126984127066e+00,-2.677919332805990611e-05,-9.777845990345004112e-06
3.227777777777777857e+00,-3.218525618843342070e-05,-7.511635838948560843e-06
3.228571428571428648e+00,-3.395961142381039000e-05,-2.852145039877838036e-06
3.229365079365079438e+00,-3.131127437842979254e-05,3.577328609992476077e-06
3.230158730158730229e+00,-2.409762913256028065e-05,1.077207370534907622e-05
3.230952380952381020e+00,-1.300432282029873278e-05,1.755393472550970403e-05
3.231746031746031811e+00,4.674883529343275970e-07,2.283497547909611156e-05
3.232539682539682602e+00,1.423541818401511277e-05,2.586438779540199332e-05
3.233333333333333393e+00,2.604978492729966848e-05,2.637932782814327959e-05
3.234126984126984183e+00,3.398330507902878119e-05,2.460336713645832105e-05
3.234920634920634974e+00,3.686277370648883097e-05,2.108966055529513849e-05
