Timestamp,Flexor carpi radialis,Extensor digitorum
2.000000000000000000e+00,4.733230787397004505e-05,6.191600071019653115e-05
2.000793650793650791e+00,4.473681605202770327e-05,8.038466976654805773e-05
2.001587301587301582e+00,4.012614943566240021e-05,8.077470349856827434e-05
2.002380952380952372e+00,3.322944015559981700e-05,6.233610855471498867e-05
2.003174603174603163e+00,2.389761677806348956e-05,2.778681359144820784e-05
2.003968253968253954e+00,1.210373176650829862e-05,-1.688924012952161072e-05
2.004761904761904745e+00,-1.984011040742228082e-06,-6.334678363652533921e-05
2.005555555555555536e+00,-1.789416251738875255e-05,-1.023894515460035081e-04
2.006349206349206327e+00,-3.477612689936244463e-05,-1.257941670834263948e-04
2.007142857142857117e+00,-5.141181418243783178e-05,-1.280302926894010690e-04
2.007936507936507908e+00,-6.633044267424663464e-05,-1.074588505889294640e-04
2.008730158730158699e+00,-7.800215518967211048e-05,-6.673388502936572475e-05
2.009523809523809490e+00,-8.506507453112793229e-05,-1.233297651607953921e-05
2.010317460317460281e+00,-8.654053162890728667e-05,4.665977004963704007e-05
2.011111111111111072e+00,-8.200575501330770449e-05,1.002543603469740135e-04
2.011904761904761862e+00,-7.171275468685975188e-05,1.394017286940443031e-04
2.012698412698412653e+00,-5.665165534952059891e-05,1.576359448947576701e-04
2.013492063492063444e+00,-3.854208671115413756e-05,1.522020401537256041e-04
2.014285714285714235e+00,-1.970428503306693570e-05,1.244562109783167150e-04
2.015079365079365026e+00,-2.750460071952363472e-06,7.947260817054421290e-05
2.015873015873015817e+00,9.911077046360580891e-06,2.496136947227282148e-05
2.016666666666666607e+00,1.665649401056027394e-05,-3.025261300201268706e-05
2.017460317460317398e+00,1.711102830073807138e-05,-7.786379489329365341e-05
2.018253968253968189e+00,1.229352535287555400e-05,-1.115094655074125573e-04
2.019047619047618980e+00,4.349209778016949455e-06,-1.277250400562880673e-04
2.019841269841269771e+00,-4.052170165595520930e-06,-1.262779446872825534e-04
2.020634920634920562e+00,-1.044140347972153243e-05,-1.098544519633819309e-04
2.021428571428571352e+00,-1.315096928751179174e-05,-8.321205413993269220e-05
2.022222222222222143e+00,-1.161547506878599298e-05,-5.202822504656106847e-05
2.023015873015872934e+00,-6.325619870691423173e-06,-2.173014373249599151e-05
2.023809523809523725e+00,1.485508536360497066e-06,3.442824151468625568e-06
2.024603174603174516e+00,1.027640562079144222e-05,2.098933189652288405e-05
2.025396825396825307e+00,1.860213860768886662e-05,3.027062208207814448e-05
2.026190476190476097e+00,2.538658805160338405e-05,3.226811106873508418e-05
2.026984126984126888e+00,3.002336293655260747e-05,2.909110002810054506e-05
2.027777777777777679e+00,3.232879941110907248e-05,2.337005805847875168e-05
2.028571428571428470e+00,3.241193717720716153e-05,1.765941098924844049e-05
2.029365079365079261e+00,3.053622484257794675e-05,1.394687653672568091e-05
2.030158730158730052e+00,2.702637224386070355e-05,1.333644097802210090e-05
2.030952380952380842e+00,2.223562693789118196e-05,1.594335743449675101e-05
2.031746031746031633e+00,1.655514275059463277e-05,2.100597939024829343e-05
2.032539682539682424e+00,1.043363517039500940e-05,2.717545855500167184e-05
2.033333333333333215e+00,4.383276618653970971e-06,3.290056638503709673e-05
2.034126984126984006e+00,-1.035357326932063477e-06,3.680273670516248175e-05
2.034920634920634797e+00,-5.245584811456869534e-06,3.794955957308251688e-05
2.035714285714285587e+00,-7.700900992314321680e-06,3.597909862430758907e-05
2.036507936507936378e+00,-7.946615151831018813e-06,3.108400005615621344e-05
2.037301587301587169e+00,-5.698412288269222691e-06,2.390728805978691032e-05
2.038095238095237960e+00,-9.338387158242352675e-07,1.540825945248092181e-05
2.038888888888888751e+00,6.017547960151927111e-06,6.726233368783454648e-06
2.039682539682539542e+00,1.441402266169382535e-05,-9.685174645411652790e-07
2.040476190476190332e+00,2.311176873044481535e-05,-6.656101731100061833e-06
2.041269841269841123e+00,3.068056852670212020e-05,-9.669374111340378407e-06
2.042063492063491914e+00,3.563190862446113076e-05,-9.863317291001591800e-06
2.042857142857142705e+00,3.672305308492409816e-05,-7.680503613024742537e-06
2.043650793650793496e+00,3.326313269255053379e-05,-4.066490057060396607e-06
2.044444444444444287e+00,2.533330421369743858e-05,-2.412160197834022410e-07
2.045238095238095077e+00,1.384895735995228176e-05,2.615502915121950590e-06
2.046031746031745868e+00,4.340636982479664911e-07,3.675494782832270991e-06
2.046825396825396659e+00,-1.286607529773192372e-05,2.680219734471772777e-06
2.047619047619047450e+00,-2.395866084507818368e-05,5.909162496334753466e-10
2.048412698412698241e+00,-3.106940401000679504e-05,-3.480611800232139757e-06
2.049206349206349032e+00,-3.302117811634435417e-05,-6.631717821305883633e-06
2.049999999999999822e+00,-2.937988281294529600e-05,-8.406849012176306564e-06
2.050793650793650613e+00,-2.045919976758394984e-05,-8.158185831883288540e-06
2.051587301587301404e+00,-7.211126900609430085e-06,-5.837306146975177232e-06
2.052380952380952195e+00,8.942354306857161955e-06,-2.026690069853032783e-06
2.053174603174602986e+00,2.627468227693439154e-05,2.211981337357150295e-06
2.053968253968253777e+00,4.288185714714311031e-05,5.636470064105449660e-06
2.054761904761904567e+00,5.678050804333005660e-05,7.191825807182419162e-06
2.055555555555555358e+00,6.601662489608912444e-05,6.346662077092755314e-06
2.056349206349206149e+00,6.882524348493176698e-05,3.299738290042721083e-06
2.057142857142856940e+00,6.386341232048131438e-05,-1.011057520187545170e-06
2.057936507936507731e+00,5.051423382258339058e-05,-5.114182483705600653e-06
2.058730158730158522e+00,2.921939271904117478e-05,-7.383834382517667499e-06
2.059523809523809312e+00,1.733793160201719193e-06,-6.504042439591477395e-06
2.060317460317460103e+00,-2.885898950520515360e-05,-1.898711507646723261e-06
2.061111111111110894e+00,-5.851312833753982798e-05,5.993111007662543311e-06
2.061904761904761685e+00,-8.298358322181173486e-05,1.568510943949404722e-05
2.062698412698412920e+00,-9.880834621132795060e-05,2.488036320013154609e-05
2.063492063492063711e+00,-1.041850225618510482e-04,3.093123439885258784e-05
2.064285714285714501e+00,-9.941208312127997645e-05,3.142481563406156149e-05
2.065079365079365292e+00,-8.672071542039977085e-05,2.477411539222433714e-05
2.065873015873016083e+00,-6.956326346192990976e-05,1.069264464866581881e-05
2.066666666666666874e+00,-5.162717365209118633e-05,-9.562388733713585257e-06
2.067460317460317665e+00,-3.591572838265004328e-05,-3.326613644246155304e-05
2.068253968253968456e+00,-2.416280863871294628e-05,-5.664833491468974870e-05
2.069047619047619246e+00,-1.668729263664914684e-05,-7.560222830535331332e-05
2.069841269841270037e+00,-1.263271130027844694e-05,-8.654195671900479696e-05
2.070634920634920828e+00,-1.044609014532556554e-05,-8.722583647096735361e-05
2.071428571428571619e+00,-8.438871201212112968e-06,-7.735375130081015521e-05
2.072222222222222410e+00,-5.305743414181189683e-06,-5.876670994389728264e-05
2.073015873015873201e+00,-5.064208642354054001e-07,-3.513868371441572583e-05
2.073809523809523991e+00,5.573831241802118216e-06,-1.117406425845224109e-05
2.074603174603174782e+00,1.174787152591384663e-05,8.510058389350852684e-06
2.075396825396825573e+00,1.643055409708497742e-05,2.050097544232763272e-05
2.076190476190476364e+00,1.821378464670743726e-05,2.336569531621798405e-05
2.076984126984127155e+00,1.641719958807951173e-05,1.785705467244844846e-05
2.077777777777777946e+00,1.140971346098642695e-05,6.526164041490029506e-06
2.078571428571428736e+00,4.577560724210580280e-06,-7.083379341203810674e-06
2.079365079365079527e+00,-2.054259011090758772e-06,-1.937128192599521195e-05
2.080158730158730318e+00,-6.415886441096218814e-06,-2.746902008346165501e-05
2.080952380952381109e+00,-6.999777259964221728e-06,-2.971199383150334387e-05
2.081746031746031900e+00,-3.282961221224761032e-06,-2.576209012229241247e-05
2.082539682539682691e+00,4.162030759523587071e-06,-1.644573556916006858e-05
2.083333333333333481e+00,1.388406539228800942e-05,-3.412947442419181687e-06
2.084126984126984272e+00,2.400654106048198791e-05,1.127698410576550097e-05
2.084920634920635063e+00,3.275496232868799440e-05,2.555487111963590814e-05
2.085714285714285854e+00,3.888731955019139759e-05,3.766204231231931083e-05
2.086507936507936645e+00,4.190801617566729763e-05,4.635541740577984755e-05
2.087301587301587436e+00,4.203648035304633607e-05,5.098887305655547015e-05
2.088095238095238226e+00,3.998797276229023575e-05,5.148847175085073056e-05
2.088888888888889017e+00,3.667169026194450109e-05,4.825871827899758429e-05
2.089682539682539808e+00,3.291138052260438339e-05,4.206345636039983491e-05
2.090476190476190599e+00,2.925930476126960823e-05,3.391554085778308305e-05
2.091269841269841390e+00,2.592666784230236653e-05,2.498986155812181256e-05
2.092063492063492181e+00,2.281467525288795976e-05,1.655414890741014616e-05
2.092857142857142971e+00,1.961533036842714526e-05,9.897437440346244797e-06
2.093650793650793762e+00,1.595632491204948596e-05,6.230132099909249576e-06
2.094444444444444553e+00,1.156974215746559356e-05,6.535825700163978604e-06
2.095238095238095344e+00,6.455682845388197957e-06,1.137569435305868280e-05
2.096031746031746135e+00,9.967176087659488648e-07,2.067726811027557025e-05
2.096825396825396925e+00,-4.025442904879030701e-06,3.356921157333739178e-05
2.097619047619047716e+00,-7.544903452189243881e-06,4.833856742063242270e-05
2.098412698412698507e+00,-8.460147741423003139e-06,6.257510921347696957e-05
2.099206349206349298e+00,-5.974994281945379694e-06,7.352391642011852268e-05
2.100000000000000089e+00,5.448564616840522641e-08,7.859961144046307758e-05
2.100793650793650880e+00,8.883634612436474954e-06,7.594699486488277074e-05
2.101587301587301670e+00,1.886442708054416207e-05,6.489343086160471237e-05
2.102380952380952461e+00,2.771049481762398567e-05,4.615069804271890018e-05
2.103174603174603252e+00,3.300821368528931825e-05,2.169098775516827758e-05
2.103968253968254043e+00,3.283899366232123412e-05,-5.678000776283640792e-06
2.104761904761904834e+00,2.631508697501863274e-05,-3.291983478612667301e-05
2.105555555555555625e+00,1.385000719366385837e-05,-5.738819859527468579e-05
2.106349206349206415e+00,-2.910078956055228872e-06,-7.729357329480111068e-05
2.107142857142857206e+00,-2.142752955302008335e-05,-9.190334922401186826e-05
2.107936507936507997e+00,-3.872976938863490295e-05,-1.014363341498765469e-04
2.108730158730158788e+00,-5.184177957653533856e-05,-1.066991875732936922e-04
2.109523809523809579e+00,-5.816268251315296489e-05,-1.085931266872498108e-04
2.110317460317460370e+00,-5.585536224456415146e-05,-1.076674616153470054e-04
2.111111111111111160e+00,-4.431057476586739520e-05,-1.038859642758005101e-04
2.111904761904761951e+00,-2.461726952240829270e-05,-9.669665512404684578e-05
2.112698412698412742e+00,1.829912166526829216e-07,-8.537823373246122317e-05
2.113492063492063533e+00,2.532072131130064799e-05,-6.952248849635751684e-05
2.114285714285714324e+00,4.513027430415407411e-05,-4.945157421971645850e-05
2.115079365079365115e+00,5.436616337016820420e-05,-2.639234798045707900e-05
2.115873015873015905e+00,4.964854171209149441e-05,-2.328761411055235375e-06
2.116666666666666696e+00,3.057751806397801037e-05,2.041781551140976620e-05
2.117460317460317487e+00,1.195188906973120365e-07,3.972997107982333609e-05
2.118253968253968278e+00,-3.592058554547063946e-05,5.417431360508515812e-05
2.119047619047619069e+00,-7.023730558915665270e-05,6.327526581479287230e-05
2.119841269841269860e+00,-9.579873376702136641e-05,6.751972944523120272e-05
2.120634920634920650e+00,-1.075404900249203165e-04,6.811968309319666132e-05
2.121428571428571441e+00,-1.035015484099895637e-04,6.662715700663456551e-05
2.122222222222222232e+00,-8.511959505455080933e-05,6.452270596226285378e-05
2.123015873015873023e+00,-5.667006408237740961e-05,6.288153313719477473e-05
2.123809523809523814e+00,-2.407272696902188546e-05,6.217492989999055092e-05
2.124603174603174605e+00,6.566745466681507171e-06,6.221558306871459367e-05
2.125396825396825395e+00,3.029089298040413584e-05,6.222761555269281449e-05
2.126190476190476186e+00,4.419761303865032417e-05,6.101944195003197009e-05
2.126984126984126977e+00,4.777369129204224392e-05,5.724216792470649393e-05
2.127777777777777768e+00,4.267719418433319601e-05,4.970913392305433562e-05
2.128571428571428559e+00,3.211579862141402211e-05,3.773022802187593703e-05
2.129365079365079350e+00,2.001450556337474552e-05,2.139126343225591066e-05
2.130158730158730140e+00,1.014570897782056737e-05,1.701621439709286218e-06
2.130952380952380931e+00,5.353456312670738700e-06,-1.944834192598825297e-05
2.131746031746031722e+00,6.979484732785955876e-06,-3.953903708706963706e-05
2.132539682539682513e+00,1.458778546035995056e-05,-5.585341354023264522e-05
2.133333333333333304e+00,2.605798680445077674e-05,-6.601453325828657639e-05
2.134126984126984095e+00,3.805837812908683982e-05,-6.851723394526837137e-05
2.134920634920634885e+00,4.682601936245132793e-05,-6.311895216445246855e-05
2.135714285714285676e+00,4.909907584863746195e-05,-5.096428966409339287e-05
2.136507936507936467e+00,4.299052767914355813e-05,-3.437912171526238470e-05
2.137301587301587258e+00,2.857990781274872261e-05,-1.637419958923388608e-05
2.138095238095238049e+00,8.041745430223068100e-06,5.200053361173366994e-10
2.138888888888888840e+00,-1.476784590457018695e-05,1.226404314993072272e-05
2.139682539682539630e+00,-3.519381018523447317e-05,1.891751342671107054e-05
2.140476190476190421e+00,-4.890854007042302106e-05,1.958574219615559796e-05
2.141269841269841212e+00,-5.296928037831361155e-05,1.490221356020223619e-05
2.142063492063492003e+00,-4.651621687022746462e-05,6.221561179854502681e-06
2.142857142857142794e+00,-3.094174403130544590e-05,-4.730312983426879650e-06
2.143650793650793585e+00,-9.524177672472528038e-06,-1.617686706894521300e-05
2.144444444444444375e+00,1.333985383322979209e-05,-2.653427026623030797e-05
2.145238095238095166e+00,3.309049250193435952e-05,-3.456810414106714678e-05
2.146031746031745957e+00,4.592230837416903306e-05,-3.947234550885593204e-05
2.146825396825396748e+00,4.948131826413268203e-05,-4.088529583154384462e-05
2.147619047619047539e+00,4.322831933436387689e-05,-3.886125172518236471e-05
2.148412698412698330e+00,2.843319355533596414e-05,-3.381567926868889130e-05
2.149206349206349120e+00,7.835535515781570813e-06,-2.644927312828601688e-05
2.149999999999999911e+00,-1.494030570213328959e-05,-1.764193565542721025e-05
2.150793650793650702e+00,-3.609704589632686301e-05,-8.308593204318600296e-06
2.151587301587301493e+00,-5.236902515657901536e-05,7.702870839885383813e-07
2.152380952380952284e+00,-6.158080619557730010e-05,9.101554256197983260e-06
2.153174603174603075e+00,-6.294143702890722333e-05,1.655627388531001937e-05
2.153968253968253865e+00,-5.701828890550413617e-05,2.332293155528469131e-05
2.154761904761904656e+00,-4.542670132537558330e-05,2.973317529946550692e-05
2.155555555555555447e+00,-3.035244713344097711e-05,3.601489364497842887e-05
2.156349206349206238e+00,-1.405560454888197023e-05,4.206974356310883728e-05
2.157142857142857029e+00,1.519887844197856733e-06,4.737350626549134333e-05
2.157936507936507819e+00,1.496556206232212847e-05,5.105354164466009351e-05
2.158730158730158610e+00,2.545534228515158333e-05,5.212665681567199604e-05
2.159523809523809401e+00,3.266667976026810244e-05,4.981503001134602530e-05
2.160317460317460192e+00,3.664429276069073417e-05,4.382651663845499562e-05
2.161111111111110983e+00,3.766993488794944598e-05,3.450023882388207592e-05
2.161904761904761774e+00,3.617647040901869116e-05,2.276922330028753366e-05
2.162698412698412564e+00,3.271114291837580917e-05,9.955430687630675791e-06
2.163492063492063355e+00,2.792514592939255715e-05,-2.536022120712603453e-06
2.164285714285714146e+00,2.255501932672201602e-05,-1.353150179957796215e-05
2.165079365079364937e+00,1.736874408262368546e-05,-2.232242737841938797e-05
2.165873015873015728e+00,1.306987493943431683e-05,-2.875230341958451012e-05
2.166666666666666519e+00,1.017618359051172739e-05,-3.313433074529292067e-05
2.167460317460317309e+00,8.905754613243276261e-06,-3.602875533799325094e-05
2.168253968253968100e+00,9.108809511349542779e-06,-3.795387716543330666e-05
2.169047619047618891e+00,1.027771927669575024e-05,-3.912558182083473144e-05
2.169841269841269682e+00,1.165210894592597340e-05,-3.931187692912089545e-05
2.170634920634920473e+00,1.241207748073151435e-05,-3.785684790278115425e-05
2.171428571428571264e+00,1.192393430768423271e-05,-3.388239206456739456e-05
2.172222222222222054e+00,9.977424529459676212e-06,-2.662518781318474657e-05
2.173015873015872845e+00,6.941660776660835602e-06,-1.581974566318717021e-05
2.173809523809523636e+00,3.776709725003714454e-06,-2.008295745696707073e-06
2.174603174603174427e+00,1.869214304789105465e-06,1.334041513868410940e-05
2.175396825396825218e+00,2.705149716188642366e-06,2.797931529966878381e-05
2.176190476190476009e+00,7.437832280582155114e-06,3.929747629842599959e-05
2.176984126984126799e+00,1.644357438375144308e-05,4.491151934093300135e-05
2.177777777777777590e+00,2.897579501180561415e-05,4.327498592340950205e-05
2.178571428571428381e+00,4.302968107531697744e-05,3.412439461292730299e-05
2.179365079365079172e+00,5.550917352316638286e-05,1.861943814190399269e-05
2.180158730158729963e+00,6.273613911901724041e-05,-8.750298564541763943e-07
2.180952380952380754e+00,6.125368719717221814e-05,-2.130658919824367047e-05
2.181746031746031544e+00,4.876786638867231449e-05,-3.960193093200660793e-05
2.182539682539682335e+00,2.498171592544303391e-05,-5.329349727096207125e-05
2.183333333333333126e+00,-7.954039804956750359e-06,-6.094415025943332524e-05
2.184126984126983917e+00,-4.558791221869239126e-05,-6.228389546648481663e-05
2.184920634920634708e+00,-8.197060309883804426e-05,-5.806304107765622631e-05
2.185714285714285499e+00,-1.109574496173218775e-04,-4.970116167648717075e-05
2.186507936507936289e+00,-1.276557902351443128e-04,-3.885417626035984125e-05
2.187301587301587080e+00,-1.295774178336826072e-04,-2.702554940643144441e-05
2.188095238095238315e+00,-1.171456211020603308e-04,-1.531432210132772264e-05
2.188888888888889106e+00,-9.344035330463886771e-05,-4.336493085697751982e-06
2.189682539682539897e+00,-6.332579949681921988e-05,5.701009459550345083e-06
2.190476190476190688e+00,-3.226923603854712548e-05,1.483337385567003595e-05
2.191269841269841478e+00,-5.184721423368986175e-06,2.314937364478313143e-05
2.192063492063492269e+00,1.444244768561017465e-05,3.064159579396863144e-05
2.192857142857143060e+00,2.501277603080258671e-05,3.713260968311568914e-05
2.193650793650793851e+00,2.682947084239180552e-05,4.228814448049191400e-05
2.194444444444444642e+00,2.174589702251166891e-05,4.570453706281060719e-05
2.195238095238095433e+00,1.257149372700686144e-05,4.704010355349714069e-05
2.196031746031746223e+00,2.384007020240061857e-06,4.615143806309302167e-05
2.196825396825397014e+00,-6.113297367247783249e-06,4.319597158161231208e-05
2.197619047619047805e+00,-1.107740530526313428e-05,3.866973542490457344e-05
2.198412698412698596e+00,-1.177926804286771404e-05,3.336280766837454654e-05
2.199206349206349387e+00,-8.595618812747263024e-06,2.823281366697511570e-05
2.200000000000000178e+00,-2.759854810982614346e-06,2.421605350084099826e-05
2.200793650793650968e+00,4.057576335502056056e-06,2.201267146884614738e-05
2.201587301587301759e+00,1.023162172528137623e-05,2.189386327368691217e-05
2.202380952380952550e+00,1.460652699378776925e-05,2.358266016535815241e-05
2.203174603174603341e+00,1.675673280403127584e-05,2.625168316006402770e-05
2.203968253968254132e+00,1.702717668220393347e-05,2.865899818488089112e-05
2.204761904761904923e+00,1.636058049145717520e-05,2.940971933209293737e-05
2.205555555555555713e+00,1.598007933552031011e-05,2.729534254875530687e-05
2.206349206349206504e+00,1.702826957266751303e-05,2.163588506662938324e-05
2.207142857142857295e+00,2.025944998385300209e-05,1.253941981620788439e-05
2.207936507936508086e+00,2.585117442224490062e-05,1.002159361237660061e-06
2.208730158730158877e+00,3.336301943330185652e-05,-1.120086521465127178e-05
2.209523809523809668e+00,4.183748876808338573e-05,-2.184159839273248308e-05
2.210317460317460458e+00,5.001335627664982146e-05,-2.873439361517794377e-05
2.211111111111111249e+00,5.660349670195793161e-05,-3.029978362371318944e-05
2.211904761904762040e+00,6.057546459970906196e-05,-2.605659323534131598e-05
2.212698412698412831e+00,6.136513103303211432e-05,-1.689680727140872258e-05
2.213492063492063622e+00,5.895814534668356879e-05,-5.034828335282668906e-06
2.214285714285714413e+00,5.380228382089588730e-05,6.401314713667211586e-06
2.215079365079365203e+00,4.657286391645159483e-05,1.407169998311584608e-05
2.215873015873015994e+00,3.788679673920632417e-05,1.525956488643289512e-05
2.216666666666666785e+00,2.810298851247728353e-05,8.616751343877117463e-06
2.217460317460317576e+00,1.731482590755867992e-05,-5.407078078201043870e-06
2.218253968253968367e+00,5.538895925967530969e-06,-2.460410065690372771e-05
2.219047619047619158e+00,-7.009688143621961752e-06,-4.552858567872065194e-05
2.219841269841269948e+00,-1.972223034240641910e-05,-6.434918824867259433e-05
2.220634920634920739e+00,-3.161406364600708363e-05,-7.777015846973708423e-05
2.221428571428571530e+00,-4.157607340289928789e-05,-8.373742076859683268e-05
2.222222222222222321e+00,-4.875221121625128646e-05,-8.172759314066295412e-05
2.223015873015873112e+00,-5.286404832356303375e-05,-7.257204638750432060e-05
2.223809523809523903e+00,-5.433631819184470845e-05,-5.793297066228924106e-05
2.224603174603174693e+00,-5.418935708238317218e-05,-3.965762465606129561e-05
2.225396825396825484e+00,-5.377457214614950605e-05,-1.925174631590530482e-05
2.226190476190476275e+00,-5.446800933030643944e-05,2.360087359606749243e-06
2.226984126984127066e+00,-5.740065606133348000e-05,2.474086157240301117e-05
2.227777777777777857e+00,-6.324368658691853528e-05,4.759021407336822744e-05
2.228571428571428648e+00,-7.203592942811572555e-05,7.029758448902802671e-05
2.229365079365079438e+00,-8.305442454963598762e-05,9.158833305842478418e-05
2.230158730158730229e+00,-9.476342618441012389e-05,1.094172640106971469e-04
2.230952380952381020e+00,-1.048971099718125355e-04,1.211798607796171534e-04
2.231746031746031811e+00,-1.107163348263422994e-04,1.242048097304083944e-04
2.232539682539682602e+00,-1.094348572254944554e-04,1.163977011152351408e-04
2.233333333333333393e+00,-9.875566156656693541e-05,9.685665441598663330e-05
2.234126984126984183e+00,-7.741395221007641206e-05,6.628858848229968745e-05
2.234920634920634974e+00,-4.560317835268058262e-05,2.710870224276651616e-05
2.235714285714285765e+00,-5.170700911756238554e-06,-1.681792661267455494e-05
2.236507936507936556e+00,4.049035521660396801e-05,-6.075308633455394605e-05
2.237301587301587347e+00,8.686531694324033212e-05,-9.986552136963947122e-05
2.238095238095238138e+00,1.290007509741891299e-04,-1.300422215093116249e-04
2.238888888888888928e+00,1.623232346229564230e-04,-1.485429313088895871e-04
2.239682539682539719e+00,1.834255031915668372e-04,-1.543519743239099909e-04
2.240476190476190510e+00,1.906410453489815616e-04,-1.481703978183018864e-04
2.241269841269841301e+00,1.842667143035451466e-04,-1.320905097328777780e-04
2.242063492063492092e+00,1.663790851809234049e-04,-1.090661893580715565e-04
2.242857142857142883e+00,1.403013637584110717e-04,-8.231843634067125708e-05
2.243650793650793673e+00,1.098738596230289515e-04,-5.480216863189794348e-05
2.244444444444444464e+00,7.872396971426209368e-05,-2.882398023001012558e-05
2.245238095238095255e+00,4.970680183354856822e-05,-5.855940680603117413e-06
2.246031746031746046e+00,2.461348342155512232e-05,1.345419115042555290e-05
2.246825396825396837e+00,4.157736832916070164e-06,2.911541555074352618e-05
2.247619047619047628e+00,-1.181769699422218040e-05,4.153633930766519305e-05
2.248412698412698418e+00,-2.401309796306630068e-05,5.125812123279893553e-05
2.249206349206349209e+00,-3.332927868717049401e-05,5.874782330590002283e-05
2.250000000000000000e+00,-4.059524810843292801e-05,6.429281834861108483e-05
2.250793650793650791e+00,-4.640606529436124255e-05,6.799848770308291050e-05
2.251587301587301582e+00,-5.106486064842023846e-05,6.986176193630337162e-05
2.252380952380952372e+00,-5.459687900720699836e-05,6.988171284815291955e-05
2.253174603174603163e+00,-5.680547940159572790e-05,6.816961601545723569e-05
2.253968253968253954e+00,-5.736250250468941353e-05,6.502302420418506058e-05
2.254761904761904745e+00,-5.594705420922168405e-05,6.092886945240065684e-05
2.255555555555555536e+00,-5.244127807893478554e-05,5.646914945800224627e-05
2.256349206349206327e+00,-4.714864062168969849e-05,5.213083901847529193e-05
2.257142857142857117e+00,-4.094420001471960990e-05,4.806891855225317497e-05
2.257936507936507908e+00,-3.524624941261564966e-05,4.391909807064428816e-05
2.258730158730158699e+00,-3.174779593308529527e-05,3.877451393101459201e-05
2.259523809523809490e+00,-3.195047276637158045e-05,3.140446636327444104e-05
2.260317460317460281e+00,-3.664921731151847854e-05,2.070379585550367944e-05
2.261111111111111072e+00,-4.556539140524817308e-05,6.249955152537301195e-06
2.261904761904761862e+00,-5.728840566909773103e-05,-1.123676999337850644e-05
2.262698412698412653e+00,-6.957296125033253682e-05,-2.973812547269123310e-05
2.263492063492063444e+00,-7.989924340331811914e-05,-4.620834841244365985e-05
2.264285714285714235e+00,-8.609950277573204822e-05,-5.724437267633742478e-05
2.265079365079365026e+00,-8.683388736695782720e-05,-5.998406956627986100e-05
2.265873015873015817e+00,-8.176903417359777178e-05,-5.296944351326719606e-05
2.266666666666666607e+00,-7.143738407747175876e-05,-3.670618579792250211e-05
2.267460317460317398e+00,-5.687334005378119064e-05,-1.373560508564025522e-05
2.268253968253968189e+00,-3.918795811080741696e-05,1.181617617058051424e-05
2.269047619047618980e+00,-1.924364246854008448e-05,3.508643862456495527e-05
2.269841269841269771e+00,2.463138477467485001e-06,5.148338697813700240e-05
2.270634920634920562e+00,2.568638139520508171e-05,5.758772870897495316e-05
2.271428571428571352e+00,5.014440649460813552e-05,5.174334032302872586e-05
2.272222222222222143e+00,7.519059461678696441e-05,3.424800980149198302e-05
2.273015873015872934e+00,9.959280923591549203e-05,7.176473757590657477e-06
2.273809523809523725e+00,1.215439841729716461e-04,-2.605132630114614912e-05
2.274603174603174516e+00,1.389446696607325770e-04,-6.122272027504370093e-05
2.275396825396825307e+00,1.498883738245534102e-04,-9.389769872006556981e-05
2.276190476190476097e+00,1.531876916032271299e-04,-1.199245872499834359e-04
2.276984126984126888e+00,1.487488519340332267e-04,-1.358813831759307048e-04
2.277777777777777679e+00,1.376514061472185321e-04,-1.394340759292652559e-04
2.278571428571428470e+00,1.218946911910440383e-04,-1.295963646285930499e-04
2.279365079365079261e+00,1.038847210586019837e-04,-1.068596826597315741e-04
2.280158730158730052e+00,8.581158484263533487e-05,-7.316057920618537129e-05
2.280952380952380842e+00,6.909249908433937569e-05,-3.167683714997019458e-05
2.281746031746031633e+00,5.403661182809245070e-05,1.351691402059485319e-05
2.282539682539682424e+00,3.983590671099627003e-05,5.787735779948385649e-05
2.283333333333333215e+00,2.490678316558689805e-05,9.685548169238300932e-05
2.284126984126984006e+00,7.504738875069333036e-06,1.263766601888227019e-04
2.284920634920634797e+00,-1.356735009080075605e-05,1.433379792676151856e-04
2.285714285714285587e+00,-3.839443819003211632e-05,1.460957107115964026e-04
2.286507936507936378e+00,-6.573360926275109229e-05,1.348486353020867561e-04
2.287301587301587169e+00,-9.322667018807135784e-05,1.117640224614045312e-04
2.288095238095237960e+00,-1.179538719957247731e-04,8.070488017730081357e-05
2.288888888888888751e+00,-1.371214137702391313e-04,4.652735425326541801e-05
2.289682539682539542e+00,-1.486562648167558121e-04,1.408852327010169542e-05
2.290476190476190332e+00,-1.515530785916279876e-04,-1.274910749050612622e-05
2.291269841269841123e+00,-1.459270049602235167e-04,-3.179480020393838383e-05
2.292063492063491914e+00,-1.328233035912177427e-04,-4.267745304869942477e-05
2.292857142857142705e+00,-1.138925140936179498e-04,-4.646829303449412027e-05
2.293650793650793496e+00,-9.104982886557899809e-05,-4.499540432339174857e-05
2.294444444444444287e+00,-6.620609078282289190e-05,-4.016352391493077510e-05
2.295238095238095077e+00,-4.110653771848204818e-05,-3.352811726147832702e-05
2.296031746031745868e+00,-1.726647898936402141e-05,-2.620224679109531878e-05
2.296825396825396659e+00,4.034689174382784777e-06,-1.900475616462507256e-05
2.297619047619047450e+00,2.174550071533117607e-05,-1.267133466198714784e-05
2.298412698412698241e+00,3.505269385859019498e-05,-7.965431566220218773e-06
2.299206349206349032e+00,4.341969339651709637e-05,-5.611937608380474974e-06
2.299999999999999822e+00,4.664131088864150701e-05,-6.082372701772658756e-06
2.300793650793650613e+00,4.489139452511880623e-05,-9.340643073636979634e-06
2.301587301587301404e+00,3.874412942112960247e-05,-1.468543505630033770e-05
2.302380952380952195e+00,2.916300236694212387e-05,-2.079361128135924616e-05
2.303174603174602986e+00,1.746085598892177174e-05,-2.599356663400147926e-05
2.303968253968253777e+00,5.230756155158064233e-06,-2.870742163961504252e-05
2.304761904761904567e+00,-5.765249704271641954e-06,-2.793062275775749410e-05
2.305555555555555358e+00,-1.376858226774379226e-05,-2.359341761996891992e-05
2.306349206349206149e+00,-1.726286542840399393e-05,-1.667617507169412528e-05
2.307142857142856940e+00,-1.525139465481499444e-05,-9.014946370712031290e-06
2.307936507936507731e+00,-7.512537299627506101e-06,-2.815185236630076021e-06
2.308730158730158522e+00,5.241417790132025189e-06,2.562859945891642758e-08
2.309523809523809312e+00,2.136341495754052585e-05,-1.380427306719450623e-06
2.310317460317460103e+00,3.845771846190449333e-05,-6.379340687817685748e-06
2.311111111111110894e+00,5.374128809487246103e-05,-1.257989691754641097e-05
2.311904761904761685e+00,6.452838246006611586e-05,-1.609747557790542090e-05
2.312698412698412920e+00,6.875242729280520518e-05,-1.225627963422604546e-05
2.313492063492063711e+00,6.541962317259014160e-05,3.317407201802630172e-06
2.314285714285714501e+00,5.489057767990378851e-05,3.337386722686864609e-05
2.315079365079365292e+00,3.891178108934593353e-05,7.775985455390537957e-05
2.315873015873016083e+00,2.036630258436095652e-05,1.325409543310985768e-04
2.316666666666666874e+00,2.776310401224842284e-06,1.899078510829125697e-04
2.317460317460317665e+00,-1.034789566071140560e-05,2.391358177869077652e-04
2.318253968253968456e+00,-1.618086757264731280e-05,2.686004916141777215e-04
2.319047619047619246e+00,-1.314718977812569214e-05,2.684844162693360444e-04
2.319841269841270037e+00,-1.279330538606314443e-06,2.334692871178529951e-04
2.320634920634920828e+00,1.769343213641296538e-05,1.645665545942801911e-04
2.321428571428571619e+00,4.055199593268800920e-05,6.940979056512883573e-05
2.322222222222222410e+00,6.308033633305061550e-05,-3.920364816008238621e-05
2.323015873015873201e+00,8.078657820780456127e-05,-1.461451837392105098e-04
2.323809523809523991e+00,8.974142707744303812e-05,-2.373163641227221026e-04
2.324603174603174782e+00,8.738129265611456139e-05,-3.025422284116012018e-04
2.325396825396825573e+00,7.310398252410120327e-05,-3.372142686780923212e-04
2.326190476190476364e+00,4.849198139632990485e-05,-3.423654642274390615e-04
2.326984126984127155e+00,1.704499457938008083e-05,-3.233744151545984947e-04
2.327777777777777946e+00,-1.658955959837019208e-05,-2.878735110995180816e-04
2.328571428571428736e+00,-4.773687654429532981e-05,-2.435699348964570014e-04
2.329365079365079527e+00,-7.285549978119863746e-05,-1.965730833365794618e-04
2.330158730158730318e+00,-9.036331046255917322e-05,-1.505470758596627427e-04
2.330952380952381109e+00,-1.008423623259207256e-04,-1.067076216416798978e-04
2.331746031746031900e+00,-1.065539053470385025e-04,-6.446471729650950016e-05
2.332539682539682691e+00,-1.104423134684777620e-04,-2.240930294320477793e-05
2.333333333333333481e+00,-1.149741082812543792e-04,2.066901323141536129e-05
2.334126984126984272e+00,-1.211911221129265267e-04,6.499579654052395263e-05
2.334920634920635063e+00,-1.282675200334637436e-04,1.094253831908285587e-04
2.335714285714285854e+00,-1.336954699728440886e-04,1.514996518484953275e-04
2.336507936507936645e+00,-1.340326245751484566e-04,1.878785304057453860e-04
2.337301587301587436e+00,-1.259727759212484421e-04,2.149917897617389321e-04
2.338095238095238226e+00,-1.073998049584488885e-04,2.297426012254595107e-04
2.338888888888889017e+00,-7.809720796459343006e-05,2.301186708172734687e-04
2.339682539682539808e+00,-3.991369696178676809e-05,2.156104883191508801e-04
2.340476190476190599e+00,3.622825292351675921e-06,1.873784786400310460e-04
2.341269841269841390e+00,4.807532000819895199e-05,1.481456688658481233e-04
2.342063492063492181e+00,8.898873042856358993e-05,1.018264399527509716e-04
2.342857142857142971e+00,1.226459136077844795e-04,5.294560224145926640e-05
2.343650793650793762e+00,1.465217339364924883e-04,5.956589254313259092e-06
2.344444444444444553e+00,1.593946474898475310e-04,-3.538664174978785570e-05
2.345238095238095344e+00,1.611866722055039450e-04,-6.844833370449230844e-05
2.346031746031746135e+00,1.526662135431894026e-04,-9.183194478783136610e-05
2.346825396825396925e+00,1.351542306270300472e-04,-1.052300509330887136e-04
2.347619047619047716e+00,1.103312382162038407e-04,-1.091303094815623733e-04
2.348412698412698507e+00,8.017126387397082582e-05,-1.045338460227049462e-04
2.349206349206349298e+00,4.695794417434395144e-05,-9.279116829202998325e-05
2.350000000000000089e+00,1.329568011588062331e-05,-7.556671718161131360e-05
2.350793650793650880e+00,-1.797033878190103690e-05,-5.485823725795529576e-05
2.351587301587301670e+00,-4.397289035786042206e-05,-3.295870357477478072e-05
2.352380952380952461e+00,-6.217046625682803743e-05,-1.226894621623146648e-05
2.353174603174603252e+00,-7.075868729324017218e-05,5.061382412061254548e-06
2.353968253968254043e+00,-6.904367845077530590e-05,1.759271815764041857e-05
2.354761904761904834e+00,-5.767028758554386132e-05,2.500006836581796199e-05
2.355555555555555625e+00,-3.862636728537716666e-05,2.824052090896899902e-05
2.356349206349206415e+00,-1.499747026669583620e-05,2.935495528095984899e-05
2.357142857142857206e+00,9.492610031878261396e-06,3.089938539921390908e-05
2.357936507936507997e+00,3.106838189153965336e-05,3.514676376664013454e-05
2.358730158730158788e+00,4.650038952998903968e-05,4.330460733245821380e-05
2.359523809523809579e+00,5.359963047300729040e-05,5.501037005089158495e-05
2.360317460317460370e+00,5.152454043531201779e-05,6.828358514411853963e-05
2.361111111111111160e+00,4.086423063237895847e-05,7.996430581263096475e-05
2.361904761904761951e+00,2.350822581280673251e-05,8.651261587519670814e-05
2.362698412698412742e+00,2.342693615868329744e-06,8.493904812122610084e-05
2.363492063492063533e+00,-1.917683011885045678e-05,7.360660874185874611e-05
2.364285714285714324e+00,-3.752644451359880102e-05,5.269136795973395189e-05
2.365079365079365115e+00,-4.963640915565125815e-05,2.419398485850173813e-05
2.365873015873015905e+00,-5.337239014236321618e-05,-8.470174424112603075e-06
2.366666666666666696e+00,-4.790179714585972521e-05,-4.115167675076379243e-05
2.367460317460317487e+00,-3.387472070996080801e-05,-6.970358055844596916e-05
2.368253968253968278e+00,-1.337211164182372390e-05,-9.058261878561476947e-05
2.369047619047619069e+00,1.038641590438807776e-05,-1.012221316640231502e-04
2.369841269841269860e+00,3.353140046481875781e-05,-1.002013637640314549e-04
2.370634920634920650e+00,5.213480878497498642e-05,-8.730731107510882397e-05
2.371428571428571441e+00,6.278781366339702865e-05,-6.357911420793843074e-05
2.372222222222222232e+00,6.307693631354120310e-05,-3.135662070970856956e-05
2.373015873015873023e+00,5.193020251522048727e-05,5.729170546243837722e-06
2.373809523809523814e+00,2.984591802327292908e-05,4.293422425670168844e-05
2.374603174603174605e+00,-9.985969506759356889e-07,7.484084674922325011e-05
2.375396825396825395e+00,-3.681650258467968534e-05,9.607461935868593587e-05
2.376190476190476186e+00,-7.255358366060246894e-05,1.022159415220222622e-04
2.376984126984126977e+00,-1.025632136807772828e-04,9.073777573017736823e-05
2.377777777777777768e+00,-1.215694358260918238e-04,6.175049435292740546e-05
2.378571428571428559e+00,-1.257445759098812068e-04,1.833259748436090656e-05
2.379365079365079350e+00,-1.136341245092353634e-04,-3.371280900530316974e-05
2.380158730158730140e+00,-8.664823446354977276e-05,-8.671092446115141717e-05
2.380952380952380931e+00,-4.892530657762631251e-05,-1.324547744087591810e-04
2.381746031746031722e+00,-6.543818664322724502e-06,-1.637674068607344402e-04
2.382539682539682513e+00,3.373872727246560643e-05,-1.759378467801307755e-04
2.383333333333333304e+00,6.588317892993065183e-05,-1.676751464755178820e-04
2.384126984126984095e+00,8.572250553224718432e-05,-1.413136601527338089e-04
2.384920634920634885e+00,9.158575932635144151e-05,-1.021910811047507887e-04
2.385714285714285676e+00,8.429529268163270565e-05,-5.736541461422758458e-05
2.386507936507936467e+00,6.664214116099951874e-05,-1.404063647928751407e-05
2.387301587301587258e+00,4.258027940436534883e-05,2.186261106037192412e-05
2.388095238095238049e+00,1.640844640550593361e-05,4.665048254095665063e-05
2.388888888888888840e+00,-7.867584284604917070e-06,5.917083165779034797e-05
2.389682539682539630e+00,-2.693370311952033756e-05,6.055954881997343598e-05
2.390476190476190421e+00,-3.839209041513036690e-05,5.360856519077155009e-05
2.391269841269841212e+00,-4.092737874925994466e-05,4.197891496113368304e-05
2.392063492063492003e+00,-3.448464343464915244e-05,2.944189040341911205e-05
2.392857142857142794e+00,-2.042115125902248845e-05,1.926171031140106119e-05
2.393650793650793585e+00,-1.497191936377197546e-06,1.377013626125492115e-05
2.394444444444444375e+00,1.844202582163860033e-05,1.414099056390883880e-05
2.395238095238095166e+00,3.514774225963027284e-05,2.034813751948977932e-05
2.396031746031745957e+00,4.490300220504164400e-05,3.127939941774288834e-05
2.396825396825396748e+00,4.545026427884283531e-05,4.497877911541459480e-05
2.397619047619047539e+00,3.659585809628617705e-05,5.899297431239545933e-05
2.398412698412698330e+00,2.026491745912411538e-05,7.079148133016282727e-05
2.399206349206349120e+00,-2.223123372950810571e-08,7.820620845436188854e-05
2.399999999999999911e+00,-2.007239374001946740e-05,7.980904035460033871e-05
2.400793650793650702e+00,-3.603861819250183052e-05,7.513689356537503396e-05
2.401587301587301493e+00,-4.524017641867579754e-05,6.469999936361586670e-05
2.402380952380952284e+00,-4.659399677214533171e-05,4.977124008168870941e-05
2.403174603174603075e+00,-4.061224768508943546e-05,3.203137508100331040e-05
2.403968253968253865e+00,-2.904609215553268214e-05,1.319744330603266267e-05
2.404761904761904656e+00,-1.433086594356816355e-05,-5.244364742679241154e-06
2.405555555555555447e+00,9.945887706057192950e-07,-2.214375139478428489e-05
2.406349206349206238e+00,1.475325221717577336e-05,-3.665475399042282306e-05
2.407142857142857029e+00,2.540232759097587619e-05,-4.814756065362163061e-05
2.407936507936507819e+00,3.210962593381198437e-05,-5.614482128228551595e-05
2.408730158730158610e+00,3.468992231444496414e-05,-6.032289434597388870e-05
2.409523809523809401e+00,3.347744515651461463e-05,-6.056972267187687162e-05
2.410317460317460192e+00,2.919052031256944105e-05,-5.706189579915373528e-05
2.411111111111110983e+00,2.280813012234903517e-05,-5.031832095820104481e-05
2.411904761904761774e+00,1.545280249299075393e-05,-4.119647540954167274e-05
2.412698412698412564e+00,8.268843018482953955e-06,-3.081262540459618225e-05
2.413492063492063355e+00,2.292848532313479022e-06,-2.038920883963472069e-05
2.414285714285714146e+00,-1.674957259289248537e-06,-1.105711462272762785e-05
2.415079365079364937e+00,-3.181023628753389925e-06,-3.658643523811134015e-06
2.415873015873015728e+00,-2.188620788713515692e-06,1.398647920683568101e-06
2.416666666666666519e+00,9.137452172815892744e-07,4.196299276825344962e-06
2.417460317460317309e+00,5.381493121924214577e-06,5.246252532545438644e-06
2.418253968253968100e+00,1.026146392965224485e-05,5.326743918905934384e-06
2.419047619047618891e+00,1.459310334358224117e-05,5.255547014576061590e-06
2.419841269841269682e+00,1.761163148456466979e-05,5.671537100519758201e-06
2.420634920634920473e+00,1.888914743632406278e-05,6.898036860500449245e-06
2.421428571428571264e+00,1.836379496175164611e-05,8.930821550934284686e-06
2.422222222222222054e+00,1.624422837046460058e-05,1.154210895754309400e-05
2.423015873015872845e+00,1.281978696566020342e-05,1.444333151585643197e-05
2.423809523809523636e+00,8.239937741657000348e-06,1.742761038104704768e-05
2.424603174603174427e+00,2.344159419562603735e-06,2.042912778001736520e-05
2.425396825396825218e+00,-5.375689291687619923e-06,2.348200817998968848e-05
2.426190476190476009e+00,-1.562167544039769947e-05,2.661017604997977448e-05
2.426984126984126799e+00,-2.894254656621867089e-05,2.970675644632322999e-05
2.427777777777777590e+00,-4.527538867007130239e-05,3.245876952013476756e-05
2.428571428571428381e+00,-6.354022736996364133e-05,3.435034516069055793e-05
2.429365079365079172e+00,-8.148271840156909871e-05,3.475076040351802233e-05
2.430158730158729963e+00,-9.590679505722678698e-05,3.307019600303087666e-05
2.430952380952380754e+00,-1.033091428808763162e-04,2.894666930700936217e-05
2.431746031746031544e+00,-1.007707727687725689e-04,2.241295243519362147e-05
2.432539682539682335e+00,-8.684378777564184728e-05,1.398812685047745103e-05
2.433333333333333126e+00,-6.214381148588588423e-05,4.651509659597819602e-06
2.434126984126983917e+00,-2.943474302280653715e-05,-4.313249423678225083e-06
2.434920634920634708e+00,6.852766532861972059e-06,-1.157879461002176169e-05
2.435714285714285499e+00,4.154769269747707647e-05,-1.608215264184854193e-05
2.436507936507936289e+00,6.984488995294994764e-05,-1.730441038280227365e-05
2.437301587301587080e+00,8.827176455795302217e-05,-1.544565051082861975e-05
2.438095238095238315e+00,9.525593765241542339e-05,-1.143832530112253222e-05
2.438888888888889106e+00,9.118708183480646150e-05,-6.778402072728168047e-06
2.439682539682539897e+00,7.804117280050958561e-05,-3.197185536243265438e-06
2.440476190476190688e+00,5.875333355080459609e-05,-2.236367378597438515e-06
2.441269841269841478e+00,3.654972930092868782e-05,-4.816009734762338207e-06
2.442063492063492269e+00,1.439971653689060794e-05,-1.089547258727526188e-05
2.442857142857143060e+00,-5.329166119581286701e-06,-1.931822182502288920e-05
2.443650793650793851e+00,-2.100530452432611126e-05,-2.790150390774515045e-05
2.444444444444444642e+00,-3.170356345615230542e-05,-3.378436734999958155e-05
2.445238095238095433e+00,-3.709024810801340836e-05,-3.399298922149420415e-05
2.446031746031746223e+00,-3.730160990140357884e-05,-2.613337001633013536e-05
2.446825396825397014e+00,-3.286514716312683630e-05,-9.085803982727252902e-06
2.447619047619047805e+00,-2.466383285820053468e-05,1.644422394876488100e-05
2.448412698412698596e+00,-1.390134781414292772e-05,4.766437368224615346e-05
2.449206349206349387e+00,-2.014825323957839916e-06,7.984238168486155855e-05
2.450000000000000178e+00,9.494968372020730051e-06,1.069208695241831647e-04
2.450793650793650968e+00,1.930053255484679773e-05,1.225641848797356264e-04
2.451587301587301759e+00,2.648956813501173962e-05,1.214818087502126986e-04
2.452380952380952550e+00,3.072604762536275001e-05,1.007568180007228578e-04
2.453174603174603341e+00,3.226055088129573217e-05,6.083975887036713109e-05
2.453968253968254132e+00,3.177235482134651228e-05,5.891143581579064575e-06
2.454761904761904923e+00,3.008878762749028123e-05,-5.671423479173930685e-05
2.455555555555555713e+00,2.787372469078718587e-05,-1.176943503702969048e-04
2.456349206349206504e+00,2.539465415846889381e-05,-1.677120530980802772e-04
2.457142857142857295e+00,2.246303356952685621e-05,-1.993193685444776984e-04
2.457936507936508086e+00,1.859293701754875138e-05,-2.084838302202604891e-04
2.458730158730158877e+00,1.334562509200543513e-05,-1.952954283883625230e-04
2.459523809523809668e+00,6.747019176859980743e-06,-1.636959686323387776e-04
2.460317460317460458e+00,-3.880101123762598447e-07,-1.203589724321399950e-04
2.461111111111111249e+00,-6.390873664744376209e-06,-7.307199491717083074e-05
2.461904761904762040e+00,-9.035313450402353356e-06,-2.906636561121940605e-05
2.462698412698412831e+00,-6.175612126738555077e-06,6.304806000762176263e-06
2.463492063492063622e+00,3.429285271075337621e-06,3.028175402247456184e-05
2.464285714285714413e+00,1.936590875411913068e-05,4.273354629314397374e-05
2.465079365079365203e+00,3.917740354470783035e-05,4.561884495636263197e-05
2.465873015873015994e+00,5.855299412222958195e-05,4.210233628576808977e-05
2.466666666666666785e+00,7.216010565733139504e-05,3.560246924342506356e-05
2.467460317460317576e+00,7.498305409036609410e-05,2.901006862416196115e-05
2.468253968253968367e+00,6.383442847487233516e-05,2.422532441160234429e-05
2.469047619047619158e+00,3.857372104081238905e-05,2.204954613057861818e-05
2.469841269841269948e+00,2.574081035218705152e-06,2.237096913315429926e-05
2.470634920634920739e+00,-3.783412558926154892e-05,2.452212043221404334e-05
2.471428571428571530e+00,-7.488091777304937263e-05,2.766761986011751360e-05
2.472222222222222321e+00,-1.014186112233048359e-04,3.110271717080140475e-05
2.473015873015873112e+00,-1.128872241744532977e-04,3.439449476326355822e-05
2.473809523809523903e+00,-1.085472909397734286e-04,3.736376173557567941e-05
2.474603174603174693e+00,-9.157649729743119955e-05,3.996433352802037286e-05
2.475396825396825484e+00,-6.799939790449052257e-05,4.214592952788431428e-05
2.476190476190476275e+00,-4.480229179457051664e-05,4.377725836586679144e-05
2.476984126984127066e+00,-2.784809485356692433e-05,4.466485832378597925e-05
2.477777777777777857e+00,-2.025743705214775426e-05,4.465262660198508689e-05
2.478571428571428648e+00,-2.174535152533503077e-05,4.374999333783803434e-05
2.479365079365079438e+00,-2.906580665144364295e-05,4.222554217231920954e-05
2.480158730158730229e+00,-3.734284150873042399e-05,4.061564373733940453e-05
2.480952380952381020e+00,-4.179095723223184567e-05,3.962538612901943865e-05
2.481746031746031811e+00,-3.924590886983835220e-05,3.993243245394245775e-05
2.482539682539682602e+00,-2.905560840286791643e-05,4.193558856721301710e-05
2.483333333333333393e+00,-1.313924407187296974e-05,4.551311244268049495e-05
2.484126984126984183e+00,4.713273939777037380e-06,4.986708764156228354e-05
2.484920634920634974e+00,2.004436189330124519e-05,5.352385652938645484e-05
2.485714285714285765e+00,2.908286813172421270e-05,5.452934984878856251e-05
2.486507936507936556e+00,2.987558265658381965e-05,5.082357761343508007e-05
2.487301587301587347e+00,2.287339473319930906e-05,4.072016525214069635e-05
2.488095238095238138e+00,1.078967195642462495e-05,2.338210419784855846e-05
2.488888888888888928e+00,-2.234049305557702735e-06,-8.145863364340471980e-07
2.489682539682539719e+00,-1.189097727177213785e-05,-3.011316397141769631e-05
2.490476190476190510e+00,-1.499035716417366433e-05,-6.145588151699386782e-05
2.491269841269841301e+00,-1.034921899314960521e-05,-9.082541386759712004e-05
2.492063492063492092e+00,9.680583661350448479e-07,-1.138161469117693260e-04
2.492857142857142883e+00,1.610401208173345471e-05,-1.263518111441184230e-04
2.493650793650793673e+00,3.138437094916181900e-05,-1.254234505252729804e-04
2.494444444444444464e+00,4.350230466470181019e-05,-1.097047201567805959e-04
2.495238095238095255e+00,5.055993181245471945e-05,-7.991862275737285403e-05
2.496031746031746046e+00,5.268256031359976597e-05,-3.887834278270382897e-05
2.496825396825396837e+00,5.204682141671901585e-05,8.809925077127962476e-06
2.497619047619047628e+00,5.229559810491582754e-05,5.733428788056347359e-05
2.498412698412698418e+00,5.743260120142944832e-05,1.004680924893602741e-04
2.499206349206349209e+00,7.041332840049149789e-05,1.324591799579514270e-04
2.500000000000000000e+00,9.177601579454824259e-05,1.488976748223087582e-04
2.500793650793650791e+00,1.187371586585925015e-04,1.474227594494388009e-04
2.501587301587301582e+00,1.451391127359611853e-04,1.281195880746863300e-04
2.502380952380952372e+00,1.624451893870709881e-04,9.349274866725498638e-05
2.503174603174603163e+00,1.616726175989686228e-04,4.799867989393554775e-05
2.503968253968253954e+00,1.358435998635654706e-04,-2.753956410539592465e-06
2.504761904761904745e+00,8.232861587683482996e-05,-5.293192221680085506e-05
2.505555555555555536e+00,4.412937228302050756e-06,-9.731405963198657436e-05
2.506349206349206327e+00,-8.845178707931010398e-05,-1.318830658617480597e-04
2.507142857142857117e+00,-1.819588976628972973e-04,-1.541199115886836139e-04
2.507936507936507908e+00,-2.596675149157527153e-04,-1.630350955518664817e-04
2.508730158730158699e+00,-3.065637209853280115e-04,-1.590174835479232318e-04
2.509523809523809490e+00,-3.125934658532838529e-04,-1.435883405302486337e-04
2.510317460317460281e+00,-2.752299382272395964e-04,-1.191240373220321902e-04
2.511111111111111072e+00,-2.003539504204090516e-04,-8.857042373632567785e-05
2.511904761904761862e+00,-1.011781305697288699e-04,-5.514142730682303569e-05
2.512698412698412653e+00,4.520357986974783952e-06,-2.199700114388895860e-05
2.513492063492063444e+00,9.816718609414914793e-05,8.075993895487996682e-06
2.514285714285714235e+00,1.642617337498718071e-04,3.293434821685850550e-05
2.515079365079365026e+00,1.934763653814968300e-04,5.125792511359826282e-05
2.515873015873015817e+00,1.843103911014125698e-04,6.261029354001648403e-05
2.516666666666666607e+00,1.429597070333439384e-04,6.736400282192094751e-05
2.517460317460317398e+00,8.147771744774054599e-05,6.649059723844525846e-05
2.518253968253968189e+00,1.471378211142318154e-05,6.125372688832437075e-05
2.519047619047618980e+00,-4.318448491885509605e-05,5.289124608083845810e-05
2.519841269841269771e+00,-8.182350799094177077e-05,4.239016275959774988e-05
2.520634920634920562e+00,-9.644197199109798117e-05,3.042121701261160489e-05
2.521428571428571352e+00,-8.824863912421619661e-05,1.742721354370168748e-05
2.522222222222222143e+00,-6.330145869191071677e-05,3.800872873380867584e-06
2.523015873015872934e+00,-3.038627522097319536e-05,-9.924783933910901233e-06
2.523809523809523725e+00,1.451506118447161774e-06,-2.293341085244057876e-05
2.524603174603174516e+00,2.507908101176737795e-05,-3.407656556968288042e-05
2.525396825396825307e+00,3.668039112153039405e-05,-4.196066665578614173e-05
2.526190476190476097e+00,3.617580717456281709e-05,-4.518691917167213623e-05
2.526984126984126888e+00,2.669814733723086000e-05,-4.270710641294851739e-05
2.527777777777777679e+00,1.336477404599770413e-05,-3.419873593791110958e-05
2.528571428571428470e+00,1.701373578172187825e-06,-2.033447025332937836e-05
2.529365079365079261e+00,-3.893738627154995303e-06,-2.838536679165032699e-06
2.530158730158730052e+00,-1.294946216255964909e-06,1.572251784926570966e-05
2.530952380952380842e+00,8.848094238839975147e-06,3.239390870702982267e-05
2.531746031746031633e+00,2.336002208145922983e-05,4.443549955572474616e-05
2.532539682539682424e+00,3.747382364485269795e-05,4.992376549045657492e-05
2.533333333333333215e+00,4.619613714866348199e-05,4.819768408374142842e-05
2.534126984126984006e+00,4.571419354317607034e-05,4.003912865053914962e-05
2.534920634920634797e+00,3.443989706038052054e-05,2.754469671794371302e-05
2.535714285714285587e+00,1.342083569173470736e-05,1.370415441236418798e-05
2.536507936507936378e+00,-1.392920705817254184e-05,1.753974136259167991e-06
2.537301587301587169e+00,-4.263185658552650086e-05,-5.564163945749129484e-06
2.538095238095237960e+00,-6.723892053190383172e-05,-6.656527256585919274e-06
2.538888888888888751e+00,-8.297995192426840751e-05,-1.453645000819806255e-06
2.539682539682539542e+00,-8.674224535778656865e-05,8.613052156000937078e-06
2.540476190476190332e+00,-7.767863959796672275e-05,2.104197462170505120e-05
2.541269841269841123e+00,-5.729346408507935475e-05,3.298946787720572068e-05
2.542063492063491914e+00,-2.898983096882425743e-05,4.210193692470441435e-05
2.542857142857142705e+00,2.769276907541938545e-06,4.722304474407342813e-05
2.543650793650793496e+00,3.342357690453898710e-05,4.876129732254243015e-05
2.544444444444444287e+00,5.914410659538319728e-05,4.857262111737056424e-05
2.545238095238095077e+00,7.736271427716521511e-05,4.933841714809203698e-05
2.546031746031745868e+00,8.695136443878730928e-05,5.358064119535934565e-05
2.546825396825396659e+00,8.809235425724700071e-05,6.259939330450989281e-05
2.547619047619047450e+00,8.193939024308589556e-05,7.568127780751932141e-05
2.548412698412698241e+00,7.019414657256520067e-05,8.986996510155859585e-05
2.549206349206349032e+00,5.471366198994073873e-05,1.004282175261247522e-04
2.549999999999999822e+00,3.722865590399365146e-05,1.019141657819099830e-04
2.550793650793650613e+00,1.920649103152060510e-05,8.961588721948432392e-05
2.551587301587301404e+00,1.846467775328729164e-06,6.098367504350375636e-05
2.552380952380952195e+00,-1.384473697970829168e-05,1.668210472029940168e-05
2.553174603174602986e+00,-2.697360641998537806e-05,-3.904616828589956408e-05
2.553968253968253777e+00,-3.674575083444578660e-05,-9.886075642536125733e-05
2.554761904761904567e+00,-4.254488480381717324e-05,-1.535944394313032283e-04
2.555555555555555358e+00,-4.407215453724713561e-05,-1.940482976233397336e-04
2.556349206349206149e+00,-4.146596628926967911e-05,-2.128945039838478308e-04
2.557142857142856940e+00,-3.531756116312835628e-05,-2.062339907791225656e-04
2.557936507936507731e+00,-2.654511574592887752e-05,-1.744478169642016028e-04
2.558730158730158522e+00,-1.616663773545616676e-05,-1.221643549321673068e-04
2.559523809523809312e+00,-5.070850634213330633e-06,-5.737409401994709773e-05
2.560317460317460103e+00,6.112275921888587659e-06,1.009332923407583693e-05
2.561111111111110894e+00,1.698964596526627213e-05,7.038489992560548008e-05
2.561904761904761685e+00,2.724880429261580545e-05,1.153277442790124875e-04
2.562698412698412920e+00,3.644184775931398065e-05,1.396508993306361181e-04
2.563492063492063711e+00,4.381458080002632958e-05,1.414999920750530300e-04
2.564285714285714501e+00,4.827940447378039962e-05,1.222372451053635792e-04
2.565079365079365292e+00,4.858175969632751455e-05,8.572361768404801290e-05
2.565873015873016083e+00,4.363164133574907750e-05,3.738065955980980138e-05
2.566666666666666874e+00,3.289752368335376856e-05,-1.670356802227761662e-05
2.567460317460317665e+00,1.672806202023036486e-05,-7.048024342340947050e-05
2.568253968253968456e+00,-3.509310968649638258e-06,-1.184385588086275245e-04
2.569047619047619246e+00,-2.552614829268033317e-05,-1.559539944054804739e-04
2.569841269841270037e+00,-4.644191353216825839e-05,-1.795575418935535235e-04
2.570634920634920828e+00,-6.329189759849835055e-05,-1.871668674978645890e-04
2.571428571428571619e+00,-7.361835436453784793e-05,-1.782646912759988449e-04
2.572222222222222410e+00,-7.600830639628565705e-05,-1.539602997396650238e-04
2.573015873015873201e+00,-7.042698709344423383e-05,-1.168654062624923566e-04
2.573809523809523991e+00,-5.823841796914727605e-05,-7.076627192650353779e-05
2.574603174603174782e+00,-4.190547701484010289e-05,-2.014577942487189103e-05
2.575396825396825573e+00,-2.447409624722473865e-05,3.034494867309009259e-05
2.576190476190476364e+00,-9.004085203902590379e-06,7.636549232426352867e-05
2.576984126984127155e+00,1.918164171214989517e-06,1.142515593193352464e-04
2.577777777777777946e+00,6.533744962851833143e-06,1.412535600284147124e-04
2.578571428571428736e+00,4.156492727393538618e-06,1.556762435279204499e-04
2.579365079365079527e+00,-4.654975829416973774e-06,1.569589174889702253e-04
2.580158730158730318e+00,-1.802301661586261654e-05,1.457141831242455795e-04
2.580952380952381109e+00,-3.287493163020300656e-05,1.237042801367288438e-04
2.581746031746031900e+00,-4.537541881196084523e-05,9.370424650051025297e-05
2.582539682539682691e+00,-5.168048795554291481e-05,5.920482824834024402e-05
2.583333333333333481e+00,-4.886267716909080134e-05,2.395563046699887292e-05
2.584126984126984272e+00,-3.572843043472372619e-05,-8.576530159790438220e-06
2.584920634920635063e+00,-1.324099070695341849e-05,-3.569907648991207222e-05
2.585714285714285854e+00,1.561047807978955379e-05,-5.579429614865404286e-05
2.586507936507936645e+00,4.645793734438054593e-05,-6.834661235309218250e-05
2.587301587301587436e+00,7.450890122903521884e-05,-7.370915736317824223e-05
2.588095238095238226e+00,9.552069641259074216e-05,-7.271172567556144614e-05
2.588888888888889017e+00,1.065372195275012934e-04,-6.625941928002801820e-05
2.589682539682539808e+00,1.062481677424581376e-04,-5.505934012073319565e-05
2.590476190476190599e+00,9.498270592807888399e-05,-3.955106751989237489e-05
2.591269841269841390e+00,7.446269157341453549e-05,-2.003807698524302339e-05
2.592063492063492181e+00,4.746142668559469194e-05,3.043906379803316880e-06
2.592857142857142971e+00,1.745231512378211854e-05,2.881624946789014893e-05
2.593650793650793762e+00,-1.174926721847560877e-05,5.570686584747474386e-05
2.594444444444444553e+00,-3.638684128160151160e-05,8.135594293220440015e-05
2.595238095238095344e+00,-5.322234784607208889e-05,1.027508443933225604e-04
2.596031746031746135e+00,-6.001618717758126466e-05,1.166149797218956843e-04
2.596825396825396925e+00,-5.594073714824334163e-05,1.200045509141347714e-04
2.597619047619047716e+00,-4.182342048939460149e-05,1.109922150610724497e-04
2.598412698412698507e+00,-2.013615591157453933e-05,8.926691478587910891e-05
2.599206349206349298e+00,5.304576638294437292e-06,5.647752665898006627e-05
2.600000000000000089e+00,2.990565755565966429e-05,1.619739709111170232e-05
2.600793650793650880e+00,4.905728222547565026e-05,-2.652758970799161804e-05
2.601587301587301670e+00,5.896274355711134498e-05,-6.598297738925002550e-05
2.602380952380952461e+00,5.738268344585919920e-05,-9.678289366865444132e-05
2.603174603174603252e+00,4.412825391804378540e-05,-1.148447617925243801e-04
2.603968253968254043e+00,2.116531102524853991e-05,-1.181286090285074534e-04
2.604761904761904834e+00,-7.731432589214906395e-06,-1.069847034263976196e-04
2.605555555555555625e+00,-3.771777609081452322e-05,-8.403924582341824781e-05
2.606349206349206415e+00,-6.383553203297266481e-05,-5.364260467835920863e-05
2.607142857142857206e+00,-8.193660777566186639e-05,-2.099560312680144299e-05
2.607936507936507997e+00,-8.934747936952359222e-05,8.859991413494349563e-06
2.608730158730158788e+00,-8.515075653936772884e-05,3.196997840515438533e-05
2.609523809523809579e+00,-7.010112361815866314e-05,4.611690058445273247e-05
2.610317460317460370e+00,-4.630083277055774732e-05,5.105528309807993623e-05
2.611111111111111160e+00,-1.678957431158247389e-05,4.829715954971421516e-05
2.611904761904761951e+00,1.484314713483145719e-05,4.052702294605431779e-05
2.612698412698412742e+00,4.479755474027520529e-05,3.082334817784512955e-05
2.613492063492063533e+00,6.939719095706046667e-05,2.190853834309506530e-05
2.614285714285714324e+00,8.547537072414826973e-05,1.562095483852495788e-05
2.615079365079365115e+00,9.083014691465918580e-05,1.271046217523697209e-05
2.615873015873015905e+00,8.468296825476393723e-05,1.293966033060526841e-05
2.616666666666666696e+00,6.800533072138054906e-05,1.537973192409523835e-05
2.617460317460317487e+00,4.356418163042087972e-05,1.876369799082906159e-05
2.618253968253968278e+00,1.559787444157356001e-05,2.180061243866517892e-05
2.619047619047619069e+00,-1.085885441738284327e-05,2.342034389872240543e-05
2.619841269841269860e+00,-3.088689709764160353e-05,2.296137910664013614e-05
2.620634920634920650e+00,-4.067222136929573044e-05,2.031203998956486657e-05
2.621428571428571441e+00,-3.840535241752040732e-05,1.598243455948791233e-05
2.622222222222222232e+00,-2.491296613148467079e-05,1.105494270013683237e-05
2.623015873015873023e+00,-3.823213250726448997e-06,6.965772073511209047e-06
2.623809523809523814e+00,1.891347909279058606e-05,5.115064894403775818e-06
2.624603174603174605e+00,3.620509822635415055e-05,6.370322250614862751e-06
2.625396825396825395e+00,4.153199422776330217e-05,1.059426845940670836e-05
2.626190476190476186e+00,3.077485551873264592e-05,1.637272610906419378e-05
2.626984126984126977e+00,3.589845004751047289e-06,2.111341037322012564e-05
2.627777777777777768e+00,-3.616591004002866913e-05,2.160338935847353574e-05
2.628571428571428559e+00,-8.115171109561966666e-05,1.494941657542151753e-05
2.629365079365079350e+00,-1.221862600758820395e-04,-3.660482306179135100e-07
2.630158730158730140e+00,-1.502888348112801844e-04,-2.370206306699224923e-05
2.630952380952380931e+00,-1.585319824938749979e-04,-5.209885101713466625e-05
2.631746031746031722e+00,-1.433031258803985867e-04,-8.087038519675218392e-05
2.632539682539682513e+00,-1.048538175788593841e-04,-1.047767331549412855e-04
2.633333333333333304e+00,-4.722477726937443363e-05,-1.193727784099630281e-04
2.634126984126984095e+00,2.230567609453373542e-05,-1.220880498604551886e-04
2.634920634920634885e+00,9.415075928387662879e-05,-1.127373905669280845e-04
2.635714285714285676e+00,1.576781716496402383e-04,-9.339711077687217280e-05
2.636507936507936467e+00,2.027514991942185518e-04,-6.778734270674734597e-05
2.637301587301587258e+00,2.214137392424707070e-04,-4.040212878926016443e-05
2.638095238095238049e+00,2.094685070077735817e-04,-1.561807496299787431e-05
2.638888888888888840e+00,1.676207296625898682e-04,3.060377019297087196e-06
2.639682539682539630e+00,1.018024947448500130e-04,1.353508883041672978e-05
2.640476190476190421e+00,2.239961757388957001e-05,1.538618955369634904e-05
2.641269841269841212e+00,-5.763915753535498826e-05,9.855757873435313642e-06
2.642063492063492003e+00,-1.254450928897640392e-04,-4.655960122170671477e-07
2.642857142857142794e+00,-1.709401928364115116e-04,-1.221233490526451551e-05
2.643650793650793585e+00,-1.888595893825708400e-04,-2.196834842147272782e-05
2.644444444444444375e+00,-1.795502862416326647e-04,-2.696978437795758353e-05
2.645238095238095166e+00,-1.484092104153866473e-04,-2.560648670265747355e-05
2.646031746031745957e+00,-1.042205636679009576e-04,-1.760525023943730049e-05
2.646825396825396748e+00,-5.691456678603326564e-05,-3.883731732822863807e-06
2.647619047619047539e+00,-1.534679662506555368e-05,1.383593931228222401e-05
2.648412698412698330e+00,1.439304858596125412e-05,3.350724314120514342e-05
2.649206349206349120e+00,2.983432403992330786e-05,5.318566679029728626e-05
2.649999999999999911e+00,3.206969414155783261e-05,7.130185915489655965e-05
2.650793650793650702e+00,2.493260826892543673e-05,8.675361503144072119e-05
2.651587301587301493e+00,1.369945728923290891e-05,9.885403507956300575e-05
2.652380952380952284e+00,3.674163052433863960e-06,1.072089402640948632e-04
2.653174603174603075e+00,-1.010129440440381892e-06,1.115942649201067554e-04
2.653968253968253865e+00,1.860749741016837052e-06,1.118726779814427721e-04
2.654761904761904656e+00,1.236978348562482555e-05,1.079510562971240775e-04
2.655555555555555447e+00,2.873434223515896046e-05,9.976094890895693772e-05
2.656349206349206238e+00,4.789619295379543502e-05,8.725287515591867839e-05
2.657142857142857029e+00,6.625813514392075467e-05,7.042142375809879676e-05
2.657936507936507819e+00,8.042101139043909646e-05,4.939577097694262438e-05
2.658730158730158610e+00,8.782217950188239328e-05,2.461317416877568099e-05
2.659523809523809401e+00,8.720467008430782523e-05,-2.963468527336087377e-06
2.660317460317460192e+00,7.885087423570863864e-05,-3.168634138420579042e-05
2.661111111111110983e+00,6.452108146216749772e-05,-5.924172120302955867e-05
2.661904761904761774e+00,4.707531745259628655e-05,-8.291285137627748300e-05
2.662698412698412564e+00,2.983166170011129564e-05,-1.000535308283416767e-04
2.663492063492063355e+00,1.579686748268817011e-05,-1.086516417152070960e-04
2.664285714285714146e+00,6.954108062692489102e-06,-1.078219055448961583e-04
2.665079365079364937e+00,3.784830246254412258e-06,-9.807986391338960460e-05
2.665873015873015728e+00,5.145408175482602540e-06,-8.130498977832075185e-05
2.666666666666666519e+00,8.540775932015725138e-06,-6.038518080659626292e-05
2.667460317460317309e+00,1.075557387845775978e-05,-3.862370581421660173e-05
2.668253968253968100e+00,8.720834719487804426e-06,-1.905552018967060805e-05
2.669047619047618891e+00,4.135607237758456325e-07,-3.846023890740771129e-06
2.669841269841269682e+00,-1.446547986484036812e-05,6.072094172787256448e-06
2.670634920634920473e+00,-3.426751956271199530e-05,1.102860936443659238e-05
2.671428571428571264e+00,-5.573341536532921167e-05,1.231208801549637028e-05
2.672222222222222054e+00,-7.481120092753384683e-05,1.163635522825338641e-05
2.673015873015872845e+00,-8.770050975238172111e-05,1.055244531320449187e-05
2.673809523809523636e+00,-9.180024098695595811e-05,9.992684457864928110e-06
2.674603174603174427e+00,-8.628957915599113650e-05,1.008345014203837470e-05
2.675396825396825218e+00,-7.221316212971296987e-05,1.027123178720838474e-05
2.676190476190476009e+00,-5.210441974475530524e-05,9.700161308914947772e-06
2.676984126984126799e+00,-2.930782622873357867e-05,7.690120889565088010e-06
2.677777777777777590e+00,-7.216205919062492842e-06,4.126621210014254801e-06
2.678571428571428381e+00,1.137890475293014964e-05,-3.920389177353997198e-07
2.679365079365079172e+00,2.469404420568994176e-05,-4.706927056364490649e-06
2.680158730158729963e+00,3.207496688438678923e-05,-7.484918737358690292e-06
2.680952380952380754e+00,3.386871358734640014e-05,-7.681271201679030396e-06
2.681746031746031544e+00,3.113631060454078678e-05,-4.894510838779809058e-06
2.682539682539682335e+00,2.531322609031244985e-05,5.190505719158213258e-07
2.683333333333333126e+00,1.790850597251329921e-05,7.599412820687116467e-06
2.684126984126983917e+00,1.029582148700597188e-05,1.512356431731600976e-05
2.684920634920634708e+00,3.606737087495563068e-06,2.198413270949244473e-05
2.685714285714285499e+00,-1.297644029908098327e-06,2.746009431075491960e-05
2.686507936507936289e+00,-3.817879344922965998e-06,3.129583229200079208e-05
2.687301587301587080e+00,-3.610592969557042758e-06,3.359167894392295096e-05
2.688095238095238315e+00,-6.106731173097075710e-07,3.458167850695923536e-05
2.688888888888889106e+00,4.918519536322241969e-06,3.440760345904048714e-05
2.689682539682539897e+00,1.233151492187046509e-05,3.298732130517270216e-05
2.690476190476190688e+00,2.058501967948322910e-05,3.003076901099121715e-05
2.691269841269841478e+00,2.830341683593904286e-05,2.519547180074887855e-05
2.692063492063492269e+00,3.395291969355476844e-05,1.831587702344958436e-05
2.692857142857143060e+00,3.612076065787462562e-05,9.607451991101569351e-06
2.693650793650793851e+00,3.385716139316547217e-05,-2.471850460063843596e-07
2.694444444444444642e+00,2.700175557517980293e-05,-1.017695958208850590e-05
2.695238095238095433e+00,1.639369334930947171e-05,-1.894751109648759778e-05
2.696031746031746223e+00,3.868189317276691546e-06,-2.545998794389371057e-05
2.696825396825397014e+00,-8.017181107554579840e-06,-2.902759954888700969e-05
2.697619047619047805e+00,-1.650597669934888217e-05,-2.954544588388116050e-05
2.698412698412698596e+00,-1.930545282648783321e-05,-2.750626430870648656e-05
2.699206349206349387e+00,-1.521688661690575064e-05,-2.386361548182400322e-05
2.700000000000000178e+00,-4.565274450762120864e-06,-1.978782970025744830e-05
2.700793650793650968e+00,1.068090553022694473e-05,-1.638567932070125353e-05
2.701587301587301759e+00,2.713928116393005816e-05,-1.445838589638494514e-05
2.702380952380952550e+00,4.058702763744172231e-05,-1.435607933714617626e-05
2.703174603174603341e+00,4.683581231993090620e-05,-1.595451211974022030e-05
2.703968253968254132e+00,4.278719091941793860e-05,-1.874144657628612202e-05
2.704761904761904923e+00,2.741803128069090516e-05,-2.197019106256768161e-05
2.705555555555555713e+00,2.346094517112364201e-06,-2.482732994867137280e-05
2.706349206349206504e+00,-2.832281898796891131e-05,-2.657251283174363285e-05
2.707142857142857295e+00,-5.892171388599448168e-05,-2.663304414317124925e-05
2.707936507936508086e+00,-8.365264643991524680e-05,-2.466052579683660303e-05
2.708730158730158877e+00,-9.803296938751112570e-05,-2.056521799294801038e-05
2.709523809523809668e+00,-9.989006011431155320e-05,-1.453270697202504601e-05
2.710317460317460458e+00,-8.966025618842352171e-05,-7.012074578718066317e-06
2.711111111111111249e+00,-7.002191159803089330e-05,1.336525301961560926e-06
2.711904761904762040e+00,-4.507785681019893737e-05,9.732766630967778007e-06
2.712698412698412831e+00,-1.936081642164949422e-05,1.738848014945974273e-05
2.713492063492063622e+00,3.093236577457157129e-06,2.362065079807842624e-05
2.714285714285714413e+00,1.942603719952681464e-05,2.794933205381673746e-05
2.715079365079365203e+00,2.829598637786465021e-05,3.016902756663543200e-05
2.715873015873015994e+00,2.986316246568921241e-05,3.038195660956224720e-05
2.716666666666666785e+00,2.548418512129487886e-05,2.898140337823832226e-05
2.717460317460317576e+00,1.723435662436656780e-05,2.657908817696071882e-05
2.718253968253968367e+00,7.394292464592648900e-06,2.388380294247288813e-05
2.719047619047619158e+00,-1.979652661150204763e-06,2.155493410140851807e-05
2.719841269841269948e+00,-9.328500323246806058e-06,2.006588753373866356e-05
2.720634920634920739e+00,-1.369109373656123918e-05,1.961229042326521102e-05
2.721428571428571530e+00,-1.466299797502782843e-05,2.008735275985216469e-05
2.722222222222222321e+00,-1.227219075452139126e-05,2.112682640457512305e-05
2.723015873015873112e+00,-6.834778867976921083e-06,2.220584991675525214e-05
2.723809523809523903e+00,1.158991375442565175e-06,2.275627334015008194e-05
2.724603174603174693e+00,1.110047680145237222e-05,2.227073556476473259e-05
2.725396825396825484e+00,2.225621778642043706e-05,2.037055164523165088e-05
2.726190476190476275e+00,3.371939831754404161e-05,1.683443796809884515e-05
2.726984126984127066e+00,4.436395816839805363e-05,1.160407076892957148e-05
2.727777777777777857e+00,5.286486108137465443e-05,4.788461819120949177e-06
2.728571428571428648e+00,5.784366510830817249e-05,-3.322888187599151732e-06
2.729365079365079438e+00,5.815671423970252799e-05,-1.224990561067118471e-05
2.730158730158730229e+00,5.326899516066534569e-05,-2.134087821799319966e-05
2.730952380952381020e+00,4.357996685431713904e-05,-2.983965667665771591e-05
2.731746031746031811e+00,3.053522954288090337e-05,-3.699594593915563978e-05
2.732539682539682602e+00,1.640995505455567841e-05,-4.218880069967900797e-05
2.733333333333333393e+00,3.784031793085685564e-06,-4.502527974074936037e-05
2.734126984126984183e+00,-5.120341543897221716e-06,-4.538687992066874684e-05
2.734920634920634974e+00,-8.994511327223486395e-06,-4.341506031970268007e-05
2.735714285714285765e+00,-7.701932633012553885e-06,-3.944366277004644712e-05
2.736507936507936556e+00,-2.190094450117461435e-06,-3.389874893624704395e-05
2.737301587301587347e+00,5.855856386358594039e-06,-2.719669457603003475e-05
2.738095238095238138e+00,1.446466414801175401e-05,-1.967595196752720103e-05
2.738888888888888928e+00,2.179701297391731148e-05,-1.159055258199627113e-05
2.739682539682539719e+00,2.644766573927702591e-05,-3.172287104267413294e-06
2.740476190476190510e+00,2.760615687283772776e-05,5.261216961057322669e-06
2.741269841269841301e+00,2.508646254991364432e-05,1.320281049342426682e-05
2.742063492063492092e+00,1.925131566786439881e-05,1.991858231745249208e-05
2.742857142857142883e+00,1.086245448526977040e-05,2.452431254804296931e-05
2.743650793650793673e+00,8.920270224956383361e-07,2.618155976496623031e-05
2.744444444444444464e+00,-9.667653726073652750e-06,2.436673158803885744e-05
2.745238095238095255e+00,-1.996179485346432896e-05,1.912683466022241342e-05
2.746031746031746046e+00,-2.937351293540944988e-05,1.122829628062661611e-05
2.746825396825396837e+00,-3.755810014776080015e-05,2.134342225845436089e-06
2.747619047619047628e+00,-4.442037508383472416e-05,-6.200312830393242577e-06
2.748412698412698418e+00,-5.005523016038067091e-05,-1.167332723473587683e-05
2.749206349206349209e+00,-5.466975117315296423e-05,-1.243712112364245879e-05
2.750000000000000000e+00,-5.849744865258165827e-05,-7.273179116668605601e-06
2.750793650793650791e+00,-6.171341632804660561e-05,4.131904893345985909e-06
2.751587301587301582e+00,-6.436631815342740430e-05,2.105318249164033276e-05
2.752380952380952372e+00,-6.634849511944340553e-05,4.175576310654009179e-05
2.753174603174603163e+00,-6.741840373890858136e-05,6.368047373714558158e-05
2.753968253968253954e+00,-6.727095361058345433e-05,8.376308695394774919e-05
2.754761904761904745e+00,-6.563144537803545923e-05,9.884961597137144524e-05
2.755555555555555536e+00,-6.233818993151627309e-05,1.061589989503997989e-04
2.756349206349206327e+00,-5.738233222149365608e-05,1.037308453477786053e-04
2.757142857142857117e+00,-5.088897007993495130e-05,9.078151906215673806e-05
2.757936507936507908e+00,-4.304423421767542940e-05,6.788960865202538653e-05
2.758730158730158699e+00,-3.399050919397910049e-05,3.695649605368046234e-05
2.759523809523809490e+00,-2.372261081713043063e-05,9.395669054061626591e-07
2.760317460317460281e+00,-1.202274927777528505e-05,-3.658588245130417103e-05
2.761111111111111072e+00,1.527953312573826140e-06,-7.194312903425823913e-05
2.761904761904761862e+00,1.743346538897119977e-05,-1.018536422649195001e-04
2.762698412698412653e+00,3.605978550969667079e-05,-1.238441507473437143e-04
2.763492063492063444e+00,5.734220681894487839e-05,-1.365063978555335360e-04
2.764285714285714235e+00,8.050441461350721004e-05,-1.395734872914132345e-04
2.765079365079365026e+00,1.039000632882261592e-04,-1.338057094735833408e-04
2.765873015873015817e+00,1.250798831722726729e-04,-1.207227789456372813e-04
2.766666666666666607e+00,1.411328738155468603e-04,-1.022621787955469623e-04
2.767460317460317398e+00,1.492622296514031137e-04,-8.046105767789150302e-05
2.768253968253968189e+00,1.474675272582427385e-04,-5.724061997836824576e-05
2.769047619047618980e+00,1.351479518626971820e-04,-3.432316155419547356e-05
2.769841269841269771e+00,1.134392167387439051e-04,-1.325049475398225111e-05
2.770634920634920562e+00,8.515618158256805582e-05,4.575550789595128707e-06
2.771428571428571352e+00,5.432122140430546995e-05,1.791730048635341839e-05
2.772222222222222143e+00,2.538024058913245252e-05,2.583362037020182876e-05
2.773015873015872934e+00,2.298686618187826657e-06,2.789193502497059783e-05
2.773809523809523725e+00,-1.224256453512352715e-05,2.437252464271531195e-05
2.774603174603174516e+00,-1.736938592998584405e-05,1.636470152918887409e-05
2.775396825396825307e+00,-1.415313299100028206e-05,5.689472934238105812e-06
2.776190476190476097e+00,-5.355679363601898247e-06,-5.356047913892580133e-06
2.776984126984126888e+00,5.153641745483768687e-06,-1.437970907871076721e-05
2.777777777777777679e+00,1.319262092410096781e-05,-1.931386710789033843e-05
2.778571428571428470e+00,1.512272799677922328e-05,-1.878032995063766674e-05
2.779365079365079261e+00,8.596244032775178740e-06,-1.232298490815842767e-05
2.780158730158730052e+00,-6.975180448092186783e-06,-4.596736438603651591e-07
2.780952380952380842e+00,-3.034671542848178046e-05,1.545550231588753776e-05
2.781746031746031633e+00,-5.876923583988009496e-05,3.352307008144272157e-05
2.782539682539682424e+00,-8.860733046541768572e-05,5.166710285131986656e-05
2.783333333333333215e+00,-1.160626753336033309e-04,6.799200397955389163e-05
2.784126984126984006e+00,-1.378332845177007064e-04,8.105609928850699970e-05
2.784920634920634797e+00,-1.516089470107541469e-04,9.003190394197729308e-05
2.785714285714285587e+00,-1.563645700683180810e-04,9.475500620530387256e-05
2.786507936507936378e+00,-1.524296519092017380e-04,9.566770845230435278e-05
2.787301587301587169e+00,-1.413078589286209034e-04,9.365384907631871389e-05
2.788095238095237960e+00,-1.252470025488982555e-04,8.976783620159530831e-05
2.788888888888888751e+00,-1.066326748552955930e-04,8.489677963280724173e-05
2.789682539682539542e+00,-8.735888698823073386e-05,7.944263652222087989e-05
2.790476190476190332e+00,-6.836066418462642214e-05,7.313827153675124450e-05
2.791269841269841123e+00,-4.945383067646315741e-05,6.509057673370150171e-05
2.792063492063491914e+00,-2.953563438285065757e-05,5.407284778097104212e-05
2.792857142857142705e+00,-7.094198046210623732e-06,3.899409391795112035e-05
2.793650793650793496e+00,1.911315575457922869e-05,1.939761693109209631e-05
2.794444444444444287e+00,4.940402722881782985e-05,-4.179855338534378665e-06
2.795238095238095077e+00,8.273254317292381456e-05,-3.011470766443757099e-05
2.796031746031745868e+00,1.166139018935366631e-04,-5.590866797188751318e-05
2.796825396825396659e+00,1.474615823578973549e-04,-7.865407628635172983e-05
2.797619047619047450e+00,1.712703448024353609e-04,-9.563348186512689894e-05
2.798412698412698241e+00,1.844765075423883123e-04,-1.049070490424037409e-04
2.799206349206349032e+00,1.847725704433708020e-04,-1.057451696505267114e-04
2.799999999999999822e+00,1.716644257011384314e-04,-9.879249940029455421e-05
2.800793650793650613e+00,1.466332307833370652e-04,-8.590440438033894335e-05
2.801587301587301404e+00,1.128741741814359614e-04,-6.967622262709623020e-05
2.802380952380952195e+00,7.469276869223156730e-05,-5.277353504335561982e-05
2.803174603174602986e+00,3.671561526279285177e-05,-3.723806327550459869e-05
2.803968253968253777e+00,3.102733886705122588e-06,-2.396123758838337114e-05
2.804761904761904567e+00,-2.306957049870602788e-05,-1.247748224120467262e-05
2.805555555555555358e+00,-4.014585639838419727e-05,-1.148059171156038380e-06
2.806349206349206149e+00,-4.792223811640659680e-05,1.228671606392134565e-05
2.807142857142856940e+00,-4.742402235763556437e-05,2.989203883357794583e-05
2.807936507936507731e+00,-4.053535610712361768e-05,5.263412959198626913e-05
2.808730158730158522e+00,-2.959660944307687856e-05,7.961629317265312398e-05
2.809523809523809312e+00,-1.705815480334187272e-05,1.077088845186792811e-04
2.810317460317460103e+00,-5.230130565254000544e-06,1.317829152452311588e-04
2.811111111111110894e+00,3.881975324890070812e-06,1.456221918484411956e-04
2.811904761904761685e+00,8.697119790531791133e-06,1.433802173319027721e-04
2.812698412698412920e+00,8.176925886471703858e-06,1.212298367387591594e-04
2.813492063492063711e+00,1.959450545178128598e-06,7.871805294945399920e-05
2.814285714285714501e+00,-9.516541503218668921e-06,1.936596504994293774e-05
2.815079365079365292e+00,-2.496099808872051610e-05,-4.973762420513702968e-05
2.815873015873016083e+00,-4.233226717672534473e-05,-1.192806390211612999e-04
2.816666666666666874e+00,-5.913066000535397679e-05,-1.796396435424924270e-04
2.817460317460317665e+00,-7.285468211162638233e-05,-2.228240591918117641e-04
2.818253968253968456e+00,-8.150694460009515283e-05,-2.439427146397842288e-04
2.819047619047619246e+00,-8.399810444892476062e-05,-2.418651353762357639e-04
2.819841269841270037e+00,-8.032916110900278949e-05,-2.190030689810386311e-04
2.820634920634920828e+00,-7.151552619792844636e-05,-1.803718148174703842e-04
2.821428571428571619e+00,-5.930127867037430638e-05,-1.322459552132435371e-04
2.822222222222222410e+00,-4.576077671812588127e-05,-8.077685327982274887e-05
2.823015873015873201e+00,-3.289163020605522907e-05,-3.089732151898470726e-05
2.823809523809523991e+00,-2.228328101500595974e-05,1.427191811614955104e-05
2.824603174603174782e+00,-1.491357813814395910e-05,5.344675866710295911e-05
2.825396825396825573e+00,-1.108836120874352330e-05,8.671731581693478176e-05
2.826190476190476364e+00,-1.050313581417773544e-05,1.147964360574210777e-04
2.826984126984127155e+00,-1.238248070412420036e-05,1.382316595060096979e-04
2.827777777777777946e+00,-1.564875125643711834e-05,1.568181546506737523e-04
2.828571428571428736e+00,-1.908356334507887490e-05,1.693762178566218205e-04
2.829365079365079527e+00,-2.146424517791635002e-05,1.739473702867583478e-04
2.830158730158730318e+00,-2.167472159186388070e-05,1.683457256170498191e-04
2.830952380952381109e+00,-1.880104043124787306e-05,1.509037831922568451e-04
2.831746031746031900e+00,-1.222347505432641037e-05,1.211976266861672868e-04
2.832539682539682691e+00,-1.710409103882909719e-06,8.053990603014757723e-05
2.833333333333333481e+00,1.249216528542028226e-05,3.209001505802301093e-05
2.834126984126984272e+00,2.959300899004302000e-05,-1.946665486106843428e-05
2.834920634920635063e+00,4.823574203402818448e-05,-6.860473338849471827e-05
2.835714285714285854e+00,6.655664077897843929e-05,-1.098544504771811064e-04
2.836507936507936645e+00,8.234660514459582448e-05,-1.387101232256491721e-04
2.837301587301587436e+00,9.332794490937025404e-05,-1.523678433816266211e-04
2.838095238095238226e+00,9.752744273296685452e-05,-1.501602976147241373e-04
2.838888888888889017e+00,9.369122770307599355e-05,-1.336233939210632537e-04
2.839682539682539808e+00,8.165465338136908399e-05,-1.061938643365962918e-04
2.840476190476190599e+00,6.256121510657464190e-05,-7.259468859200317705e-05
2.841269841269841390e+00,3.882996017283708287e-05,-3.801633014381224139e-05
2.842063492063492181e+00,1.381368763316819778e-05,-7.239286499091694414e-06
2.842857142857142971e+00,-8.828341446168982680e-06,1.614624853904129761e-05
2.843650793650793762e+00,-2.592208914225109631e-05,3.029061105553058664e-05
2.844444444444444553e+00,-3.553864420866216799e-05,3.531787794632502910e-05
2.845238095238095344e+00,-3.750555270918425505e-05,3.320862758104074905e-05
2.846031746031746135e+00,-3.349863412234742885e-05,2.735154032161093927e-05
2.846825396825396925e+00,-2.664611264863972319e-05,2.183464814487501158e-05
2.847619047619047716e+00,-2.071009426076200700e-05,2.059342722107373804e-05
2.848412698412698507e+00,-1.903811235984107273e-05,2.656334772542534063e-05
2.849206349206349298e+00,-2.356219821490663187e-05,4.099007581050379494e-05
2.850000000000000089e+00,-3.413338286045883784e-05,6.303132392684479308e-05
2.850793650793650880e+00,-4.840297653045114238e-05,8.974591518703599303e-05
2.851587301587301670e+00,-6.231602089140413027e-05,1.165118771793706263e-04
2.852380952380952461e+00,-7.110997003957680786e-05,1.378463970096631083e-04
2.853174603174603252e+00,-7.056303472598381588e-05,1.485179195655048523e-04
2.853968253968254043e+00,-5.815561638114453790e-05,1.447567574314407907e-04
2.854761904761904834e+00,-3.382378199430595693e-05,1.253098067264060440e-04
2.855555555555555625e+00,-9.588448361942471754e-08,9.207384460891592567e-05
2.856349206349206415e+00,3.842421853393440765e-05,5.009605308560409844e-05
2.857142857142857206e+00,7.608867863460645764e-05,6.848029032101805505e-06
2.857936507936507997e+00,1.074839598471186711e-04,-2.915997782904249507e-05
2.858730158730158788e+00,1.286294562077442208e-04,-5.019058979971848314e-05
2.859523809523809579e+00,1.377895200719884907e-04,-5.115018056846078095e-05
2.860317460317460370e+00,1.356881391205269399e-04,-3.108938093859778430e-05
2.861111111111111160e+00,1.250728366377107956e-04,6.070713111279518310e-06
2.861904761904761951e+00,1.097556087178289997e-04,5.186841435754186130e-05
2.862698412698412742e+00,9.341020757201887409e-05,9.475743813667241073e-05
2.863492063492063533e+00,7.847735320863496197e-05,1.224862446231367622e-04
2.864285714285714324e+00,6.549981183319567067e-05,1.249195486301868819e-04
2.865079365079365115e+00,5.308914300405773227e-05,9.661699595724737653e-05
2.865873015873015905e+00,3.854712527201585305e-05,3.844773442961515238e-05
2.866666666666666696e+00,1.896474870950647855e-05,-4.228202123426337046e-05
2.867460317460317487e+00,-7.551207384981160096e-06,-1.332987979535699022e-04
2.868253968253968278e+00,-4.095023035683647650e-05,-2.200480789327582292e-04
2.869047619047619069e+00,-7.895110415453514524e-05,-2.888407404638515356e-04
2.869841269841269860e+00,-1.174974226558406952e-04,-3.295955263888357498e-04
2.870634920634920650e+00,-1.517614445775305641e-04,-3.375042293653026022e-04
2.871428571428571441e+00,-1.773030460656395229e-04,-3.133391362851608805e-04
2.872222222222222232e+00,-1.909855154086276849e-04,-2.625466804269865678e-04
2.873015873015873023e+00,-1.914168738757767525e-04,-1.935716188860513143e-04
2.873809523809523814e+00,-1.789102796981974707e-04,-1.159596555435099297e-04
2.874603174603174605e+00,-1.551217120653631155e-04,-3.870999147251089463e-05
2.875396825396825395e+00,-1.225734528772498414e-04,3.083854857813227293e-05
2.876190476190476186e+00,-8.422442395452674332e-05,8.752166209453546546e-05
2.876984126984126977e+00,-4.315631004716915690e-05,1.283736372531719288e-04
2.877777777777777768e+00,-2.362393610519297622e-06,1.523611242764095846e-04
2.878571428571428559e+00,3.541098267675400979e-05,1.600251280404728913e-04
2.879365079365079350e+00,6.780906085859966825e-05,1.531632991977364890e-04
2.880158730158730140e+00,9.300350955620697950e-05,1.345918871654804417e-04
2.880952380952380931e+00,1.097954759869598773e-04,1.079450997440480471e-04
2.881746031746031722e+00,1.176622271308839379e-04,7.742858216806939892e-05
2.882539682539682513e+00,1.167369595473648929e-04,4.745633445777698578e-05
2.883333333333333304e+00,1.077285045853228749e-04,2.215556102844839275e-05
2.884126984126984095e+00,9.180064445734426948e-05,4.792782179771488544e-06
2.884920634920634885e+00,7.044022821978144827e-05,-2.771485239658376672e-06
2.885714285714285676e+00,4.534867102230979313e-05,-4.682988485545582753e-07
2.886507936507936467e+00,1.838469614070377628e-05,9.875508441578904835e-06
2.887301587301587258e+00,-8.440955618767122053e-06,2.479402387811401119e-05
2.888095238095238049e+00,-3.295837248254590443e-05,3.980669647901024572e-05
2.888888888888888840e+00,-5.288672989101342103e-05,5.032261591009001616e-05
2.889682539682539630e+00,-6.600051552925024839e-05,5.264341464557888297e-05
2.890476190476190421e+00,-7.043739842879340630e-05,4.482793674166966175e-05
2.891269841269841212e+00,-6.511374602897142586e-05,2.719422972360404880e-05
2.892063492063492003e+00,-5.015313529329835988e-05,2.319611805538695736e-06
2.892857142857142794e+00,-2.718850066467725927e-05,-2.546890018618328590e-05
2.893650793650793585e+00,6.057703920958941318e-07,-5.099077325342998699e-05
2.894444444444444375e+00,2.884390610322701065e-05,-6.928654983288080427e-05
2.895238095238095166e+00,5.261443453278202495e-05,-7.664050260871015595e-05
2.896031746031745957e+00,6.740116241660276414e-05,-7.134745220402916575e-05
2.896825396825396748e+00,7.003088084220958852e-05,-5.407129812044538105e-05
2.897619047619047539e+00,5.940912541705917741e-05,-2.771093205887645392e-05
2.898412698412698330e+00,3.684680083499503798e-05,3.218978225141179755e-06
2.899206349206349120e+00,5.883803138579709825e-06,3.356879359780062816e-05
2.899999999999999911e+00,-2.835136901675172944e-05,5.866078905128129477e-05
2.900793650793650702e+00,-6.009098979928988881e-05,7.523272921244166520e-05
2.901587301587301493e+00,-8.397166376293266528e-05,8.197459059463008395e-05
2.902380952380952284e+00,-9.596410773384908186e-05,7.954894741222273452e-05
2.903174603174603075e+00,-9.403328256416240206e-05,7.014554431166891192e-05
2.903968253968253865e+00,-7.843718217391181457e-05,5.673892043435319076e-05
2.904761904761904656e+00,-5.162867215514554221e-05,4.226398041774317754e-05
2.905555555555555447e+00,-1.777524186285771583e-05,2.890907458461335777e-05
2.906349206349206238e+00,1.802984427404734409e-05,1.767658096251633652e-05
2.907142857142857029e+00,5.072231260063153049e-05,8.295713246820303152e-06
2.907936507936507819e+00,7.618750820519474502e-05,-5.032382970162230250e-07
2.908730158730158610e+00,9.193715263957781395e-05,-1.042689001893745548e-05
2.909523809523809401e+00,9.739054112813257894e-05,-2.292087854897247081e-05
2.910317460317460192e+00,9.371926661293079040e-05,-3.853582971488724626e-05
2.911111111111110983e+00,8.333685876706367569e-05,-5.654533249000075684e-05
2.911904761904761774e+00,6.920406662470648094e-05,-7.492748736374617129e-05
2.912698412698412564e+00,5.414664666361021912e-05,-9.071164082598474443e-05
2.913492063492063355e+00,4.034152344956674441e-05,-1.005950232796695959e-04
2.914285714285714146e+00,2.904657775870465758e-05,-1.016781303213533296e-04
2.915079365079364937e+00,2.057160939957590999e-05,-9.215512647542724604e-05
2.915873015873015728e+00,1.443973357937501362e-05,-7.181593399134462194e-05
2.916666666666666519e+00,9.667991870653929723e-06,-4.225709923423589214e-05
2.917460317460317309e+00,5.091237334204444707e-06,-6.749964955481656598e-06
2.918253968253968100e+00,-3.391756305447256976e-07,3.022444424644956065e-05
2.919047619047618891e+00,-7.329311398348010599e-06,6.369686041545734193e-05
2.919841269841269682e+00,-1.610950197407551410e-05,8.905207490204943423e-05
2.920634920634920473e+00,-2.639645366204704534e-05,1.028278845820389893e-04
2.921428571428571264e+00,-3.744873646200846755e-05,1.033134625103263347e-04
2.922222222222222054e+00,-4.820967512286914770e-05,9.082496466146103232e-05
2.923015873015872845e+00,-5.751416487859469645e-05,6.759670947049693996e-05
2.923809523809523636e+00,-6.431236939204790497e-05,3.731386908078907129e-05
2.924603174603174427e+00,-6.785453449898142930e-05,4.407913121081264580e-06
2.925396825396825218e+00,-6.779791713588690380e-05,-2.670454575705176445e-05
2.926190476190476009e+00,-6.422948247891669370e-05,-5.226694445768899431e-05
2.926984126984126799e+00,-5.762688414206098967e-05,-6.960436500885822803e-05
2.927777777777777590e+00,-4.879084123370383655e-05,-7.729551192171764699e-05
2.928571428571428381e+00,-3.877202017655466203e-05,-7.513239296445416073e-05
2.929365079365079172e+00,-2.879170636791726881e-05,-6.393881785189902106e-05
2.930158730158729963e+00,-2.013008630622305158e-05,-4.532841140572857301e-05
2.930952380952380754e+00,-1.394600939090402084e-05,-2.147419715342018456e-05
2.931746031746031544e+00,-1.101342541755844084e-05,5.063982331679646206e-06
2.932539682539682335e+00,-1.141282989869429094e-05,3.144849459138254641e-05
2.933333333333333126e+00,-1.428006019133495239e-05,5.464953929253477404e-05
2.934126984126983917e+00,-1.775439423648064255e-05,7.158178743204397180e-05
2.934920634920634708e+00,-1.924617423658189701e-05,7.936865766228796699e-05
2.935714285714285499e+00,-1.604339547647149549e-05,7.576706067043956000e-05
2.936507936507936289e+00,-6.125601246587067445e-06,5.970232617427600271e-05
2.937301587301587080e+00,1.107265263688177275e-05,3.177367210131155808e-05
2.938095238095238315e+00,3.423321832745925659e-05,-5.457506710503187374e-06
2.938888888888889106e+00,6.025172528536054765e-05,-4.755742666560827236e-05
2.939682539682539897e+00,8.487695223158297792e-05,-8.875262931747412922e-05
2.940476190476190688e+00,1.037200307898094529e-04,-1.228462305406023106e-04
2.941269841269841478e+00,1.133312679333580119e-04,-1.443496868832974157e-04
2.942063492063492269e+00,1.120216062200898508e-04,-1.495909929909994946e-04
2.942857142857143060e+00,1.002005160605940886e-04,-1.375344586362453841e-04
2.943650793650793851e+00,8.016919206461618915e-05,-1.100794349650311977e-04
2.944444444444444642e+00,5.547811470700555830e-05,-7.171049515911535964e-05
2.945238095238095433e+00,3.006872347355564145e-05,-2.854092374003159086e-05
2.946031746031746223e+00,7.440603345885352850e-06,1.302517689717402777e-05
2.946825396825397014e+00,-9.968141827698989070e-06,4.766328142100845943e-05
2.947619047619047805e+00,-2.108910292244608274e-05,7.217300214235115819e-05
2.948412698412698596e+00,-2.621082845427137573e-05,8.594440073585009137e-05
2.949206349206349387e+00,-2.670316653275885737e-05,9.076679332031810669e-05
2.950000000000000178e+00,-2.457544770245525886e-05,9.007743785284116780e-05
2.950793650793650968e+00,-2.197603980791841690e-05,8.788048725189440960e-05
2.951587301587301759e+00,-2.073038102969763442e-05,8.763163311054382367e-05
2.952380952380952550e+00,-2.199144617604114447e-05,9.137020359988815704e-05
2.953174603174603341e+00,-2.604830393004818408e-05,9.929195332765308833e-05
2.953968253968254132e+00,-3.231121619056996549e-05,1.098210947123189112e-04
2.954761904761904923e+00,-3.946850773426771098e-05,1.201075388300111617e-04
2.955555555555555713e+00,-4.578878597504630041e-05,1.267863712544535189e-04
2.956349206349206504e+00,-4.951864144060631474e-05,1.268047587041280344e-04
2.957142857142857295e+00,-4.930373706774196968e-05,1.181360806456069275e-04
2.957936507936508086e+00,-4.454834145305720220e-05,1.002444384416282023e-04
2.958730158730158877e+00,-3.562979859230557282e-05,7.422009670276147114e-05
2.959523809523809668e+00,-2.390073451638166879e-05,4.256809841692571478e-05
2.960317460317460458e+00,-1.144561471154101757e-05,8.694566442411518859e-06
2.961111111111111249e+00,-6.136508592533071997e-07,-2.380236823408195967e-05
2.961904761904762040e+00,6.578606461966223649e-06,-5.187388558013734854e-05
2.962698412698412831e+00,9.018356762560422816e-06,-7.360141919294664646e-05
2.963492063492063622e+00,6.865030815663790917e-06,-8.845149822256851812e-05
2.964285714285714413e+00,1.587370966259989103e-06,-9.713663114811569037e-05
2.965079365079365203e+00,-4.357552011710778475e-06,-1.011536557217092020e-04
2.965873015873015994e+00,-8.119580842651179351e-06,-1.021828691974153286e-04
2.966666666666666785e+00,-7.169914836021837129e-06,-1.015581657665446752e-04
2.967460317460317576e+00,3.493657464477329188e-08,-9.995962276105765747e-05
2.968253968253968367e+00,1.358191027097699546e-05,-9.738094169721706452e-05
2.969047619047619158e+00,3.192103078928537515e-05,-9.333086204608278061e-05
2.969841269841269948e+00,5.202841206107972636e-05,-8.716388795072895531e-05
2.970634920634920739e+00,6.991315794572321141e-05,-7.841255157316196194e-05
2.971428571428571530e+00,8.139846274751055301e-05,-6.701564954912578450e-05
2.972222222222222321e+00,8.302488418775191511e-05,-5.339237985037437347e-05
2.973015873015873112e+00,7.286279635541433226e-05,-3.837154511944399860e-05
2.973809523809523903e+00,5.101942818494543399e-05,-2.302205556052520271e-05
2.974603174603174693e+00,1.969751083137522447e-05,-8.441634962477698816e-06
2.975396825396825484e+00,-1.721198306311572565e-05,4.443255774080035469e-06
2.976190476190476275e+00,-5.488586451380582593e-05,1.502166693834201732e-05
2.976984126984127066e+00,-8.846381190064570965e-05,2.305574824767729386e-05
2.977777777777777857e+00,-1.138550341591535196e-04,2.864437771659146255e-05
2.978571428571428648e+00,-1.282848408768228366e-04,3.211355258378518254e-05
2.979365079365079438e+00,-1.305102188929372188e-04,3.387323370785741411e-05
2.980158730158730229e+00,-1.207398175024130513e-04,3.428344179429390100e-05
2.980952380952381020e+00,-1.003684415136350989e-04,3.356425925169600393e-05
2.981746031746031811e+00,-7.165585740055397475e-05,3.177097845690840744e-05
2.982539682539682602e+00,-3.744514746653041968e-05,2.883864877667945787e-05
2.983333333333333393e+00,-9.512486944002509388e-07,2.468109639222526623e-05
2.984126984126984183e+00,3.441121936027453275e-05,1.931234171846399838e-05
2.984920634920634974e+00,6.522503795279943162e-05,1.294884375372661473e-05
2.985714285714285765e+00,8.835127670694706390e-05,6.053446099102687468e-06
2.986507936507936556e+00,1.013112617401195476e-04,-7.027447185745491913e-07
2.987301587301587347e+00,1.027214651665917905e-04,-6.558900861293231426e-06
2.988095238095238138e+00,9.266740333473805734e-05,-1.083253457152834378e-05
2.988888888888888928e+00,7.286899546783154617e-05,-1.308259759944851430e-05
2.989682539682539719e+00,4.651685828338930617e-05,-1.320695693670149193e-05
2.990476190476190510e+00,1.775159869733136547e-05,-1.143312612667761447e-05
2.991269841269841301e+00,-9.114557529649254500e-06,-8.202595010071856704e-06
2.992063492063492092e+00,-3.043020922943343265e-05,-3.994598206993984163e-06
2.992857142857142883e+00,-4.385909572505933675e-05,8.368830905468283234e-07
2.993650793650793673e+00,-4.868443166165499839e-05,6.140847504649025535e-06
2.994444444444444464e+00,-4.570937886285897145e-05,1.192044543453389387e-05
2.995238095238095255e+00,-3.682477435835667767e-05,1.816649624796378467e-05
2.996031746031746046e+00,-2.440400204468959138e-05,2.463614846835796159e-05
2.996825396825396837e+00,-1.071339735380752884e-05,3.067686360820378455e-05
2.997619047619047628e+00,2.506020024807085627e-06,3.519780103842021484e-05
2.998412698412698418e+00,1.420372164752264423e-05,3.684859621694134044e-05
2.999206349206349209e+00,2.393732232095737423e-05,3.438831125897522193e-05
3.000000000000000000e+00,3.162359626466241272e-05,2.714159885755927878e-05
3.000793650793650791e+00,3.724747730249328278e-05,1.538139093193932402e-05
3.001587301587301582e+00,4.065427443914086057e-05,4.782037735596116484e-07
3.002380952380952372e+00,4.150984926613855258e-05,-1.527716597711922811e-05
3.003174603174603163e+00,3.944737707939360589e-05,-2.915970602259315147e-05
3.003968253968253954e+00,3.434850191846823753e-05,-3.867310423445954485e-05
3.004761904761904745e+00,2.665051482585080811e-05,-4.218618986009636638e-05
3.005555555555555536e+00,1.754486784306683245e-05,-3.934326275967604326e-05
3.006349206349206327e+00,8.946630604715390133e-06,-3.112852680972436092e-05
3.007142857142857117e+00,3.173637836175617055e-06,-1.958399066993840912e-05
3.007936507936507908e+00,2.368633178225278936e-06,-7.284402427787512467e-06
3.008730158730158699e+00,7.798519860895969854e-06,3.274388995100130241e-06
3.009523809523809490e+00,1.923283057871817686e-05,1.021841651634627941e-05
3.010317460317460281e+00,3.461283281885227890e-05,1.265201703181696137e-05
3.011111111111111072e+00,5.017211454058777574e-05,1.076481734014790175e-05
3.011904761904761862e+00,6.107154141723822999e-05,5.686670224105054636e-06
3.012698412698412653e+00,6.247841881658900147e-05,-8.563335418885959800e-07
3.013492063492063444e+00,5.086894407452677373e-05,-6.990153220757584292e-06
3.014285714285714235e+00,2.520534093845412481e-05,-1.113246672154403954e-05
3.015079365079365026e+00,-1.240053251486323087e-05,-1.232127868063417340e-05
3.015873015873015817e+00,-5.682284904639308705e-05,-1.036734817774891476e-05
3.016666666666666607e+00,-1.009049409643028898e-04,-5.817009406125993593e-06
3.017460317460317398e+00,-1.370496965516914160e-04,2.411266228284745789e-07
3.018253968253968189e+00,-1.589601561973836500e-04,6.464417529466949625e-06
3.019047619047618980e+00,-1.630224268743192301e-04,1.157115508518293104e-05
3.019841269841269771e+00,-1.489580129689556138e-04,1.462013551176442666e-05
3.020634920634920562e+00,-1.196316182638084157e-04,1.520570219674755896e-05
3.021428571428571352e+00,-8.017118588207647030e-05,1.353690635220049958e-05
3.022222222222222143e+00,-3.673206733481502409e-05,1.039057971554408176e-05
3.023015873015872934e+00,4.733260178784560275e-06,6.949899449299380574e-06
3.023809523809523725e+00,3.943041158196561232e-05,4.559466772955482269e-06
3.024603174603174516e+00,6.427771030747555202e-05,4.442431879234135302e-06
3.025396825396825307e+00,7.806289896148694153e-05,7.432424684720927055e-06
3.026190476190476097e+00,8.127996839609315195e-05,1.377157529701119191e-05
3.026984126984126888e+00,7.574592690918352262e-05,2.301607090526262974e-05
3.027777777777777679e+00,6.409144272295079524e-05,3.407343916700364314e-05
3.028571428571428470e+00,4.921355120310989340e-05,4.537116943541999578e-05
3.029365079365079261e+00,3.378033259101858741e-05,5.512578599256207665e-05
3.030158730158730052e+00,1.987466281259365558e-05,6.165202804912603581e-05
3.030952380952380842e+00,8.841904346955967617e-06,6.363638839735766349e-05
3.031746031746031633e+00,1.357880704101957825e-06,6.031087339832931705e-05
3.032539682539682424e+00,-2.335132256836479344e-06,5.150339342037629862e-05
3.033333333333333215e+00,-2.143796794023058920e-06,3.759303599048533569e-05
3.034126984126984006e+00,2.056991563171169216e-06,1.943000673487735373e-05
3.034920634920634797e+00,1.037953386325404129e-05,-1.731613449394981466e-06
3.035714285714285587e+00,2.263362897507301867e-05,-2.428629381811028804e-05
3.036507936507936378e+00,3.790799155938746911e-05,-4.635572428791137059e-05
3.037301587301587169e+00,5.424308306646160937e-05,-6.594033164531889590e-05
3.038095238095237960e+00,6.862751356447246173e-05,-8.115687923390628293e-05
3.038888888888888751e+00,7.744845485249434098e-05,-9.052873333195505438e-05
3.039682539682539542e+00,7.734035344226234321e-05,-9.325892803009455114e-05
3.040476190476190332e+00,6.618095732087122315e-05,-8.940000579879711607e-05
3.041269841269841123e+00,4.387601851311794367e-05,-7.984608497319915256e-05
3.042063492063491914e+00,1.262325149528341789e-05,-6.611788908817529216e-05
3.042857142857142705e+00,-2.345684731613586465e-05,-4.998129984159484592e-05
3.043650793650793496e+00,-5.918829621694454452e-05,-3.300584273056919322e-05
3.044444444444444287e+00,-8.940234246034307864e-05,-1.620199015058326191e-05
3.045238095238095077e+00,-1.098796298126245480e-04,1.368421039078313627e-07
3.046031746031745868e+00,-1.179716001771526860e-04,1.631683088059137087e-05
3.046825396825396659e+00,-1.128557008102291465e-04,3.286732639851901416e-05
3.047619047619047450e+00,-9.548848677604925591e-05,5.002135847227422470e-05
3.048412698412698241e+00,-6.835128416077419907e-05,6.724287529956505128e-05
3.049206349206349032e+00,-3.505803442189312663e-05,8.299730003894042107e-05
3.049999999999999822e+00,1.321315448274147329e-07,9.488661265915160022e-05
3.050793650793650613e+00,3.284928596381841076e-05,1.001416212072350141e-04
3.051587301587301404e+00,5.912143690128314895e-05,9.633951351434717454e-05
3.052380952380952195e+00,7.578335767672497844e-05,8.214315365546682524e-05
3.053174603174602986e+00,8.075292857961948964e-05,5.785321340316181032e-05
3.053968253968253777e+00,7.320336063542530111e-05,2.560747499092032179e-05
3.054761904761904567e+00,5.368724948865943023e-05,-1.086406392289520549e-05
3.055555555555555358e+00,2.422757122857276130e-05,-4.691524864458511938e-05
3.056349206349206149e+00,-1.169096145728272584e-05,-7.794945691410358013e-05
3.057142857142856940e+00,-4.934315831889039876e-05,-1.004167000428826526e-04
3.057936507936507731e+00,-8.327314007664270905e-05,-1.125334946111756536e-04
3.058730158730158522e+00,-1.080740943708330837e-04,-1.144732529212824147e-04
3.059523809523809312e+00,-1.193245728249975438e-04,-1.079409334021173437e-04
3.060317460317460103e+00,-1.145002031887716940e-04,-9.527518783520699504e-05
3.061111111111110894e+00,-9.364288496110970519e-05,-7.842471391013410020e-05
3.061904761904761685e+00,-5.958090747394849331e-05,-5.822424573718487683e-05
3.062698412698412920e+00,-1.757558739004997083e-05,-3.429602378616758678e-05
3.063492063492063711e+00,2.558918365129447421e-05,-5.654788993117463817e-06
3.064285714285714501e+00,6.290813015146462614e-05,2.819823783563521943e-05
3.065079365079365292e+00,8.857101729009531597e-05,6.612223835488230113e-05
3.065873015873016083e+00,9.917752612617604868e-05,1.046107853948489047e-04
3.066666666666666874e+00,9.446649054693380247e-05,1.378623906134247867e-04
3.067460317460317665e+00,7.737217085220265587e-05,1.587699893007025944e-04
3.068253968253968456e+00,5.336114715352767104e-05,1.606486778116524244e-04
3.069047619047619246e+00,2.916736594993788112e-05,1.392481227144671608e-04
3.069841269841270037e+00,1.120451744996684504e-05,9.443939394435871000e-05
3.070634920634920828e+00,4.050869664392775644e-06,3.099242605967046524e-05
3.071428571428571619e+00,9.414053668119337902e-06,-4.191365964031055108e-05
3.072222222222222410e+00,2.585551111984497744e-05,-1.124351134392587360e-04
3.073015873015873201e+00,4.931387885453258587e-05,-1.686512951032298523e-04
3.073809523809523991e+00,7.420989356384178259e-05,-2.012895080488368363e-04
3.074603174603174782e+00,9.475714138860179584e-05,-2.058050378240547731e-04
3.075396825396825573e+00,1.061059392810910718e-04,-1.832265077036823828e-04
3.076190476190476364e+00,1.050884411572087802e-04,-1.395771839300852962e-04
3.076984126984127155e+00,9.052295529986435839e-05,-8.412893410655789656e-05
3.077777777777777946e+00,6.317425218539065473e-05,-2.706049006057241924e-05
3.078571428571428736e+00,2.549968096557110971e-05,2.281146271093575847e-05
3.079365079365079527e+00,-1.873998349030690563e-05,5.966311155255616788e-05
3.080158730158730318e+00,-6.498459444815351594e-05,8.132851510599975627e-05
3.080952380952381109e+00,-1.084763555323735979e-04,8.896880188177995019e-05
3.081746031746031900e+00,-1.448929496101146442e-04,8.599385025599168644e-05
3.082539682539682691e+00,-1.708988143651304274e-04,7.666385563457588103e-05
3.083333333333333481e+00,-1.845020931551534212e-04,6.482415875733701699e-05
3.084126984126984272e+00,-1.851563546311812600e-04,5.309916580664262063e-05
3.084920634920635063e+00,-1.736210034203915437e-04,4.265401607769884622e-05
3.085714285714285854e+00,-1.516592778906411954e-04,3.342800442034843833e-05
3.086507936507936645e+00,-1.216826140128326485e-04,2.463286025888326703e-05
3.087301587301587436e+00,-8.643611534457262184e-05,1.530668652787674883e-05
3.088095238095238226e+00,-4.877423148342308496e-05,4.779264150302253438e-06
3.088888888888889017e+00,-1.152283590008897512e-05,-7.017807015190857379e-06
3.089682539682539808e+00,2.261600226541901791e-05,-1.940934919077033047e-05
3.090476190476190599e+00,5.117669275259981106e-05,-3.099869528291426769e-05
3.091269841269841390e+00,7.210956786808990981e-05,-3.985217614734633333e-05
3.092063492063492181e+00,8.403984564633171358e-05,-4.384134311678941181e-05
3.092857142857142971e+00,8.656472189321620463e-05,-4.111078856641593948e-05
3.093650793650793762e+00,8.049257523959815730e-05,-3.059043142553797792e-05
3.094444444444444553e+00,6.790016798606919807e-05,-1.242239769278111722e-05
3.095238095238095344e+00,5.190884819138958615e-05,1.184383169917031027e-05
3.096031746031746135e+00,3.616301036122668701e-05,3.939354012479325326e-05
3.096825396825396925e+00,2.410369318484150350e-05,6.663490235446058803e-05
3.097619047619047716e+00,1.822037140782686192e-05,8.992207658894335522e-05
3.098412698412698507e+00,1.949630792066045693e-05,1.063113892065264293e-04
3.099206349206349298e+00,2.722065371624927453e-05,1.141317892821290840e-04
3.100000000000000089e+00,3.923323940728602375e-05,1.132178035362062251e-04
3.100793650793650880e+00,5.253175863919015329e-05,1.047708479745534645e-04
3.101587301587301670e+00,6.405938293276692121e-05,9.092805262304801660e-05
3.102380952380952461e+00,7.145029950197740647e-05,7.418567545113008161e-05
3.103174603174603252e+00,7.355035819558606528e-05,5.683758720767793395e-05
3.103968253968254043e+00,7.061363390321564104e-05,4.056146216070169002e-05
3.104761904761904834e+00,6.415386412508894203e-05,2.623203657128240877e-05
3.105555555555555625e+00,5.648451698046740417e-05,1.397304810753649204e-05
3.106349206349206415e+00,5.003246914568414529e-05,3.390666876071839521e-06
3.107142857142857206e+00,4.657641625677696112e-05,-6.118392581887234642e-06
3.107936507936507997e+00,4.662294887527242441e-05,-1.510330683321569821e-05
3.108730158730158788e+00,4.914146666148339792e-05,-2.392865295650286413e-05
3.109523809523809579e+00,5.179635858006169727e-05,-3.279828531785241317e-05
3.110317460317460370e+00,5.165037999136149176e-05,-4.187234857758918518e-05
3.111111111111111160e+00,4.612569820125409219e-05,-5.136024582507890332e-05
3.111904761904761951e+00,3.388224571615495453e-05,-6.148904651447752525e-05
3.112698412698412742e+00,1.527721074229466098e-05,-7.234126467561792029e-05
3.113492063492063533e+00,-7.775795401156120764e-06,-8.366695959925039741e-05
3.114285714285714324e+00,-3.247744191105137276e-05,-9.481464650696974866e-05
3.115079365079365115e+00,-5.603933711640442960e-05,-1.048561270504391935e-04
3.115873015873015905e+00,-7.641382033979292310e-05,-1.128528890217242350e-04
3.116666666666666696e+00,-9.257817897710542783e-05,-1.181209491067549810e-04
3.117460317460317487e+00,-1.043491972755995425e-04,-1.203527994896950304e-04
3.118253968253968278e+00,-1.119443026631187674e-04,-1.195306852849420084e-04
3.119047619047619069e+00,-1.155912144198818455e-04,-1.156621176149413643e-04
3.119841269841269860e+00,-1.153904488999264044e-04,-1.084523166417933901e-04
3.120634920634920650e+00,-1.114415041921536096e-04,-9.708143749282457501e-05
3.121428571428571441e+00,-1.040778603783609226e-04,-8.024888164710542772e-05
3.122222222222222232e+00,-9.400061235634550258e-05,-5.655951935747865930e-05
3.123015873015873023e+00,-8.217101688210629148e-05,-2.517855946302030912e-05
3.123809523809523814e+00,-6.947480716529942169e-05,1.346004843482822376e-05
3.124603174603174605e+00,-5.632068735313465826e-05,5.717096479097756736e-05
3.125396825396825395e+00,-4.239357262813646247e-05,1.019908632932679311e-04
3.126190476190476186e+00,-2.671641551949768839e-05,1.426932061250372021e-04
3.126984126984126977e+00,-8.032461388282498063e-06,1.737475619722265410e-04
3.127777777777777768e+00,1.460828683991562290e-05,1.904760043698571479e-04
3.128571428571428559e+00,4.123526326248615930e-05,1.900897239690479349e-04
3.129365079365079350e+00,7.049524228370833629e-05,1.723214701758941415e-04
3.130158730158730140e+00,9.949720379341047782e-05,1.394929878334712301e-04
3.130952380952380931e+00,1.240783875621257978e-04,9.602741760112773050e-05
3.131746031746031722e+00,1.395261949854010675e-04,4.757086898405298936e-05
3.132539682539682513e+00,1.416539964618107096e-04,-2.875841864286902858e-08
3.133333333333333304e+00,1.279620946292831071e-04,-4.164165573465362517e-05
3.134126984126984095e+00,9.850523474679558978e-05,-7.350069785391880094e-05
3.134920634920634885e+00,5.613616987620527850e-05,-9.349368313681791416e-05
3.135714285714285676e+00,6.021620391913666528e-06,-1.011216144448043861e-04
3.136507936507936467e+00,-4.537961974780639884e-05,-9.722317118796117326e-05
3.137301587301587258e+00,-9.150378810954372529e-05,-8.361723277121664479e-05
3.138095238095238049e+00,-1.266888117290455157e-04,-6.280780092343382691e-05
3.138888888888888840e+00,-1.468344605487112116e-04,-3.781580790306153110e-05
3.139682539682539630e+00,-1.497330918239832970e-04,-1.208672486421755303e-05
3.140476190476190421e+00,-1.351698436168779127e-04,1.065741232327563017e-05
3.141269841269841212e+00,-1.048742211606124735e-04,2.674868479396377147e-05
3.142063492063492003e+00,-6.235056098968127418e-05,3.312883819688863877e-05
3.142857142857142794e+00,-1.257209330031310586e-05,2.804538003297768568e-05
3.143650793650793585e+00,3.848920973638576723e-05,1.168536643447742246e-05
3.144444444444444375e+00,8.450704019213748286e-05,-1.351339094145719465e-05
3.145238095238095166e+00,1.195898719613875034e-04,-4.308536036263222965e-05
3.146031746031745957e+00,1.391344814027287830e-04,-7.134680587005458416e-05
3.146825396825396748e+00,1.406122107778347220e-04,-9.262937110530724768e-05
3.147619047619047539e+00,1.241205394700057197e-04,-1.025989455414558243e-04
3.148412698412698330e+00,9.253643694433025550e-05,-9.926286312004531083e-05
3.149206349206349120e+00,5.117060379350693209e-05,-8.335557459169294170e-05
3.149999999999999911e+00,6.934969478937505508e-06,-5.799423570698928709e-05
3.150793650793650702e+00,-3.284175909671778189e-05,-2.773872351157476640e-05
3.151587301587301493e+00,-6.173210627314720833e-05,2.616495207135727647e-06
3.152380952380952284e+00,-7.541629884635469693e-05,2.912756369157819752e-05
3.153174603174603075e+00,-7.254670973783426517e-05,4.936165101474554733e-05
3.153968253968253865e+00,-5.507758640904286018e-05,6.252238491231546294e-05
3.154761904761904656e+00,-2.793395487590774278e-05,6.913118042439622072e-05
3.155555555555555447e+00,1.991036881268835904e-06,7.048478855471864519e-05
3.156349206349206238e+00,2.735642516561939967e-05,6.813098319077537629e-05
3.157142857142857029e+00,4.208400278957882888e-05,6.352935423605516967e-05
3.157936507936507819e+00,4.281935270919780403e-05,5.794071162586150709e-05
3.158730158730158610e+00,2.971881101531119546e-05,5.247986886933752492e-05
3.159523809523809401e+00,6.307431356484080794e-06,4.821585042531884810e-05
3.160317460317460192e+00,-2.156300672771527485e-05,4.621122373112840641e-05
3.161111111111110983e+00,-4.733172904341190104e-05,4.743213784781545388e-05
3.161904761904761774e+00,-6.541532858694325465e-05,5.251243859663287037e-05
3.162698412698412564e+00,-7.246419671068984056e-05,6.141274170290749390e-05
3.163492063492063355e+00,-6.787846904003299892e-05,7.307401479021320158e-05
3.164285714285714146e+00,-5.354551222283993875e-05,8.521295555323748485e-05
3.165079365079364937e+00,-3.300057551834115687e-05,9.442166332597841025e-05
3.165873015873015728e+00,-1.034151804605284430e-05,9.668873323524111230e-05
3.166666666666666519e+00,1.076829712334820056e-05,8.833471414839472906e-05
3.167460317460317309e+00,2.776896299643601745e-05,6.717108184211309464e-05
3.168253968253968100e+00,3.944795143703044897e-05,3.351959614809168206e-05
3.169047619047618891e+00,4.580323353717464006e-05,-9.332129546229507184e-06
3.169841269841269682e+00,4.766666544770939456e-05,-5.554050468668082714e-05
3.170634920634920473e+00,4.625828555517143097e-05,-9.798772711898031003e-05
3.171428571428571264e+00,4.280919897483759944e-05,-1.300861353003791778e-04
3.172222222222222054e+00,3.832429824862446782e-05,-1.475091402195025537e-04
3.173015873015872845e+00,3.349095662212083901e-05,-1.492458547215985091e-04
3.173809523809523636e+00,2.869713547351132192e-05,-1.376179428988513710e-04
3.174603174603174427e+00,2.410678510769276498e-05,-1.172737754173962406e-04
3.175396825396825218e+00,1.974761940916284889e-05,-9.352840851561596426e-05
3.176190476190476009e+00,1.558607752017640766e-05,-7.062218077379585097e-05
3.176984126984126799e+00,1.158426990775010569e-05,-5.046850735667267768e-05
3.177777777777777590e+00,7.746899140877070591e-06,-3.227134979206424732e-05
3.178571428571428381e+00,4.170182746158494468e-06,-1.309660815773597755e-05
3.179365079365079172e+00,1.096759430428060626e-06,1.081224846038172856e-05
3.180158730158729963e+00,-1.039284796347177900e-06,4.238715259823942983e-05
3.180952380952380754e+00,-1.615022718885623164e-06,8.224279360632463429e-05
3.181746031746031544e+00,8.515624454689487916e-08,1.277723777836421064e-04
3.182539682539682335e+00,4.653666117830224244e-06,1.731151589507483411e-04
3.183333333333333126e+00,1.225086453475976164e-05,2.100612027805754192e-04
3.184126984126983917e+00,2.229985353917154605e-05,2.297180286841131751e-04
3.184920634920634708e+00,3.332617463300133675e-05,2.245614299245851566e-04
3.185714285714285499e+00,4.306106832489116842e-05,1.903866470759245431e-04
3.186507936507936289e+00,4.883779189123829294e-05,1.276893521599728443e-04
3.187301587301587080e+00,4.820481728730176079e-05,4.212218859718200759e-05
3.188095238095238315e+00,3.961299987550861502e-05,-5.613814978383497656e-05
3.188888888888889106e+00,2.301619318502350444e-05,-1.540425034010157101e-04
3.189682539682539897e+00,2.233449269509987923e-07,-2.380236076564996839e-04
3.190476190476190688e+00,-2.516349546440780591e-05,-2.965443960976176896e-04
3.191269841269841478e+00,-4.835666194086002417e-05,-3.222563090692322153e-04
3.192063492063492269e+00,-6.453232062166612342e-05,-3.132628393471691575e-04
3.192857142857143060e+00,-7.028302729491616905e-05,-2.732053856954884570e-04
3.193650793650793851e+00,-6.490448977829549001e-05,-2.101927076026269877e-04
3.194444444444444642e+00,-5.097729309092358433e-05,-1.348896298455117264e-04
3.195238095238095433e+00,-3.388578574105332908e-05,-5.827521070138957037e-05
3.196031746031746223e+00,-2.030389185310361468e-05,1.037691704112427498e-05
3.196825396825397014e+00,-1.610377448360823547e-05,6.485321227690870824e-05
3.197619047619047805e+00,-2.440953011381722258e-05,1.024663758313017805e-04
3.198412698412698596e+00,-4.449628176898997174e-05,1.236697610805717997e-04
3.199206349206349387e+00,-7.192622038968485689e-05,1.310817693523007397e-04
3.200000000000000178e+00,-9.984935202276017021e-05,1.283040159530831844e-04
3.200793650793650968e+00,-1.209820512949113538e-04,1.188987230424372148e-04
3.201587301587301759e+00,-1.295830142192768613e-04,1.057487315805022643e-04
3.202380952380952550e+00,-1.228271067346678111e-04,9.083210775715577854e-05
3.203174603174603341e+00,-1.012577222836899126e-04,7.529569302752267437e-05
3.203968253968254132e+00,-6.833366515266977095e-05,5.966259769218189269e-05
3.204761904761904923e+00,-2.934447503400770024e-05,4.404905240593482774e-05
3.205555555555555713e+00,9.917768538436964973e-06,2.834651588799795232e-05
3.206349206349206504e+00,4.436515969005960330e-05,1.239003318384591290e-05
3.207142857142857295e+00,7.044657029161782648e-05,-3.853045521536362921e-06
3.207936507936508086e+00,8.650004290167705872e-05,-2.008063357389476853e-05
3.208730158730158877e+00,9.265450316892451948e-05,-3.550508112278454888e-05
3.209523809523809668e+00,9.040659958894667705e-05,-4.884530234776743882e-05
3.210317460317460458e+00,8.204319251862135216e-05,-5.851916445829126413e-05
3.211111111111111249e+00,7.007308311601307326e-05,-6.301277764020826191e-05
3.211904761904762040e+00,5.678420804995023706e-05,-6.131774320016034497e-05
3.212698412698412831e+00,4.397757409578478903e-05,-5.328260926772991819e-05
3.213492063492063622e+00,3.287276429265926462e-05,-3.974783575959705807e-05
3.214285714285714413e+00,2.414698562609209065e-05,-2.241617872281835442e-05
3.215079365079365203e+00,1.805847416934040452e-05,-3.509843463155126517e-06
3.215873015873015994e+00,1.460415615737928353e-05,1.466816271977690835e-05
3.216666666666666785e+00,1.366240807249982345e-05,3.014208725279539245e-05
3.217460317460317576e+00,1.507709696209710028e-05,4.155058644954412570e-05
3.218253968253968367e+00,1.865777781382240821e-05,4.827481632648987047e-05
3.219047619047619158e+00,2.410435505804524957e-05,5.041414188142784612e-05
3.219841269841269948e+00,3.089917440718218126e-05,4.864410275072297298e-05
3.220634920634920739e+00,3.822663221500388928e-05,4.400353069041072280e-05
3.221428571428571530e+00,4.497088818176032835e-05,3.766017692103147690e-05
3.222222222222222321e+00,4.981202094902946128e-05,3.070170848910366423e-05
3.223015873015873112e+00,5.140633735335740272e-05,2.399120147564347855e-05
3.223809523809523903e+00,4.861436652683466612e-05,1.810946179715823784e-05
3.224603174603174693e+00,4.073514008737808765e-05,1.338087686953143008e-05
3.225396825396825484e+00,2.770778891583682005e-05,9.953806407390906918e-06
3.226190476190476275e+00,1.024143803501068099e-05,7.892162112749927610e-06
3.226984126984127066e+00,-1.016506841042255155e-05,7.237185832587549689e-06
3.227777777777777857e+00,-3.134258921784035043e-05,8.015077973874324522e-06
3.228571428571428648e+00,-5.071898666567500256e-05,1.019016312162446299e-05
3.229365079365079438e+00,-6.571380299917686265e-05,1.358667264788764252e-05
3.230158730158730229e+00,-7.420296143306321344e-05,1.781748859779439082e-05
3.230952380952381020e+00,-7.495982566770761067e-05,2.225946542909127535e-05
3.231746031746031811e+00,-6.796158111039830819e-05,2.610058834506630743e-05
3.232539682539682602e+00,-5.446889360185229846e-05,2.845869023060480300e-05
3.233333333333333393e+00,-3.684212699514216241e-05,2.854289738785107316e-05
3.234126984126984183e+00,-1.812647421020497038e-05,2.580789665713450280e-05
3.234920634920634974e+00,-1.491748302468321057e-06,2.005068517213976143e-05
3.235714285714285765e+00,1.036366909485156997e-05,1.142638313000755129e-05
3.236507936507936556e+00,1.573687634559660438e-05,4.008496872866493122e-07
