Timestamp,Flexor carpi radialis,Extensor digitorum
2.000000000000000000e+00,-5.095847528272013131e-05,3.207307096619007371e-05
2.000793650793650791e+00,-5.912690671608612027e-05,4.999363423871473668e-05
2.001587301587301582e+00,-5.931767840917509733e-05,6.067724309730689427e-05
2.002380952380952372e+00,-5.234508241516760063e-05,6.328159473574286478e-05
2.003174603174603163e+00,-4.030009644482605364e-05,5.822422897178606774e-05
2.003968253968253954e+00,-2.596815716809828492e-05,4.710052293159335186e-05
2.004761904761904745e+00,-1.215203216607136917e-05,3.239280930823303019e-05
2.005555555555555536e+00,-1.073368836132269484e-06,1.698781143011546030e-05
2.006349206349206327e+00,6.013928212600496794e-06,3.580013579668406245e-06
2.007142857142857117e+00,8.933941686489088623e-06,-5.907814512038214442e-06
2.007936507936507908e+00,8.434540705866368218e-06,-1.073263954699246897e-05
2.008730158730158699e+00,5.845187026801687578e-06,-1.144249202353978329e-05
2.009523809523809490e+00,2.660304944918395797e-06,-9.647785564765128168e-06
2.010317460317460281e+00,1.628880254368823166e-07,-7.511674753954170557e-06
2.011111111111111072e+00,-8.292132154180466666e-07,-7.096403208636364982e-06
2.011904761904761862e+00,-6.148853571481000195e-08,-9.731347931521091939e-06
2.012698412698412653e+00,2.201894985093133770e-06,-1.555246048106288697e-05
2.013492063492063444e+00,5.325433134339971068e-06,-2.332014314135243287e-05
2.014285714285714235e+00,8.503260999691056966e-06,-3.056848737084421930e-05
2.015079365079365026e+00,1.096768190208728826e-05,-3.408034160809168009e-05
2.015873015873015817e+00,1.216735079121251852e-05,-3.062249090276105372e-05
2.016666666666666607e+00,1.188746224545575736e-05,-1.781693562436223712e-05
2.017460317460317398e+00,1.029573241400197063e-05,5.024556796151023128e-06
2.018253968253968189e+00,7.909792228694070899e-06,3.630283793042515220e-05
2.019047619047618980e+00,5.492628862860325036e-06,7.196193161773183587e-05
2.019841269841269771e+00,3.892728588445329224e-06,1.058792425269334799e-04
2.020634920634920562e+00,3.855372880762783931e-06,1.308313223996329590e-04
2.021428571428571352e+00,5.840289740401556573e-06,1.398990395691139055e-04
2.022222222222222143e+00,9.884868097082132342e-06,1.280377491443060315e-04
2.023015873015872934e+00,1.554741645624015500e-05,9.346875632422668365e-05
2.023809523809523725e+00,2.195025238931435819e-05,3.856260195840444257e-05
2.024603174603174516e+00,2.792007274844474690e-05,-3.004839988713052043e-05
2.025396825396825307e+00,3.219912033623141854e-05,-1.022903474065017305e-04
2.026190476190476097e+00,3.368376990931155917e-05,-1.663948605172206510e-04
2.026984126984126888e+00,3.164325782978094420e-05,-2.113016238079855477e-04
2.027777777777777679e+00,2.587822943854610258e-05,-2.291470751714225467e-04
2.028571428571428470e+00,1.678898095890241817e-05,-2.171072903538203802e-04
2.029365079365079261e+00,5.333404053230214057e-06,-1.779907816500293381e-04
2.030158730158730052e+00,-7.129331052947234469e-06,-1.193967550297965984e-04
2.030952380952380842e+00,-1.908488242898390353e-05,-5.176936091394109278e-05
2.031746031746031633e+00,-2.914201201289883048e-05,1.398564123874618633e-05
2.032539682539682424e+00,-3.626938658391664689e-05,6.864230728314170556e-05
2.033333333333333215e+00,-3.993350120099232184e-05,1.061064131136407794e-04
2.034126984126984006e+00,-4.011959283114220870e-05,1.240184767599706043e-04
2.034920634920634797e+00,-3.725480739580329061e-05,1.235614994531485491e-04
2.035714285714285587e+00,-3.207131690742891326e-05,1.086485033083173127e-04
2.036507936507936378e+00,-2.544743553849076288e-05,8.473697441403109463e-05
2.037301587301587169e+00,-1.825703299452194838e-05,5.756056430714223817e-05
2.038095238095237960e+00,-1.124924086467612522e-05,3.205851663781564178e-05
2.038888888888888751e+00,-4.973118510625789947e-06,1.169493704057722854e-05
2.039682539682539542e+00,2.466022805065406415e-07,-1.782135903824795113e-06
2.040476190476190332e+00,4.287665324890209225e-06,-8.220123281292866235e-06
2.041269841269841123e+00,7.178152317987195597e-06,-8.715868600836312345e-06
2.042063492063491914e+00,9.035397723472509099e-06,-5.163821776397218446e-06
2.042857142857142705e+00,1.001474146129384459e-05,2.293267017301787700e-07
2.043650793650793496e+00,1.027795646297395018e-05,5.418584511294787289e-06
2.044444444444444287e+00,9.980431668945178103e-06,8.926712964933909337e-06
2.045238095238095077e+00,9.268609498259334400e-06,1.009959329661246080e-05
2.046031746031745868e+00,8.278003185605905745e-06,9.128609222185345140e-06
2.046825396825396659e+00,7.127132083102749690e-06,6.811862647071730646e-06
2.047619047619047450e+00,5.909832779605897222e-06,4.125528570915627176e-06
2.048412698412698241e+00,4.692254228508379365e-06,1.775108957834409979e-06
2.049206349206349032e+00,3.519102825770305616e-06,-7.104771666561887578e-08
2.049999999999999822e+00,2.428469617805310143e-06,-1.736088373373840378e-06
2.050793650793650613e+00,1.469327549580683376e-06,-3.699218911877138378e-06
2.051587301587301404e+00,7.126652092347628838e-07,-6.141812223291884358e-06
2.052380952380952195e+00,2.475048345534681874e-07,-8.607736206486805953e-06
2.053174603174602986e+00,1.578192255608849559e-07,-9.956402001857088112e-06
2.053968253968253777e+00,4.849528720125178239e-07,-8.654574954459802198e-06
2.054761904761904567e+00,1.188975818317548331e-06,-3.308329163504554829e-06
2.055555555555555358e+00,2.126754940177986751e-06,6.760684688480186218e-06
2.056349206349206149e+00,3.061633546611648816e-06,2.110225914290349169e-05
2.057142857142856940e+00,3.709764594314887604e-06,3.802160180141076818e-05
2.057936507936507731e+00,3.814327000169720581e-06,5.478241966881665728e-05
2.058730158730158522e+00,3.226267566893011387e-06,6.806707594372848956e-05
2.059523809523809312e+00,1.964704959718376160e-06,7.459959046633805055e-05
2.060317460317460103e+00,2.348515483876338211e-07,7.182969655590896009e-05
2.061111111111110894e+00,-1.605572435284577860e-06,5.856063508524720382e-05
2.061904761904761685e+00,-3.124410680875405893e-06,3.538182359715596814e-05
2.062698412698412920e+00,-3.917581120780764158e-06,4.767092739807907313e-06
2.063492063492063711e+00,-3.709919726337280501e-06,-2.925512294098252207e-05
2.064285714285714501e+00,-2.429734617842828599e-06,-6.185080680873596246e-05
2.065079365079365292e+00,-2.391879646349348245e-07,-8.839596838857649108e-05
2.065873015873016083e+00,2.487778658709428642e-06,-1.054782910937747718e-04
2.066666666666666874e+00,5.236719369573943216e-06,-1.115730964465266655e-04
2.067460317460317665e+00,7.457763217579400885e-06,-1.071883816419668940e-04
2.068253968253968456e+00,8.679918499775621273e-06,-9.447282691860292732e-05
2.069047619047619246e+00,8.607626916007070383e-06,-7.647052307315905086e-05
2.069841269841270037e+00,7.178011774112963988e-06,-5.629990144663762252e-05
2.070634920634920828e+00,4.568288076032639040e-06,-3.650695516680768724e-05
2.071428571428571619e+00,1.155578185056392445e-06,-1.873101502056823857e-05
2.072222222222222410e+00,-2.558056380475691025e-06,-3.691893510063501353e-06
2.073015873015873201e+00,-6.037057294073499232e-06,8.585243584598975224e-06
2.073809523809523991e+00,-8.802238945301700757e-06,1.842938933802950742e-05
2.074603174603174782e+00,-1.050531919070377551e-05,2.618711473779855890e-05
2.075396825396825573e+00,-1.097934185729101147e-05,3.198457473166254776e-05
2.076190476190476364e+00,-1.025919649926814360e-05,3.564624804484086947e-05
2.076984126984127155e+00,-8.567967363102400614e-06,3.678377137766103628e-05
2.077777777777777946e+00,-6.268766921587575517e-06,3.501901519229395400e-05
2.078571428571428736e+00,-3.790119558086955494e-06,3.026275972901587265e-05
2.079365079365079527e+00,-1.541935443308895064e-06,2.295033169219228291e-05
2.080158730158730318e+00,1.578105103538122319e-07,1.414770769835739862e-05
2.080952380952381109e+00,1.130376703066415528e-06,5.478639639414482711e-06
2.081746031746031900e+00,1.351200033199224151e-06,-1.130726635962442017e-06
2.082539682539682691e+00,9.348100566157157492e-07,-3.849068747270280110e-06
2.083333333333333481e+00,9.825326197069747477e-08,-1.399431274905755036e-06
2.084126984126984272e+00,-8.853559526794125533e-07,6.526832326260081969e-06
2.084920634920635063e+00,-1.732290775883968045e-06,1.901799641327997094e-05
2.085714285714285854e+00,-2.186059617159775046e-06,3.394681792605484452e-05
2.086507936507936645e+00,-2.046511821053765219e-06,4.827281146703327219e-05
2.087301587301587436e+00,-1.192791505475195260e-06,5.860169900628586093e-05
2.088095238095238226e+00,3.970607860029301804e-07,6.187846871016247185e-05
2.088888888888889017e+00,2.630252163477742936e-06,5.604347163521669243e-05
2.089682539682539808e+00,5.292436531211229680e-06,4.050202816579622612e-05
2.090476190476190599e+00,8.058984659725239546e-06,1.633497486096160872e-05
2.091269841269841390e+00,1.053252882320209995e-05,-1.375089131166562841e-05
2.092063492063492181e+00,1.230794310153047207e-05,-4.571924504117532600e-05
2.092857142857142971e+00,1.305422783915057892e-05,-7.475495241548563944e-05
2.093650793650793762e+00,1.259116710949332199e-05,-9.605879375476102360e-05
2.094444444444444553e+00,1.093354242435623004e-05,-1.057872370458470986e-04
2.095238095238095344e+00,8.282938309913887438e-06,-1.019278971312096138e-04
2.096031746031746135e+00,4.967753242697723596e-06,-8.484933125597654731e-05
2.096825396825396925e+00,1.357140003997853357e-06,-5.731624855711169915e-05
2.097619047619047716e+00,-2.212605727457117340e-06,-2.391229677400104534e-05
2.098412698412698507e+00,-5.472238440477217929e-06,9.987582802054496375e-06
2.099206349206349298e+00,-8.216558042990776425e-06,3.938998977784924485e-05
2.100000000000000089e+00,-1.028988159295943726e-05,6.065439908632163296e-05
2.100793650793650880e+00,-1.158423985208054195e-05,7.201946023789135244e-05
2.101587301587301670e+00,-1.205312259757669770e-05,7.362471465770509661e-05
2.102380952380952461e+00,-1.172545248143956320e-05,6.713236785180166574e-05
2.103174603174603252e+00,-1.070501045384402313e-05,5.513247203859045296e-05
2.103968253968254043e+00,-9.153293498366457811e-06,4.050775072556996953e-05
2.104761904761904834e+00,-7.263521759090296090e-06,2.588366305238826577e-05
2.105555555555555625e+00,-5.234132533150438724e-06,1.323572726723944360e-05
2.106349206349206415e+00,-3.245909262853522969e-06,3.684265081354464540e-06
2.107142857142857206e+00,-1.443643477606838638e-06,-2.525682634138372699e-06
2.107936507936507997e+00,7.693006711236541168e-08,-5.887063716280865136e-06
2.108730158730158788e+00,1.274491139256679546e-06,-7.380845561387273751e-06
2.109523809523809579e+00,2.156815164110775174e-06,-8.163778398515443552e-06
2.110317460317460370e+00,2.764425467914199172e-06,-9.241081105406982271e-06
2.111111111111111160e+00,3.147286064713316280e-06,-1.116848807203375407e-05
2.111904761904761951e+00,3.341539908593659591e-06,-1.383530596764593426e-05
2.112698412698412742e+00,3.353061079470357481e-06,-1.639434187101182865e-05
2.113492063492063533e+00,3.152125785997464840e-06,-1.740490768305134886e-05
2.114285714285714324e+00,2.680481128633745122e-06,-1.521473398393026698e-05
2.115079365079365115e+00,1.869528388506687395e-06,-8.519945196656707602e-06
2.115873015873015905e+00,6.668350436999209787e-07,3.055700607601070253e-06
2.116666666666666696e+00,-9.323419527482180667e-07,1.857091982534714265e-05
2.117460317460317487e+00,-2.852693305645332361e-06,3.573750933356404042e-05
2.118253968253968278e+00,-4.912191422506322168e-06,5.130839950957986830e-05
2.119047619047619069e+00,-6.810655613719096769e-06,6.179756686326999256e-05
2.119841269841269860e+00,-8.144093153176224913e-06,6.432967209744043253e-05
2.120634920634920650e+00,-8.452165260671725845e-06,5.736749169839214766e-05
2.121428571428571441e+00,-7.298530054065858981e-06,4.110326963368821622e-05
2.122222222222222232e+00,-4.373910948453612474e-06,1.741587404789730686e-05
2.123015873015873023e+00,3.972820615418016400e-07,-1.056137084497445880e-05
2.123809523809523814e+00,6.771755815694551376e-06,-3.911205529956738252e-05
2.124603174603174605e+00,1.415018354492644999e-05,-6.465944218577797571e-05
2.125396825396825395e+00,2.161112184252165784e-05,-8.436622242470479200e-05
2.126190476190476186e+00,2.802792419937015847e-05,-9.648091012246886905e-05
2.126984126984126977e+00,3.226043757191773175e-05,-1.003788779102638746e-04
2.127777777777777768e+00,3.338687308260588862e-05,-9.635713884358811511e-05
2.128571428571428559e+00,3.091781532672006075e-05,-8.533879917446026667e-05
2.129365079365079350e+00,2.492723479416076831e-05,-6.865278765290602531e-05
2.130158730158730140e+00,1.605460741497944155e-05,-4.795473197597760793e-05
2.130952380952380931e+00,5.374785145029941330e-06,-2.521842744719513687e-05
2.131746031746031722e+00,-5.821009256905266837e-06,-2.664359163721106304e-06
2.132539682539682513e+00,-1.626308447999731132e-05,1.745529629146971002e-05
2.133333333333333304e+00,-2.489572831329275326e-05,3.318444663015004536e-05
2.134126984126984095e+00,-3.099005934603876413e-05,4.319336126333401756e-05
2.134920634920634885e+00,-3.417822112426052104e-05,4.699728482425541919e-05
2.135714285714285676e+00,-3.443217449007193937e-05,4.500312206706498860e-05
2.136507936507936467e+00,-3.201437658980313308e-05,3.839008752907033278e-05
2.137301587301587258e+00,-2.741957623323880452e-05,2.887310196603570529e-05
2.138095238095238049e+00,-2.131558877989678740e-05,1.840983845333505061e-05
2.138888888888888840e+00,-1.448084187804421850e-05,8.907325457992195500e-06
2.139682539682539630e+00,-7.730355774750736743e-06,1.974409963614491414e-06
2.140476190476190421e+00,-1.823736022982291847e-06,-1.249378092481100522e-06
2.141269841269841212e+00,2.639469102268854433e-06,-1.845432388482241700e-07
2.142063492063492003e+00,5.316120286538194483e-06,5.154876906116677365e-06
2.142857142857142794e+00,6.178642403373174968e-06,1.415577098344946061e-05
2.143650793650793585e+00,5.514566108114096169e-06,2.562385011011435461e-05
2.144444444444444375e+00,3.861453756869959341e-06,3.785682825028495078e-05
2.145238095238095166e+00,1.891003878051946272e-06,4.881850904851124201e-05
2.146031746031745957e+00,2.688459678327102655e-07,5.643294074734912520e-05
2.146825396825396748e+00,-4.790890115028280294e-07,5.896483111258809346e-05
2.147619047619047539e+00,-6.561310761342361389e-08,5.540329712504964621e-05
2.148412698412698330e+00,1.513167435270975478e-06,4.574417660954809982e-05
2.149206349206349120e+00,3.996192886822330699e-06,3.107773347031084866e-05
2.149999999999999911e+00,6.933654723511133111e-06,1.342855237213928618e-05
2.150793650793650702e+00,9.802331404852011952e-06,-4.643975499386554585e-06
2.151587301587301493e+00,1.213002392044433767e-05,-2.060401717787456867e-05
2.152380952380952284e+00,1.359454249120211403e-05,-3.251759493046180172e-05
2.153174603174603075e+00,1.406954159827229658e-05,-3.949307578171227492e-05
2.153968253968253865e+00,1.360819529356447988e-05,-4.185118537130583271e-05
2.154761904761904656e+00,1.237920684616388441e-05,-4.095212375377390153e-05
2.155555555555555447e+00,1.058620574958237662e-05,-3.870283676669218051e-05
2.156349206349206238e+00,8.403041892575463786e-06,-3.688760595154234157e-05
2.157142857142857029e+00,5.945070227302234637e-06,-3.655669875040823608e-05
2.157936507936507819e+00,3.278750158224697610e-06,-3.770335522005432055e-05
2.158730158730158610e+00,4.578135744439913137e-07,-3.934421897219747891e-05
2.159523809523809401e+00,-2.431937991508131911e-06,-3.995124289246868851e-05
2.160317460317460192e+00,-5.236976184910396949e-06,-3.805054843149595324e-05
2.161111111111110983e+00,-7.724059677999212190e-06,-3.276324342424190240e-05
2.161904761904761774e+00,-9.600702250993190757e-06,-2.411848623805172643e-05
2.162698412698412564e+00,-1.056713791887140094e-05,-1.307565065935035217e-05
2.163492063492063355e+00,-1.038661225769210098e-05,-1.288909233339530817e-06
2.164285714285714146e+00,-8.952286800490974396e-06,9.300216484146046683e-06
2.165079365079364937e+00,-6.329845276827540458e-06,1.693969906940439270e-05
2.165873015873015728e+00,-2.764538758230008143e-06,2.050559906182139379e-05
2.166666666666666519e+00,1.346385263667741215e-06,1.979655269834084823e-05
2.167460317460317309e+00,5.506719430933914503e-06,1.559882151482086339e-05
2.168253968253968100e+00,9.188534908108035863e-06,9.487905845047049462e-06
2.169047619047618891e+00,1.190379018920015235e-05,3.411594733522862779e-06
2.169841269841269682e+00,1.327177766044811727e-05,-8.226455257394601243e-07
2.170634920634920473e+00,1.307375346186809414e-05,-1.997634764816840932e-06
2.171428571428571264e+00,1.128621823830683760e-05,2.563652141031876332e-07
2.172222222222222054e+00,8.087074758901301668e-06,5.453594788475128643e-06
2.173015873015872845e+00,3.834926644031650231e-06,1.246708634655546965e-05
2.173809523809523636e+00,-9.710440667948492302e-07,1.987505952207873510e-05
2.174603174603174427e+00,-5.739042319692934267e-06,2.632121582080463205e-05
2.175396825396825218e+00,-9.831274778928566634e-06,3.078525329937170256e-05
2.176190476190476009e+00,-1.260850746251157553e-05,3.271086824313764770e-05
2.176984126984126799e+00,-1.348141687738276945e-05,3.200169876710558015e-05
2.177777777777777590e+00,-1.198161768185923600e-05,2.893754698203305280e-05
2.178571428571428381e+00,-7.859736077282161715e-06,2.406423282793418046e-05
2.179365079365079172e+00,-1.203187784511753508e-06,1.808279257143867598e-05
2.180158730158729963e+00,7.453566608632645609e-06,1.174010076011747992e-05
2.180952380952380754e+00,1.707162388742631940e-05,5.723122135541126820e-06
2.181746031746031544e+00,2.615491297859124715e-05,5.718549909995761409e-07
2.182539682539682335e+00,3.293851277224762498e-05,-3.372615638653410837e-06
2.183333333333333126e+00,3.571363567393107710e-05,-5.986084645071024824e-06
2.184126984126983917e+00,3.322961647161917813e-05,-7.364698882118798858e-06
2.184920634920634708e+00,2.506629950702930570e-05,-7.829060260877990709e-06
2.185714285714285499e+00,1.185498241085914333e-05,-7.914783323613717485e-06
2.186507936507936289e+00,-4.745164518164170383e-06,-8.306046159918491204e-06
2.187301587301587080e+00,-2.233959462042176304e-05,-9.672623746191082053e-06
2.188095238095238315e+00,-3.829618865332193480e-05,-1.242262792376928299e-05
2.188888888888889106e+00,-5.031050993712509622e-05,-1.645953202697563250e-05
2.189682539682539897e+00,-5.687388892333568590e-05,-2.107746579862138594e-05
2.190476190476190688e+00,-5.751583030187272820e-05,-2.509520673587473628e-05
2.191269841269841478e+00,-5.277488120691464139e-05,-2.722172689699952760e-05
2.192063492063492269e+00,-4.394174060714600244e-05,-2.652450963182230361e-05
2.192857142857143060e+00,-3.267887942628992277e-05,-2.280768946159970014e-05
2.193650793650793851e+00,-2.063790771970784929e-05,-1.673754474653762510e-05
2.194444444444444642e+00,-9.173397287221360334e-06,-9.660609845439839137e-06
2.195238095238095433e+00,7.970081698596566398e-07,-3.185014816171626620e-06
2.196031746031746223e+00,8.791742803077220162e-06,1.322049460763983123e-06
2.196825396825397014e+00,1.466975731656990779e-05,3.152270079496201924e-06
2.197619047619047805e+00,1.850052417489040523e-05,2.460940285959331239e-06
2.198412698412698596e+00,2.045105592381259602e-05,2.037405029852351783e-07
2.199206349206349387e+00,2.071983836134139064e-05,-2.164383028606708771e-06
2.200000000000000178e+00,1.952310925014628915e-05,-3.128813509395941945e-06
2.200793650793650968e+00,1.711855539239246410e-05,-1.559605818657068442e-06
2.201587301587301759e+00,1.383965939013279115e-05,2.967607106265393547e-06
2.202380952380952550e+00,1.011250760392062646e-05,1.006174639159665677e-05
2.203174603174603341e+00,6.435607871092820538e-06,1.863914876014740473e-05
2.203968253968254132e+00,3.319530364309376848e-06,2.722793319960353857e-05
2.204761904761904923e+00,1.201251421884652757e-06,3.434921293052506537e-05
2.205555555555555713e+00,3.600499625017341620e-07,3.885872148291125594e-05
2.206349206349206504e+00,8.618544381771000409e-07,4.016547203586610275e-05
2.207142857142857295e+00,2.548021106362252814e-06,3.830276925368021195e-05
2.207936507936508086e+00,5.069791377727382445e-06,3.387958843942386132e-05
2.208730158730158877e+00,7.958182845549491256e-06,2.795913353511989655e-05
2.209523809523809668e+00,1.071295267691236929e-05,2.188909699833585333e-05
2.210317460317460458e+00,1.289220889763345399e-05,1.706658022642743003e-05
2.211111111111111249e+00,1.418524020369310629e-05,1.460182345604365615e-05
2.211904761904762040e+00,1.445518536130763035e-05,1.488871104395885548e-05
2.212698412698412831e+00,1.374467569525020201e-05,1.720067239266237990e-05
2.213492063492063622e+00,1.224530161916536575e-05,1.954346027190733464e-05
2.214285714285714413e+00,1.023973735684626889e-05,1.899503496257833781e-05
2.215079365079365203e+00,8.032270079074163387e-06,1.257712574078738237e-05
2.215873015873015994e+00,5.886484431599010106e-06,-1.592519713880882329e-06
2.216666666666666785e+00,3.985301821346857795e-06,-2.333142650226296109e-05
2.217460317460317576e+00,2.419120908535777864e-06,-5.004735782060452351e-05
2.218253968253968367e+00,1.196974161578634157e-06,-7.720563926722218281e-05
2.219047619047619158e+00,2.689313759245204989e-07,-9.946781561068469108e-05
2.219841269841269948e+00,-4.518047056143756316e-07,-1.121150247717595877e-04
2.220634920634920739e+00,-1.073154528847458540e-06,-1.122936633511794507e-04
2.221428571428571530e+00,-1.714169081251852334e-06,-9.971519572062567704e-05
2.222222222222222321e+00,-2.496019438811825499e-06,-7.664901719693796968e-05
2.223015873015873112e+00,-3.528860528155290962e-06,-4.727985073085765988e-05
2.223809523809523903e+00,-4.892258239743780021e-06,-1.667309594601227858e-05
2.224603174603174693e+00,-6.611128579139798256e-06,1.034581907039828256e-05
2.225396825396825484e+00,-8.633116294280010887e-06,3.013260900956369459e-05
2.226190476190476275e+00,-1.081563531240474244e-05,4.082018077115806472e-05
2.226984126984127066e+00,-1.293051450816247259e-05,4.251261365144191895e-05
2.227777777777777857e+00,-1.469096835576302604e-05,3.710335792679393712e-05
2.228571428571428648e+00,-1.579965607452226380e-05,2.779209131934382148e-05
2.229365079365079438e+00,-1.600927932057560942e-05,1.839772034043862472e-05
2.230158730158730229e+00,-1.518118343786903841e-05,1.257753973190857888e-05
2.230952380952381020e+00,-1.332550513017525399e-05,1.307159049720695224e-05
2.231746031746031811e+00,-1.060987536023661212e-05,2.109459118325581698e-05
2.232539682539682602e+00,-7.331904399416648331e-06,3.598884979707091632e-05
2.233333333333333393e+00,-3.860984491269722958e-06,5.522472713896163054e-05
2.234126984126984183e+00,-5.634440283370174906e-07,7.478806984734928860e-05
2.234920634920634974e+00,2.271234994280589458e-06,8.992538810779837155e-05
2.235714285714285765e+00,4.486897812577576819e-06,9.613040127068595280e-05
2.236507936507936556e+00,6.088347675171890140e-06,9.016899663946836298e-05
2.237301587301587347e+00,7.234187752553724662e-06,7.089207009685897956e-05
2.238095238095238138e+00,8.194332280787862443e-06,3.961342916404372763e-05
2.238888888888888928e+00,9.277241828225014716e-06,-6.149114954292997650e-08
2.239682539682539719e+00,1.073860585430306949e-05,-4.291425015143416304e-05
2.240476190476190510e+00,1.269013427862849156e-05,-8.311220546271768077e-05
2.241269841269841301e+00,1.503135750569706248e-05,-1.152641126278595123e-04
2.242063492063492092e+00,1.742623450997121798e-05,-1.352912255243833778e-04
2.242857142857142883e+00,1.933958662782295706e-05,-1.409725342925608285e-04
2.243650793650793673e+00,2.013654247419076955e-05,-1.321363717850007993e-04
2.244444444444444464e+00,1.923153997227056706e-05,-1.105349204936114239e-04
2.245238095238095255e+00,1.625419469086723570e-05,-7.944856662247134387e-05
2.246031746031746046e+00,1.118514965173829813e-05,-4.307681985368474369e-05
2.246825396825396837e+00,4.416257964720655579e-06,-5.818654367581365338e-06
2.247619047619047628e+00,-3.290273878076517965e-06,2.840466349683806271e-05
2.248412698412698418e+00,-1.093815170765621928e-05,5.663666161390412950e-05
2.249206349206349209e+00,-1.749483703294491126e-05,7.710830917711226462e-05
2.250000000000000000e+00,-2.210078998627634800e-05,8.921682443854027161e-05
2.250793650793650791e+00,-2.423791187240436625e-05,9.334396305394812967e-05
2.251587301587301582e+00,-2.381637611638949171e-05,9.060601431953306019e-05
2.252380952380952372e+00,-2.116120639298641417e-05,8.259570938184226691e-05
2.253174603174603163e+00,-1.690769599452023197e-05,7.113547162403731155e-05
2.253968253968253954e+00,-1.183992939827399488e-05,5.804212454903009033e-05
2.254761904761904745e+00,-6.720563159858744401e-06,4.491076078940307620e-05
2.255555555555555536e+00,-2.157488013933305500e-06,3.293965407813310401e-05
2.256349206349206327e+00,1.464619973258545428e-06,2.281979968161372327e-05
2.257142857142857117e+00,3.984884784816925613e-06,1.470405098664590523e-05
2.257936507936507908e+00,5.417880562578772365e-06,8.263823098362939337e-06
2.258730158730158699e+00,5.885784447632179286e-06,2.836555488082171911e-06
2.259523809523809490e+00,5.557653863257868371e-06,-2.347186481564047428e-06
2.260317460317460281e+00,4.610811170448308746e-06,-7.897661290003683509e-06
2.261111111111111072e+00,3.216231353619747252e-06,-1.403225719786092000e-05
2.261904761904761862e+00,1.540984307464875271e-06,-2.045204341923846018e-05
2.262698412698412653e+00,-2.425772441583136348e-07,-2.637731903116267857e-05
2.263492063492063444e+00,-1.951076511145277871e-06,-3.073950042926387613e-05
2.264285714285714235e+00,-3.395692669619300022e-06,-3.247800471337536371e-05
2.265079365079365026e+00,-4.401716693714342720e-06,-3.086173972326363546e-05
2.265873015873015817e+00,-4.837299895608956107e-06,-2.574963942349416441e-05
2.266666666666666607e+00,-4.641041424863950349e-06,-1.772088824407560886e-05
2.267460317460317398e+00,-3.838268835438688403e-06,-8.037108147812336469e-06
2.268253968253968189e+00,-2.541042458329997225e-06,1.563197253019773994e-06
2.269047619047618980e+00,-9.321859378077234881e-07,9.202379103503951021e-06
2.269841269841269771e+00,7.646811492705332984e-07,1.326951732414658871e-05
2.270634920634920562e+00,2.327567591065771923e-06,1.280715033296247485e-05
2.271428571428571352e+00,3.587283335204192697e-06,7.775979659655065396e-06
2.272222222222222143e+00,4.477245679267054548e-06,-8.975396323096261877e-07
2.273015873015872934e+00,5.065680440675523847e-06,-1.153459728877672495e-05
2.273809523809523725e+00,5.554275895209225431e-06,-2.212966524724119930e-05
2.274603174603174516e+00,6.235157310162229228e-06,-3.084728641750992612e-05
2.275396825396825307e+00,7.409088345053939374e-06,-3.641876453474527514e-05
2.276190476190476097e+00,9.278112879801122886e-06,-3.832625674496254869e-05
2.276984126984126888e+00,1.183533376402906009e-05,-3.676586864192269149e-05
2.277777777777777679e+00,1.478387232068098272e-05,-3.245872037919927223e-05
2.278571428571428470e+00,1.752258014143146886e-05,-2.640171752615593309e-05
2.279365079365079261e+00,1.922912253192239510e-05,-1.963822166609971177e-05
2.280158730158730052e+00,1.904429394363800436e-05,-1.310025026865869366e-05
2.280952380952380842e+00,1.631895500575005371e-05,-7.531505426302142374e-06
2.281746031746031633e+00,1.084657139273283939e-05,-3.461082741423137595e-06
2.282539682539682424e+00,2.995014869369236230e-06,-1.185872773627791139e-06
2.283333333333333215e+00,-6.318018385567149964e-06,-7.383069020010801094e-07
2.284126984126984006e+00,-1.580457087019798617e-05,-1.845359230410641217e-06
2.284920634920634797e+00,-2.408538102750749273e-05,-3.906000542528374087e-06
2.285714285714285587e+00,-2.998530497830927114e-05,-6.021780256672084270e-06
2.286507936507936378e+00,-3.276678805237844385e-05,-7.108281499920995123e-06
2.287301587301587169e+00,-3.224927730739215304e-05,-6.092575230324552586e-06
2.288095238095237960e+00,-2.879786141692443718e-05,-2.167389290932294966e-06
2.288888888888888751e+00,-2.319925839619151438e-05,4.959492244345123511e-06
2.289682539682539542e+00,-1.646898917932609500e-05,1.489508865990404627e-05
2.290476190476190332e+00,-9.643109156242661193e-06,2.653068427748268721e-05
2.291269841269841123e+00,-3.600360339501037451e-06,3.817576842054847062e-05
2.292063492063491914e+00,1.057280230486998723e-06,4.783899489037208338e-05
2.292857142857142705e+00,4.056892480544352397e-06,5.360392491836271238e-05
2.293650793650793496e+00,5.445810838862756580e-06,5.402887486873713237e-05
2.294444444444444287e+00,5.536755561918151660e-06,4.849821055002845739e-05
2.295238095238095077e+00,4.825228983468525878e-06,3.745748902865644767e-05
2.296031746031745868e+00,3.895723190233217265e-06,2.246620680852802707e-05
2.296825396825396659e+00,3.328210063404428095e-06,6.005227875420233495e-06
2.297619047619047450e+00,3.611181317854987149e-06,-8.991119445878505625e-06
2.298412698412698241e+00,5.065066933703492431e-06,-1.982279059338261774e-05
2.299206349206349032e+00,7.781143363153621061e-06,-2.475847210414108840e-05
2.299999999999999822e+00,1.158457478547793275e-05,-2.356215345062614012e-05
2.300793650793650613e+00,1.603288499366492122e-05,-1.758460189900642513e-05
2.301587301587301404e+00,2.045983816442685307e-05,-9.346084077282272798e-06
2.302380952380952195e+00,2.406787118978863255e-05,-1.749379243765748614e-06
2.303174603174602986e+00,2.606078352644174734e-05,2.784593697397788158e-06
2.303968253968253777e+00,2.579609812412228000e-05,2.957473262365248495e-06
2.304761904761904567e+00,2.292835127486909455e-05,-1.166775676602406293e-06
2.305555555555555358e+00,1.751302013860144577e-05,-8.331792001758482955e-06
2.306349206349206149e+00,1.004460948653252817e-05,-1.655130319723541321e-05
2.307142857142856940e+00,1.410667936549901673e-06,-2.369635287973963477e-05
2.307936507936507731e+00,-7.242005405987848247e-06,-2.804639520648309452e-05
2.308730158730158522e+00,-1.471171142324660913e-05,-2.867938367493479750e-05
2.309523809523809312e+00,-1.997712629679851174e-05,-2.562817166502580457e-05
2.310317460317460103e+00,-2.240824686545414104e-05,-1.979267435936170010e-05
2.311111111111110894e+00,-2.189660457686556878e-05,-1.265444687757225210e-05
2.311904761904761685e+00,-1.886635175318533770e-05,-5.877068913132165321e-06
2.312698412698412920e+00,-1.416168429948779376e-05,-8.892395292557221313e-07
2.313492063492063711e+00,-8.842685173274888826e-06,1.456323593537694256e-06
2.314285714285714501e+00,-3.945951221837048946e-06,1.072628713109606467e-06
2.315079365079365292e+00,-2.710745787997738440e-07,-1.367501581831674705e-06
2.315873015873016083e+00,1.758696367637913690e-06,-4.634107367501374432e-06
2.316666666666666874e+00,2.136954248203263858e-06,-7.291438407899583150e-06
2.317460317460317665e+00,1.218278629128143304e-06,-8.104597551700319630e-06
2.318253968253968456e+00,-4.084881174849860506e-07,-6.382605479344685408e-06
2.319047619047619246e+00,-2.079826906027321851e-06,-2.152102892771247655e-06
2.319841269841270037e+00,-3.211637910564768502e-06,3.887171612351853850e-06
2.320634920634920828e+00,-3.417761352503755594e-06,1.059613787692620494e-05
2.321428571428571619e+00,-2.574352379256697590e-06,1.673101317348452976e-05
2.322222222222222410e+00,-8.229248497684677034e-07,2.127556605844210924e-05
2.323015873015873201e+00,1.484321819294243126e-06,2.369256796021662083e-05
2.323809523809523991e+00,3.882296801989866226e-06,2.405438159874456397e-05
2.324603174603174782e+00,5.909163742846333381e-06,2.303927707201401803e-05
2.325396825396825573e+00,7.210755370728293490e-06,2.178906334995881104e-05
2.326190476190476364e+00,7.607057045870486773e-06,2.163095213049903779e-05
2.326984126984127155e+00,7.107883180025115936e-06,2.369377948179639864e-05
2.327777777777777946e+00,5.882255753349275199e-06,2.849766360153814916e-05
2.328571428571428736e+00,4.199269304356668003e-06,3.564003556732670322e-05
2.329365079365079527e+00,2.361855629316380015e-06,4.370411218453319524e-05
2.330158730158730318e+00,6.497614300915508832e-07,5.046255618745255179e-05
2.330952380952381109e+00,-7.200612674114533420e-07,5.335540954112987021e-05
2.331746031746031900e+00,-1.613601620950607762e-06,5.012649370204216664e-05
2.332539682539682691e+00,-1.981815795544424114e-06,3.944637444443008760e-05
2.333333333333333481e+00,-1.848342478049867035e-06,2.135202893387784431e-05
2.334126984126984272e+00,-1.289145420430883207e-06,-2.612928275091083757e-06
2.334920634920635063e+00,-4.114203053834282658e-07,-2.959097898186516791e-05
2.335714285714285854e+00,6.625722215102246355e-07,-5.588747374360114687e-05
2.336507936507936645e+00,1.804810538391634543e-06,-7.762568936600379140e-05
2.337301587301587436e+00,2.885347727494393384e-06,-9.145268804442657307e-05
2.338095238095238226e+00,3.773616223821860235e-06,-9.517309839488679365e-05
2.338888888888889017e+00,4.340713974831185681e-06,-8.820419099795815624e-05
2.339682539682539808e+00,4.466630233395075244e-06,-7.176545021166941946e-05
2.340476190476190599e+00,4.055588080394291016e-06,-4.874214206726362866e-05
2.341269841269841390e+00,3.059140422076744524e-06,-2.320683887968835445e-05
2.342063492063492181e+00,1.500989774808103813e-06,3.468341798707641716e-07
2.342857142857142971e+00,-5.071775223943695175e-07,1.792039306885128276e-05
2.343650793650793762e+00,-2.769648457789643543e-06,2.687252741550624007e-05
2.344444444444444553e+00,-5.035355232644018123e-06,2.650486683099861148e-05
2.345238095238095344e+00,-7.046560634870320145e-06,1.819913244657412414e-05
2.346031746031746135e+00,-8.594067177340627799e-06,5.049269348118000444e-06
2.346825396825396925e+00,-9.561555385344087135e-06,-8.919631657482990966e-06
2.347619047619047716e+00,-9.944239175208094745e-06,-1.973028098271762881e-05
2.348412698412698507e+00,-9.835093487122157247e-06,-2.436391119821033010e-05
2.349206349206349298e+00,-9.382673386361914085e-06,-2.137376123671279159e-05
2.350000000000000089e+00,-8.734395942852861874e-06,-1.107680662239828852e-05
2.350793650793650880e+00,-7.984455236127289775e-06,4.672645895682060675e-06
2.351587301587301670e+00,-7.143849834891712495e-06,2.301812954648219651e-05
2.352380952380952461e+00,-6.141761695652802225e-06,4.077965456060891815e-05
2.353174603174603252e+00,-4.856221712622746426e-06,5.510655532406452819e-05
2.353968253968254043e+00,-3.162115089096951995e-06,6.396981249618149707e-05
2.354761904761904834e+00,-9.796161417528014953e-07,6.641559225865109172e-05
2.355555555555555625e+00,1.692126721467653576e-06,6.256514801739748721e-05
2.356349206349206415e+00,4.763571744185142349e-06,5.340363854176002542e-05
2.357142857142857206e+00,8.063493724988399000e-06,4.044297297095746796e-05
2.357936507936507997e+00,1.135934197788507568e-05,2.536385109742938081e-05
2.358730158730158788e+00,1.438054093768122069e-05,9.729100211846177204e-06
2.359523809523809579e+00,1.684032910991975493e-05,-5.187176853079338893e-06
2.360317460317460370e+00,1.845666446007519543e-05,-1.846573214115904282e-05
2.361111111111111160e+00,1.897552770140196145e-05,-2.953855898708370630e-05
2.361904761904761951e+00,1.820006503447789984e-05,-3.813518768928821068e-05
2.362698412698412742e+00,1.602681861501163219e-05,-4.418118965682363487e-05
2.363492063492063533e+00,1.248602175688004533e-05,-4.766534039238792667e-05
2.364285714285714324e+00,7.776737506355427637e-06,-4.852435694736886396e-05
2.365079365079365115e+00,2.281020708449915103e-06,-4.660616399831143231e-05
2.365873015873015905e+00,-3.461043895524068676e-06,-4.174587716772216615e-05
2.366666666666666696e+00,-8.825653757122948437e-06,-3.393589681126944475e-05
2.367460317460317487e+00,-1.322019593589377163e-05,-2.352012719264380590e-05
2.368253968253968278e+00,-1.620838214258922441e-05,-1.131948500739844613e-05
2.369047619047619069e+00,-1.760413355268237428e-05,1.384786992747040385e-06
2.369841269841269860e+00,-1.750052680496375220e-05,1.303096334439365714e-05
2.370634920634920650e+00,-1.622423369287356398e-05,2.207974773512313038e-05
2.371428571428571441e+00,-1.423412284825365724e-05,2.735400845078623304e-05
2.372222222222222232e+00,-1.200092231196822038e-05,2.831201593795608997e-05
2.373015873015873023e+00,-9.905633293804291705e-06,2.516911033997225539e-05
2.373809523809523814e+00,-8.180357382407180857e-06,1.883334478119135690e-05
2.374603174603174605e+00,-6.895873586802811070e-06,1.068625662899304054e-05
2.375396825396825395e+00,-5.985559129559914395e-06,2.290794914645387991e-06
2.376190476190476186e+00,-5.289742465316731592e-06,-4.880880504627484274e-06
2.376984126984126977e+00,-4.606591818596277991e-06,-9.638690175825233045e-06
2.377777777777777768e+00,-3.740394728184811733e-06,-1.117551496140950521e-05
2.378571428571428559e+00,-2.541854720977210724e-06,-9.109422689282071302e-06
2.379365079365079350e+00,-9.369240398607475109e-07,-3.510248758860371517e-06
2.380158730158730140e+00,1.058253755914755725e-06,5.067216582904533531e-06
2.380952380952380931e+00,3.337353842451226386e-06,1.556026563731855859e-05
2.381746031746031722e+00,5.717891982913600267e-06,2.643749422434588076e-05
2.382539682539682513e+00,7.965875397902306767e-06,3.586136709467741088e-05
2.383333333333333304e+00,9.825316486362704229e-06,4.200502460029018379e-05
2.384126984126984095e+00,1.104578397247906920e-05,4.348598064199239526e-05
2.384920634920634885e+00,1.140360314294730315e-05,3.979590749344460884e-05
2.385714285714285676e+00,1.071966218068519340e-05,3.155165047138622355e-05
2.386507936507936467e+00,8.886436971203020795e-06,2.041537264734999974e-05
2.387301587301587258e+00,5.920754049502059925e-06,8.644979080061944104e-06
2.388095238095238049e+00,2.047883967375822042e-06,-1.601967643002312311e-06
2.388888888888888840e+00,-2.204280417609808896e-06,-8.956417587656252197e-06
2.389682539682539630e+00,-5.952384028993702679e-06,-1.323942649855707919e-05
2.390476190476190421e+00,-8.010019228141425962e-06,-1.541055116980143938e-05
2.391269841269841212e+00,-7.088465665770312352e-06,-1.709742848989104932e-05
2.392063492063492003e+00,-2.136195132137976692e-06,-1.992256119383715887e-05
2.392857142857142794e+00,7.257034943941386863e-06,-2.490849204688703639e-05
2.393650793650793585e+00,2.051375783831328080e-05,-3.217229525901145709e-05
2.394444444444444375e+00,3.591186073269572520e-05,-4.097074995157533718e-05
2.395238095238095166e+00,5.071433816359993522e-05,-5.000835771678552056e-05
2.396031746031745957e+00,6.161243992819614556e-05,-5.783480849806526549e-05
2.396825396825396748e+00,6.541810372914851025e-05,-6.316634128358667561e-05
2.397619047619047539e+00,5.985267853107753880e-05,-6.505164161002681097e-05
2.398412698412698330e+00,4.422158008846381155e-05,-6.291014970638620957e-05
2.399206349206349120e+00,1.976717764428982422e-05,-5.653119483240655378e-05
2.399999999999999911e+00,-1.043389607129107948e-05,-4.610389934702741451e-05
2.400793650793650702e+00,-4.203486533544782613e-05,-3.227620084843419834e-05
2.401587301587301493e+00,-7.030980545125730676e-05,-1.617890801832221417e-05
2.402380952380952284e+00,-9.113431289931652217e-05,6.542144109862129436e-07
2.403174603174603075e+00,-1.017934533688325265e-04,1.648858119631339199e-05
2.403968253968253865e+00,-1.014180163316541521e-04,2.966854430033429761e-05
2.404761904761904656e+00,-9.097592231470510776e-05,3.889838573373391418e-05
2.405555555555555447e+00,-7.288081821184539766e-05,4.345668004254926909e-05
2.406349206349206238e+00,-5.037203784132335504e-05,4.330505850966454728e-05
2.407142857142857029e+00,-2.684338108743852255e-05,3.908025703761497296e-05
2.407936507936507819e+00,-5.262131667415088260e-06,3.197821074405906265e-05
2.408730158730158610e+00,1.224212546735771580e-05,2.355349184845159134e-05
2.409523809523809401e+00,2.459277379571090476e-05,1.546848744060717987e-05
2.410317460317460192e+00,3.178879459156227404e-05,9.232503965593422810e-06
2.411111111111110983e+00,3.474962562877893525e-05,5.969509024410599111e-06
2.411904761904761774e+00,3.500786545492624928e-05,6.245944805330687165e-06
2.412698412698412564e+00,3.429718227907993262e-05,9.980339797635315603e-06
2.413492063492063355e+00,3.411179753755177329e-05,1.644635049982272299e-05
2.414285714285714146e+00,3.533361814146980219e-05,2.437122310504643855e-05
2.415079365079364937e+00,3.801843130074631874e-05,3.212293124372872478e-05
2.415873015873015728e+00,4.140079056463183508e-05,3.796982235553684538e-05
2.416666666666666519e+00,4.412556113137219767e-05,4.038373871912577642e-05
2.417460317460317309e+00,4.465359289040846124e-05,3.834241782548174622e-05
2.418253968253968100e+00,4.173432632740673066e-05,3.157534497701003384e-05
2.419047619047618891e+00,3.480896725706029103e-05,2.069426737211965190e-05
2.419841269841269682e+00,2.422173385373235696e-05,7.158265329861596459e-06
2.420634920634920473e+00,1.117492718420065943e-05,-6.951249271543765659e-06
2.421428571428571264e+00,-2.554719809849517762e-06,-1.932382568106117595e-05
2.422222222222222054e+00,-1.504757574966120213e-05,-2.790250785913699224e-05
2.423015873015872845e+00,-2.468952911565523118e-05,-3.133505513086998640e-05
2.423809523809523636e+00,-3.050938883714444762e-05,-2.927177000028217491e-05
2.424603174603174427e+00,-3.232024879651843047e-05,-2.242941190714954793e-05
2.425396825396825218e+00,-3.064738258686445133e-05,-1.240757815187501601e-05
2.426190476190476009e+00,-2.649302281791499585e-05,-1.310579654304064594e-06
2.426984126984126799e+00,-2.103090978770793206e-05,8.725616123046081222e-06
2.427777777777777590e+00,-1.532726041094310845e-05,1.598380356500718060e-05
2.428571428571428381e+00,-1.015531444426516311e-05,1.948757857885120585e-05
2.429365079365079172e+00,-5.927060503473166105e-06,1.912780284515785910e-05
2.430158730158729963e+00,-2.727985229062611474e-06,1.558027595932712272e-05
2.430952380952380754e+00,-4.189555828096007634e-07,1.005367738605823257e-05
2.431746031746031544e+00,1.236713115945861137e-06,3.944342277381937766e-06
2.432539682539682335e+00,2.458435716660747963e-06,-1.508853113734817312e-06
2.433333333333333126e+00,3.372732059291068318e-06,-5.483357563944688429e-06
2.434126984126983917e+00,3.990104487103890284e-06,-7.689213989465919612e-06
2.434920634920634708e+00,4.232809403939249279e-06,-8.328696904806101112e-06
2.435714285714285499e+00,3.997832058908204085e-06,-7.924987968087791486e-06
2.436507936507936289e+00,3.229174498316677628e-06,-7.073318058998213685e-06
2.437301587301587080e+00,1.970906894510002634e-06,-6.183897240652124246e-06
2.438095238095238315e+00,3.797850520965009672e-07,-5.291633425007673159e-06
2.438888888888889106e+00,-1.307613723709542030e-06,-3.999057596445933503e-06
2.439682539682539897e+00,-2.839408774058767714e-06,-1.589455956697731202e-06
2.440476190476190688e+00,-4.017837239027212602e-06,2.702829077581985012e-06
2.441269841269841478e+00,-4.746080980192683273e-06,9.335334487098036083e-06
2.442063492063492269e+00,-5.036078029244240864e-06,1.812586885518255059e-05
2.442857142857143060e+00,-4.977358485912967738e-06,2.806608075777390358e-05
2.443650793650793851e+00,-4.681200939252606699e-06,3.736920246458154578e-05
2.444444444444444642e+00,-4.222234610307833766e-06,4.377932307718937287e-05
2.445238095238095433e+00,-3.600065242021708575e-06,4.508873896775623480e-05
2.446031746031746223e+00,-2.736548171551440378e-06,3.973011734996378572e-05
2.446825396825397014e+00,-1.511198872996125321e-06,2.726399147305118796e-05
2.447619047619047805e+00,1.776096596693582780e-07,8.600718566788179712e-06
2.448412698412698596e+00,2.348091451596745326e-06,-1.411820964055085604e-05
2.449206349206349387e+00,4.890539775586712605e-06,-3.794051549845786414e-05
2.450000000000000178e+00,7.558422867681169886e-06,-5.969702660761499081e-05
2.450793650793650968e+00,9.998241806755611490e-06,-7.660393272275803616e-05
2.451587301587301759e+00,1.181013973790217676e-05,-8.672057686792870672e-05
2.452380952380952550e+00,1.262515978042145316e-05,-8.916519930002539417e-05
2.453174603174603341e+00,1.218401626291918200e-05,-8.407831632682817916e-05
2.453968253968254132e+00,1.040376248546650297e-05,-7.240875789136189415e-05
2.454761904761904923e+00,7.420465811786705677e-06,-5.564165339112987513e-05
2.455555555555555713e+00,3.597151782781209010e-06,-3.557958943694922074e-05
2.456349206349206504e+00,-5.119850543318259237e-07,-1.423737874716644826e-05
2.457142857142857295e+00,-4.244982640717398511e-06,6.172547306533383484e-06
2.457936507936508086e+00,-6.956177888220488431e-06,2.327730451837648198e-05
2.458730158730158877e+00,-8.158860393695135097e-06,3.475333069791777086e-05
2.459523809523809668e+00,-7.651178393509459381e-06,3.878412278638343030e-05
2.460317460317460458e+00,-5.586623828888481283e-06,3.466819856811644528e-05
2.461111111111111249e+00,-2.461708184100070288e-06,2.331256664362516920e-05
2.461904761904762040e+00,9.831549641602362599e-07,7.312421667300808929e-06
2.462698412698412831e+00,3.926989477472535643e-06,-9.536239386679658180e-06
2.463492063492063622e+00,5.653909633913498658e-06,-2.318759088856589393e-05
2.464285714285714413e+00,5.713516095796048400e-06,-3.043186583451530129e-05
2.465079365079365203e+00,4.016865253323147815e-06,-2.972078984684866848e-05
2.465873015873015994e+00,8.469227272543049749e-07,-2.146177977432626584e-05
2.466666666666666785e+00,-3.215730531836828613e-06,-7.744001269897106296e-06
2.467460317460317576e+00,-7.430461576483530245e-06,8.333019248179499868e-06
2.468253968253968367e+00,-1.106064511259773144e-05,2.346877179568915612e-05
2.469047619047619158e+00,-1.352228963385395076e-05,3.488142706272716890e-05
2.469841269841269948e+00,-1.448336076402552923e-05,4.080205397974437365e-05
2.470634920634920739e+00,-1.389830464452272425e-05,4.069826125941809357e-05
2.471428571428571530e+00,-1.198197667384518153e-05,3.524463244804376156e-05
2.472222222222222321e+00,-9.139819444530063850e-06,2.609346908233248542e-05
2.473015873015873112e+00,-5.875099184400168313e-06,1.551558806612165665e-05
2.473809523809523903e+00,-2.692839205128275615e-06,5.979540618494783125e-06
2.474603174603174693e+00,-1.671058008587065668e-08,-2.751471481001472493e-07
2.475396825396825484e+00,1.869761385254176035e-06,-1.625590228830840715e-06
2.476190476190476275e+00,2.852056635637801522e-06,2.632986704523012434e-06
2.476984126984127066e+00,2.983288927977744583e-06,1.212634341450436533e-05
2.477777777777777857e+00,2.456675844170823422e-06,2.542678664311446820e-05
2.478571428571428648e+00,1.559329455232991933e-06,4.027173886473933749e-05
2.479365079365079438e+00,6.166826131874041234e-07,5.392499904400008883e-05
2.480158730158730229e+00,-6.356563451070297517e-08,6.359442441808307693e-05
2.480952380952381020e+00,-2.412224303094788521e-07,6.683432057112745470e-05
2.481746031746031811e+00,2.176546897856739956e-07,6.191137809475115667e-05
2.482539682539682602e+00,1.317322280930188294e-06,4.814455544718196774e-05
2.483333333333333393e+00,2.929205332316333047e-06,2.619786154594671272e-05
2.484126984126984183e+00,4.813595392375410267e-06,-1.769618768708164507e-06
2.484920634920634974e+00,6.666646638654312442e-06,-3.223478804569102963e-05
2.485714285714285765e+00,8.185074879974479881e-06,-6.081169232328559180e-05
2.486507936507936556e+00,9.132429224170037770e-06,-8.308006752682965213e-05
2.487301587301587347e+00,9.387384391598061934e-06,-9.554926996307917017e-05
2.488095238095238138e+00,8.959656969574683933e-06,-9.647373011065353110e-05
2.488888888888888928e+00,7.971025342878400508e-06,-8.625619666452625297e-05
2.489682539682539719e+00,6.611435820143623593e-06,-6.731081501691080313e-05
2.490476190476190510e+00,5.087263814385244778e-06,-4.344433801434687199e-05
2.491269841269841301e+00,3.578138609439839084e-06,-1.895780369765497517e-05
2.492063492063492092e+00,2.212138960442624949e-06,2.277631017092948926e-06
2.492857142857142883e+00,1.060568606351134860e-06,1.754916546964794001e-05
2.493650793650793673e+00,1.467987960053673741e-07,2.569509523372646694e-05
2.494444444444444464e+00,-5.389944638559153326e-07,2.712023513923547650e-05
2.495238095238095255e+00,-1.026157445649197518e-06,2.348130367367872671e-05
2.496031746031746046e+00,-1.354602957315056392e-06,1.715154518347136465e-05
2.496825396825396837e+00,-1.570808088239296305e-06,1.060456544787071323e-05
2.497619047619047628e+00,-1.726836834561126637e-06,5.858544607213649269e-06
2.498412698412698418e+00,-1.879801182247789361e-06,4.094935629046905223e-06
2.499206349206349209e+00,-2.089280853817545562e-06,5.514953523408931197e-06
2.500000000000000000e+00,-2.410594033575137178e-06,9.435476435667197563e-06
2.500793650793650791e+00,-2.882934644165431734e-06,1.457101912302435975e-05
2.501587301587301582e+00,-3.513774468351083568e-06,1.941437718823624579e-05
2.502380952380952372e+00,-4.264167699699692848e-06,2.262091705479974728e-05
2.503174603174603163e+00,-5.042419586356134048e-06,2.331632951443877744e-05
2.503968253968253954e+00,-5.713946171909463858e-06,2.127437460826665124e-05
2.504761904761904745e+00,-6.130951325295001856e-06,1.693952607472895371e-05
2.505555555555555536e+00,-6.176669650791442493e-06,1.129659570963836974e-05
2.506349206349206327e+00,-5.808929756534018200e-06,5.617708071182572624e-06
2.507142857142857117e+00,-5.082916542510234164e-06,1.144182235747451757e-06
2.507936507936507908e+00,-4.138022330605400203e-06,-1.222496052596755060e-06
2.508730158730158699e+00,-3.147330935636158599e-06,-1.148100506478029608e-06
2.509523809523809490e+00,-2.243588830036865765e-06,1.041927719393647760e-06
2.510317460317460281e+00,-1.445750166110031968e-06,4.428417244226583967e-06
2.511111111111111072e+00,-6.133617625222649713e-07,7.711870775526313439e-06
2.511904761904761862e+00,5.475065694464687953e-07,9.530290735385700689e-06
2.512698412698412653e+00,2.414607863417560956e-06,8.813528360452430732e-06
2.513492063492063444e+00,5.324036488187759662e-06,5.092825664801021798e-06
2.514285714285714235e+00,9.420344506550524532e-06,-1.313899084136691310e-06
2.515079365079365026e+00,1.452988722827843947e-05,-9.299807575546425550e-06
2.515873015873015817e+00,2.010421926354187560e-05,-1.716946775312047511e-05
2.516666666666666607e+00,2.526180198004810310e-05,-2.300998438024777875e-05
2.517460317460317398e+00,2.892877339392608849e-05,-2.515055340024661593e-05
2.518253968253968189e+00,3.005353499080140031e-05,-2.259517340730694937e-05
2.519047619047618980e+00,2.785101786448846467e-05,-1.531434452029204827e-05
2.519841269841269771e+00,2.202232516039554050e-05,-4.321336120849661478e-06
2.520634920634920562e+00,1.289451061096397613e-05,8.478785205834462601e-06
2.521428571428571352e+00,1.434134617130300624e-06,2.062377872445547261e-05
2.522222222222222143e+00,-1.089038325649323002e-05,2.954341691319805808e-05
2.523015873015872934e+00,-2.238513347599409541e-05,3.305497980262731651e-05
2.523809523809523725e+00,-3.148498897538836420e-05,2.983929788110239035e-05
2.524603174603174516e+00,-3.708684394613883414e-05,1.981831807787547958e-05
2.525396825396825307e+00,-3.876036740527044085e-05,4.337578532838986381e-06
2.526190476190476097e+00,-3.677570504879407962e-05,-1.393511659072765724e-05
2.526984126984126888e+00,-3.195403334886448142e-05,-3.143230979502472977e-05
2.527777777777777679e+00,-2.540750332925261143e-05,-4.438464091560983713e-05
2.528571428571428470e+00,-1.826336763746874776e-05,-4.966128703501390543e-05
2.529365079365079261e+00,-1.145426871396248277e-05,-4.556092306332213234e-05
2.530158730158730052e+00,-5.614350453087826020e-06,-3.234698322824775311e-05
2.530952380952380842e+00,-1.072584225637428676e-06,-1.236135484083443207e-05
2.531746031746031633e+00,2.097124248113289471e-06,1.035770117135651031e-05
2.532539682539682424e+00,4.014067392259321373e-06,3.090384948694574425e-05
2.533333333333333215e+00,4.944046498134742950e-06,4.460488700113254563e-05
2.534126984126984006e+00,5.269463135844213076e-06,4.813981577260058141e-05
2.534920634920634797e+00,5.460753502366155803e-06,4.038632487656531564e-05
2.535714285714285587e+00,6.031276572749546547e-06,2.276219925914602796e-05
2.536507936507936378e+00,7.466143701352593978e-06,-1.056207164704812187e-06
2.537301587301587169e+00,1.012757152146543249e-05,-2.598647551893309621e-05
2.538095238095237960e+00,1.415078880075036799e-05,-4.674301284996023454e-05
2.538888888888888751e+00,1.935391040630190642e-05,-5.906433523407008621e-05
2.539682539682539542e+00,2.519080323726956915e-05,-6.064038099708381907e-05
2.540476190476190332e+00,3.077445079592482042e-05,-5.152158451620156418e-05
2.541269841269841123e+00,3.498665055658158019e-05,-3.395373431842765681e-05
2.542063492063491914e+00,3.666861479037955671e-05,-1.173592374619241127e-05
2.542857142857142705e+00,3.486227123261737243e-05,1.070287781839807272e-05
2.543650793650793496e+00,2.905319637455293857e-05,2.927944353378134960e-05
2.544444444444444287e+00,1.935952075417796120e-05,4.106901926539821226e-05
2.545238095238095077e+00,6.616000514193349473e-06,4.478456914438115009e-05
2.546031746031745868e+00,-7.684957398239440914e-06,4.082625713087014937e-05
2.546825396825396659e+00,-2.161204244743040990e-05,3.091411418366335435e-05
2.547619047619047450e+00,-3.315437152609785855e-05,1.744248371833197751e-05
2.548412698412698241e+00,-4.065314049384198872e-05,2.788071257554078831e-06
2.549206349206349032e+00,-4.319240423796094451e-05,-1.118616430992948204e-05
2.549999999999999822e+00,-4.082278110861860547e-05,-2.328084440036166196e-05
2.550793650793650613e+00,-3.453082825368061607e-05,-3.278010382834314120e-05
2.551587301587301404e+00,-2.595209981663310319e-05,-3.912325918487106628e-05
2.552380952380952195e+00,-1.692185405557328844e-05,-4.167467281663922928e-05
2.553174603174602986e+00,-9.015801927635833793e-06,-3.975352645389312417e-05
2.553968253968253777e+00,-3.224492520616426718e-06,-3.290816857487743636e-05
2.554761904761904567e+00,1.618302475351430645e-07,-2.127338189671904953e-05
2.555555555555555358e+00,1.466015629215995804e-06,-5.816508547765027352e-06
2.556349206349206149e+00,1.404406736338434905e-06,1.165147412726405661e-05
2.557142857142856940e+00,8.248591087136149176e-07,2.871882832164426166e-05
2.557936507936507731e+00,4.774424366186167104e-07,4.280612875124872678e-05
2.558730158730158522e+00,8.619291266193853738e-07,5.168296079989969413e-05
2.559523809523809312e+00,2.165436505583079502e-06,5.394974185062142774e-05
2.560317460317460103e+00,4.280570155843221710e-06,4.937349173048290733e-05
2.561111111111110894e+00,6.880226053709402968e-06,3.898930595781737905e-05
2.561904761904761685e+00,9.519364976160022180e-06,2.492040257474239357e-05
2.562698412698412920e+00,1.173663215688863811e-05,9.931649820590796805e-06
2.563492063492063711e+00,1.313827804780376539e-05,-3.192135569709922945e-06
2.564285714285714501e+00,1.345815610319417369e-05,-1.228540695123826322e-05
2.565079365079365292e+00,1.259408413700499050e-05,-1.627924320613452678e-05
2.565873015873016083e+00,1.062090048529492860e-05,-1.537992897501634402e-05
2.566666666666666874e+00,7.778553272978224221e-06,-1.090299240891660742e-05
2.567460317460317665e+00,4.434370185043897487e-06,-4.817656432311361671e-06
2.568253968253968456e+00,1.023017167721544915e-06,8.666806208892939636e-07
2.569047619047619246e+00,-2.026508999424808332e-06,4.701162704701047883e-06
2.569841269841270037e+00,-4.362643724147405925e-06,6.214774682173735398e-06
2.570634920634920828e+00,-5.766111430661989184e-06,6.019358319125644228e-06
2.571428571428571619e+00,-6.175848385143467781e-06,5.556541675539391169e-06
2.572222222222222410e+00,-5.681905755758166051e-06,6.549326050912883374e-06
2.573015873015873201e+00,-4.490420332875200907e-06,1.032125550121210299e-05
2.573809523809523991e+00,-2.872667331713478523e-06,1.720088171560861751e-05
2.574603174603174782e+00,-1.112539004185923277e-06,2.621648996539755022e-05
2.575396825396825573e+00,5.359548205541718809e-07,3.520654859537247273e-05
2.576190476190476364e+00,1.875835277998186891e-06,4.134741136672832873e-05
2.576984126984127155e+00,2.780446620146159572e-06,4.196780110971000887e-05
2.577777777777777946e+00,3.198554898886471057e-06,3.541883281669426807e-05
2.578571428571428736e+00,3.156350116237926328e-06,2.173198849473395534e-05
2.579365079365079527e+00,2.756648140457032013e-06,2.843407701109724271e-06
2.580158730158730318e+00,2.170076609028305665e-06,-1.771923014175650680e-05
2.580952380952381109e+00,1.611365107192834139e-06,-3.563909608413082047e-05
2.581746031746031900e+00,1.298093528911388961e-06,-4.691117842382397255e-05
2.582539682539682691e+00,1.397321561908716764e-06,-4.895122004749206794e-05
2.583333333333333481e+00,1.973236243053793246e-06,-4.139412052427559501e-05
2.584126984126984272e+00,2.952764080325339064e-06,-2.632901252764667668e-05
2.584920634920635063e+00,4.123991203407448458e-06,-7.869004657628292425e-06
2.585714285714285854e+00,5.173948920229827280e-06,8.855983298778916861e-06
2.586507936507936645e+00,5.760115442073406444e-06,1.902518981034229074e-05
2.587301587301587436e+00,5.598435166714077921e-06,1.941461429242042244e-05
2.588095238095238226e+00,4.544357152608564011e-06,9.287973002510684585e-06
2.588888888888889017e+00,2.644466519799754150e-06,-9.367290879811919756e-06
2.589682539682539808e+00,1.437199595677597550e-07,-3.233759800791559207e-05
2.590476190476190599e+00,-2.555736888130807644e-06,-5.428182652203275175e-05
2.591269841269841390e+00,-4.976485329654728680e-06,-7.012206550895567223e-05
2.592063492063492181e+00,-6.670699719456005981e-06,-7.633504030695424658e-05
2.592857142857142971e+00,-7.324305393998704243e-06,-7.178855288715216927e-05
2.593650793650793762e+00,-6.836930073216953789e-06,-5.790770609738822735e-05
2.594444444444444553e+00,-5.359392973485343646e-06,-3.815606332971198362e-05
2.595238095238095344e+00,-3.278155293823347940e-06,-1.701443947093543219e-05
2.596031746031746135e+00,-1.144930424042876462e-06,1.225464809623521378e-06
2.596825396825396925e+00,4.401425885305037629e-07,1.350156321948806983e-05
2.597619047619047716e+00,9.720503987456278967e-07,1.857960761212556759e-05
2.598412698412698507e+00,1.816184225454315678e-07,1.708980482668267021e-05
2.599206349206349298e+00,-1.860738581213361365e-06,1.106358859938647242e-05
2.600000000000000089e+00,-4.709012460842718190e-06,3.171746798635350719e-06
2.600793650793650880e+00,-7.593101183191953694e-06,-4.075358788755354319e-06
2.601587301587301670e+00,-9.560794803052801390e-06,-8.929151172673358480e-06
2.602380952380952461e+00,-9.692082705231822934e-06,-1.066171632817667653e-05
2.603174603174603252e+00,-7.343649255686937720e-06,-9.467419679976908617e-06
2.603968253968254043e+00,-2.360740508430172980e-06,-6.113434153028847719e-06
2.604761904761904834e+00,4.811705368974594432e-06,-1.510790234530120380e-06
2.605555555555555625e+00,1.316568195073563452e-05,3.635955659821085983e-06
2.606349206349206415e+00,2.131590690608688163e-05,9.013319357805176367e-06
2.607142857142857206e+00,2.778566896040598612e-05,1.470566902138432155e-05
2.607936507936507997e+00,3.131444352552224304e-05,2.105353718761877240e-05
2.608730158730158788e+00,3.111309444636373275e-05,2.840926516417210894e-05
2.609523809523809579e+00,2.701839648993032236e-05,3.685722939929966894e-05
2.610317460317460370e+00,1.952616845247522767e-05,4.599586538983053112e-05
2.611111111111111160e+00,9.702337736547424619e-06,5.488326708833459941e-05
2.611904761904761951e+00,-1.012240941424377260e-06,6.219585871867845033e-05
2.612698412698412742e+00,-1.106937419963099164e-05,6.655559274710994260e-05
2.613492063492063533e+00,-1.910283163168407096e-05,6.690258294325482911e-05
2.614285714285714324e+00,-2.418046501141577566e-05,6.277701209101515893e-05
2.615079365079365115e+00,-2.596500715208518791e-05,5.442708738858752216e-05
2.615873015873015905e+00,-2.474648663418712287e-05,4.273631508550966378e-05
2.616666666666666696e+00,-2.133690155355835038e-05,2.902041903803681018e-05
2.617460317460317487e+00,-1.685245360092201510e-05,1.476752712452617537e-05
2.618253968253968278e+00,-1.244001536587326815e-05,1.391456039497532567e-06
2.619047619047619069e+00,-9.019236353814129133e-06,-9.954283406962304684e-06
2.619841269841269860e+00,-7.103405195762889474e-06,-1.848627328148338592e-05
2.620634920634920650e+00,-6.735531508165353199e-06,-2.383680701813978419e-05
2.621428571428571441e+00,-7.542095403763229749e-06,-2.605517043055807072e-05
2.622222222222222232e+00,-8.876922467734398692e-06,-2.557211086158736805e-05
2.623015873015873023e+00,-1.000969059188173877e-05,-2.312112993784288595e-05
2.623809523809523814e+00,-1.031010639752078465e-05,-1.961394897539888628e-05
2.624603174603174605e+00,-9.387304185099145350e-06,-1.598770766544443015e-05
2.625396825396825395e+00,-7.160160077861092412e-06,-1.305860467373566433e-05
2.626190476190476186e+00,-3.853510809040923726e-06,-1.141355602905059066e-05
2.626984126984126977e+00,6.720610037756257234e-08,-1.134967594024813779e-05
2.627777777777777768e+00,3.999487507281595353e-06,-1.284901796161487007e-05
2.628571428571428559e+00,7.320390823025910414e-06,-1.557007278991630127e-05
2.629365079365079350e+00,9.497060973545542453e-06,-1.885057582233223020e-05
2.630158730158730140e+00,1.018018018803675200e-05,-2.173836819191870339e-05
2.630952380952380931e+00,9.274310333941800243e-06,-2.308345747487065060e-05
2.631746031746031722e+00,6.978692752891093650e-06,-2.172024131631717441e-05
2.632539682539682513e+00,3.788994114318502696e-06,-1.673894008495260976e-05
2.633333333333333304e+00,4.498248295350857820e-07,-7.802487383099352642e-06
2.634126984126984095e+00,-2.146990016209197380e-06,4.568966057706049197e-06
2.634920634920634885e+00,-3.112931149305519809e-06,1.883751659885698381e-05
2.635714285714285676e+00,-1.743794618498300267e-06,3.249688212447753054e-05
2.636507936507936467e+00,2.299476132221477932e-06,4.239290540138783170e-05
2.637301587301587258e+00,8.850092843723645402e-06,4.532479136880403941e-05
2.638095238095238049e+00,1.717705613049259300e-05,3.885111394452281451e-05
2.638888888888888840e+00,2.604160026525309879e-05,2.211738546097248570e-05
2.639682539682539630e+00,3.387735756519847968e-05,-3.562610887168155302e-06
2.640476190476190421e+00,3.907042811162209778e-05,-3.463828927750687214e-05
2.641269841269841212e+00,4.028407010752431459e-05,-6.590620267589062612e-05
2.642063492063492003e+00,3.675396222583087288e-05,-9.165840476162297711e-05
2.642857142857142794e+00,2.848167427537428475e-05,-1.070709919950469546e-04
2.643650793650793585e+00,1.627705352820919550e-05,-1.093820478491208149e-04
2.644444444444444375e+00,1.637755846494697670e-06,-9.847051289978244382e-05
2.645238095238095166e+00,-1.350659981081684844e-05,-7.668222585142985210e-05
2.646031746031745957e+00,-2.713007007586835240e-05,-4.803909461605802904e-05
2.646825396825396748e+00,-3.745962770902276238e-05,-1.716495727462441723e-05
2.647619047619047539e+00,-4.327559491074152047e-05,1.171150045099798455e-05
2.648412698412698330e+00,-4.411114338174546007e-05,3.543270272144779967e-05
2.649206349206349120e+00,-4.031242261718495033e-05,5.219113045072335265e-05
2.649999999999999911e+00,-3.294280902222553167e-05,6.147052594772922228e-05
2.650793650793650702e+00,-2.354812197009036802e-05,6.377472408503862163e-05
2.651587301587301493e+00,-1.383581514111030352e-05,6.027691583551060886e-05
2.652380952380952284e+00,-5.343905853320116347e-06,5.249563654780066028e-05
2.653174603174603075e+00,8.257921267932302823e-07,4.205816160502080428e-05
2.653968253968253865e+00,4.158716511394242123e-06,3.055750431756574132e-05
2.654761904761904656e+00,4.745624712133653964e-06,1.946431696235089912e-05
2.655555555555555447e+00,3.183108614721111522e-06,1.004059657695845624e-05
2.656349206349206238e+00,3.944196698613899153e-07,3.225026992974938431e-06
2.657142857142857029e+00,-2.583003564988029091e-06,-4.945380242866206618e-07
2.657936507936507819e+00,-4.801343139569640652e-06,-1.167068607258087508e-06
2.658730158730158610e+00,-5.567770427641032689e-06,6.360139349156765690e-07
2.659523809523809401e+00,-4.553663932192517192e-06,3.958586130101034060e-06
2.660317460317460192e+00,-1.836378702794312280e-06,7.690060547904737490e-06
2.661111111111110983e+00,2.134775662301852362e-06,1.081848221734507363e-05
2.661904761904761774e+00,6.648747450992557803e-06,1.263230911575630585e-05
2.662698412698412564e+00,1.090121187225961623e-05,1.282242061078093076e-05
2.663492063492063355e+00,1.418067934890530592e-05,1.147469783593703305e-05
2.664285714285714146e+00,1.601980566847900067e-05,8.977482529253265881e-06
2.665079365079364937e+00,1.627013358178835647e-05,5.885451153910826350e-06
2.665873015873015728e+00,1.508797051627889024e-05,2.779806082328621133e-06
2.666666666666666519e+00,1.285044730576500945e-05,1.521663659528881251e-07
2.667460317460317309e+00,1.003822675455912237e-05,-1.673055451769474365e-06
2.668253968253968100e+00,7.121362155563763271e-06,-2.571535225823353771e-06
2.669047619047618891e+00,4.474062962658153256e-06,-2.608101050538227457e-06
2.669841269841269682e+00,2.330444257008771118e-06,-1.990818293228222265e-06
2.670634920634920473e+00,7.809623286759140285e-07,-1.005586526028989906e-06
2.671428571428571264e+00,-2.001791401092203593e-07,5.083962093344806440e-08
2.672222222222222054e+00,-7.116722354082736662e-07,9.239812749346540671e-07
2.673015873015872845e+00,-8.813505631226655825e-07,1.431423893997403877e-06
2.673809523809523636e+00,-8.340753665350168072e-07,1.467239396181564352e-06
2.674603174603174427e+00,-6.773573129730067728e-07,9.864628776856415270e-07
2.675396825396825218e+00,-5.039324101518970360e-07,-1.898464821372575660e-08
2.676190476190476009e+00,-4.042285197720332504e-07,-1.538371300958643760e-06
2.676984126984126799e+00,-4.778602900025897622e-07,-3.540287428366937148e-06
2.677777777777777590e+00,-8.332948082492832157e-07,-5.942139878900903671e-06
2.678571428571428381e+00,-1.568580335420255428e-06,-8.552982539235716114e-06
2.679365079365079172e+00,-2.732715680761268559e-06,-1.100718668126060547e-05
2.680158730158729963e+00,-4.275849341507824146e-06,-1.272260694620836456e-05
2.680952380952380754e+00,-6.005006833130098976e-06,-1.292529987333262265e-05
2.681746031746031544e+00,-7.566901237873194899e-06,-1.077433284909220669e-05
2.682539682539682335e+00,-8.477135024745226900e-06,-5.590597055011484394e-06
2.683333333333333126e+00,-8.204717889446659502e-06,2.851870793389075265e-06
2.684126984126983917e+00,-6.304228666476260517e-06,1.405971389667559078e-05
2.684920634920634708e+00,-2.569047490399315465e-06,2.669331709523165054e-05
2.685714285714285499e+00,2.836699432615824228e-06,3.868032302989493610e-05
2.686507936507936289e+00,9.315673574384436575e-06,4.760772456110002227e-05
2.687301587301587080e+00,1.588223051456371366e-05,5.132538265983535808e-05
2.688095238095238315e+00,2.132494793745393289e-05,4.858137842339602748e-05
2.688888888888889106e+00,2.445895840443566995e-05,3.944689295515112763e-05
2.689682539682539897e+00,2.440564545223641862e-05,2.532999392305206439e-05
2.690476190476190688e+00,2.082120253873429150e-05,8.535758255893207631e-06
2.691269841269841478e+00,1.400665754047339042e-05,-8.460461131357127160e-06
2.692063492063492269e+00,4.866688926300620662e-06,-2.372056955840414594e-05
2.692857142857143060e+00,-5.271265985341341995e-06,-3.624696694772918022e-05
2.693650793650793851e+00,-1.492884914166337457e-05,-4.596047844995271206e-05
2.694444444444444642e+00,-2.277082446371892521e-05,-5.333272147545326365e-05
2.695238095238095433e+00,-2.785224403210766252e-05,-5.888008535107682470e-05
2.696031746031746223e+00,-2.976585657831579224e-05,-6.273783145004419612e-05
2.696825396825397014e+00,-2.866384720106630269e-05,-6.446037843353303481e-05
2.697619047619047805e+00,-2.515911451903423375e-05,-6.309722575797456620e-05
2.698412698412698596e+00,-2.013985824395962259e-05,-5.750849627539306668e-05
2.699206349206349387e+00,-1.455039222564926740e-05,-4.681706489102080231e-05
2.700000000000000178e+00,-9.195142652783826065e-06,-3.085480027056392076e-05
2.700793650793650968e+00,-4.610683117612689657e-06,-1.046693045764190989e-05
2.701587301587301759e+00,-1.027319501285927625e-06,1.240834639553696649e-05
2.702380952380952550e+00,1.584628398124167759e-06,3.490062002259461464e-05
2.703174603174603341e+00,3.410324868201379315e-06,5.358031687480662537e-05
2.703968253968254132e+00,4.666096848291743235e-06,6.500077355235683472e-05
2.704761904761904923e+00,5.494653958868679028e-06,6.635337060445067187e-05
2.705555555555555713e+00,5.910788871193480309e-06,5.614694493040392329e-05
2.706349206349206504e+00,5.813308327234217447e-06,3.477341380486114570e-05
2.707142857142857295e+00,5.059645549550990453e-06,4.782850662970543423e-06
2.707936507936508086e+00,3.579456426447269717e-06,-2.929906049084683053e-05
2.708730158730158877e+00,1.487481687939150011e-06,-6.168928594239629192e-05
2.709523809523809668e+00,-8.496233408521632668e-07,-8.651487028703555777e-05
2.710317460317460458e+00,-2.828172709905462000e-06,-9.916048587523222516e-05
2.711111111111111249e+00,-3.715548459524534010e-06,-9.741780529869993599e-05
2.711904761904762040e+00,-2.831885717633189008e-06,-8.208711617724394739e-05
2.712698412698412831e+00,2.409776982836379212e-07,-5.683689768996664837e-05
2.713492063492063622e+00,5.483050945396382938e-06,-2.733327249091262341e-05
2.714285714285714413e+00,1.234934592164040911e-05,1.646316515559172187e-07
2.715079365079365203e+00,1.981184170867335550e-05,2.040909708941004262e-05
2.715873015873015994e+00,2.653798744880835240e-05,3.054655405357121275e-05
2.716666666666666785e+00,3.117284648208570511e-05,3.086185139466639189e-05
2.717460317460317576e+00,3.265356573621332908e-05,2.461819313374774418e-05
2.718253968253968367e+00,3.046581609638838802e-05,1.700852661953683760e-05
2.719047619047619158e+00,2.476552370039049859e-05,1.353508016213142738e-05
2.719841269841269948e+00,1.633359540936663097e-05,1.832182282550971284e-05
2.720634920634920739e+00,6.386842588852129861e-06,3.287146587633379171e-05
2.721428571428571530e+00,-3.690767042149143838e-06,5.561821375730467812e-05
2.722222222222222321e+00,-1.262078388525560344e-05,8.236882140345548825e-05
2.723015873015873112e+00,-1.944496289708925413e-05,1.074558264819333272e-04
2.723809523809523903e+00,-2.364517449070576034e-05,1.252300510524376057e-04
2.724603174603174693e+00,-2.515774322295361257e-05,1.314564821891669956e-04
2.725396825396825484e+00,-2.429584427201607504e-05,1.242648484442635372e-04
2.726190476190476275e+00,-2.161460253601972528e-05,1.044878641416934005e-04
2.726984126984127066e+00,-1.776412994431249680e-05,7.539806799035402756e-05
2.727777777777777857e+00,-1.336966982080803839e-05,4.196600884968146978e-05
2.728571428571428648e+00,-8.958961247360276820e-06,9.815100155882268759e-06
2.729365079365079438e+00,-4.936460135835765715e-06,-1.592554451536473751e-05
2.730158730158730229e+00,-1.590909058180913235e-06,-3.165880312030071227e-05
2.730952380952381020e+00,8.821970336235456688e-07,-3.605105639973682740e-05
2.731746031746031811e+00,2.360974277472112555e-06,-3.030595914863900723e-05
2.732539682539682602e+00,2.792780629199495426e-06,-1.790074872517030447e-05
2.733333333333333393e+00,2.208391619064655389e-06,-3.800642946065029489e-06
2.734126984126984183e+00,7.478850789006140758e-07,6.716895145157381770e-06
2.734920634920634974e+00,-1.315668081696450502e-06,9.375834310803241587e-06
2.735714285714285765e+00,-3.570757446140514911e-06,2.019139083118072021e-06
2.736507936507936556e+00,-5.493903656165863194e-06,-1.479260886085788682e-05
2.737301587301587347e+00,-6.515026412166176827e-06,-3.789335292999327260e-05
2.738095238095238138e+00,-6.117619097927865106e-06,-6.231087436711465935e-05
2.738888888888888928e+00,-3.956567581302290367e-06,-8.251872024571351891e-05
2.739682539682539719e+00,3.334452998683086200e-08,-9.378819834508130286e-05
2.740476190476190510e+00,5.567402344352640439e-06,-9.329624219909455674e-05
2.741269841269841301e+00,1.200314443073231920e-05,-8.074888635412188695e-05
2.742063492063492092e+00,1.840806501995775820e-05,-5.842129217127929185e-05
2.742857142857142883e+00,2.370200546413264001e-05,-3.064806979120225189e-05
2.743650793650793673e+00,2.685588804480496512e-05,-2.900522582249369442e-06
2.744444444444444464e+00,2.711007177352438947e-05,1.934689663985809222e-05
2.745238095238095255e+00,2.416149941104243584e-05,3.173316173775256771e-05
2.746031746031746046e+00,1.826421093834177192e-05,3.189793795049991864e-05
2.746825396825396837e+00,1.019853448868342643e-05,1.997692325054502882e-05
2.747619047619047628e+00,1.097025908873445555e-06,-1.388802787333052290e-06
2.748412698412698418e+00,-7.831750727308773802e-06,-2.754827266010896283e-05
2.749206349206349209e+00,-1.558998336353294267e-05,-5.277586728760470472e-05
2.750000000000000000e+00,-2.158383027916046379e-05,-7.148512620556444271e-05
2.750793650793650791e+00,-2.566096463970749336e-05,-7.946936419295831005e-05
2.751587301587301582e+00,-2.800298585187927509e-05,-7.487122197834303707e-05
2.752380952380952372e+00,-2.894108819451877881e-05,-5.861751737827754059e-05
2.753174603174603163e+00,-2.877737432690163121e-05,-3.417754488710910804e-05
2.753968253968253954e+00,-2.767058281196821905e-05,-6.683818567237549941e-06
2.754761904761904745e+00,-2.560996275983317859e-05,1.836071819309912536e-05
2.755555555555555536e+00,-2.247293974717678837e-05,3.643860429337867518e-05
2.756349206349206327e+00,-1.814158022365330468e-05,4.506448936282161477e-05
2.757142857142857117e+00,-1.263518681861304602e-05,4.424225234472182691e-05
2.757936507936507908e+00,-6.206269140682349047e-06,3.623122258381580532e-05
2.758730158730158699e+00,6.443930764296331132e-07,2.472965423295990067e-05
2.759523809523809490e+00,7.247465182139842359e-06,1.375361141105753039e-05
2.760317460317460281e+00,1.291318417494921208e-05,6.561135282060376970e-06
2.761111111111111072e+00,1.709293693599240509e-05,4.924788389357606267e-06
2.761904761904761862e+00,1.949774931626992088e-05,8.915032665983394660e-06
2.762698412698412653e+00,2.013984233398262598e-05,1.717739162410743275e-05
2.763492063492063444e+00,1.929375671265454929e-05,2.753394317752092628e-05
2.764285714285714235e+00,1.739707560862794648e-05,3.766869381678773332e-05
2.765079365079365026e+00,1.492377969921070739e-05,4.568394367557193267e-05
2.765873015873015817e+00,1.226752184794331774e-05,5.041078515714654057e-05
2.766666666666666607e+00,9.668027758829348292e-06,5.146290074240776781e-05
2.767460317460317398e+00,7.200824630605995675e-06,4.908992688003765059e-05
2.768253968253968189e+00,4.830934948772959833e-06,4.390651372869858822e-05
2.769047619047618980e+00,2.511258539845360954e-06,3.657338767604585087e-05
2.769841269841269771e+00,2.924833454452037398e-07,2.751360623955656392e-05
2.770634920634920562e+00,-1.593391648592691451e-06,1.675936488559115657e-05
2.771428571428571352e+00,-2.708950521215748402e-06,4.018197420567133749e-06
2.772222222222222143e+00,-2.465473649002524121e-06,-1.100613825020488288e-05
2.773015873015872934e+00,-2.528912125839359766e-07,-2.811418166644457148e-05
2.773809523809523725e+00,4.379080784318430912e-06,-4.614435097130069839e-05
2.774603174603174516e+00,1.153006961492756126e-05,-6.282596062979539165e-05
2.775396825396825307e+00,2.079769360997854916e-05,-7.515984054008916719e-05
2.776190476190476097e+00,3.121294398118469550e-05,-8.028744974560229051e-05
2.776984126984126888e+00,4.129654377801570428e-05,-7.650988968631695041e-05
2.777777777777777679e+00,4.924584920679893623e-05,-6.397228710828196301e-05
2.778571428571428470e+00,5.322912293023074782e-05,-4.467524879320253987e-05
2.779365079365079261e+00,5.173316140825342911e-05,-2.183467832842706690e-05
2.780158730158730052e+00,4.389294229867023709e-05,1.074638271112133895e-06
2.780952380952380842e+00,2.973335968325733811e-05,2.119269090911297506e-05
2.781746031746031633e+00,1.026905805306027302e-05,3.682346252972311607e-05
2.782539682539682424e+00,-1.256833468931588268e-05,4.760641431433783365e-05
2.783333333333333215e+00,-3.617858622616610585e-05,5.434363819425994205e-05
2.784126984126984006e+00,-5.768746104935864222e-05,5.852941051940532266e-05
2.784920634920634797e+00,-7.442357515469190095e-05,6.166886150877655534e-05
2.785714285714285587e+00,-8.438511884868909530e-05,6.456722268629204789e-05
2.786507936507936378e+00,-8.659351472272742859e-05,6.684483804285899777e-05
2.787301587301587169e+00,-8.124790328925524628e-05,6.689879087237962543e-05
2.788095238095237960e+00,-6.963981903539453436e-05,6.238408177710592472e-05
2.788888888888888751e+00,-5.385054282158198945e-05,5.109818810848995037e-05
2.789682539682539542e+00,-3.631245705780241338e-05,3.200389349670731785e-05
2.790476190476190332e+00,-1.934725563168409083e-05,6.059222883696177695e-06
2.791269841269841123e+00,-4.787742399957317573e-06,-2.345002507457985086e-05
2.792063492063491914e+00,6.246208794928894385e-06,-5.126175127026399205e-05
2.792857142857142705e+00,1.339555199421651458e-05,-7.116761471349327447e-05
2.793650793650793496e+00,1.695651421366021981e-05,-7.750224605720953757e-05
2.794444444444444287e+00,1.767497999727319559e-05,-6.671318121695517516e-05
2.795238095238095077e+00,1.650654561397344629e-05,-3.858708465795071568e-05
2.796031746031745868e+00,1.440179742307305192e-05,3.216875818442200976e-06
2.796825396825396659e+00,1.215598308733052868e-05,5.151113474266600138e-05
2.797619047619047450e+00,1.033619122049031111e-05,9.677989808819311725e-05
2.798412698412698241e+00,9.276843928855238957e-06,1.290159103384271012e-04
2.799206349206349032e+00,9.121102030354928577e-06,1.398255524513271407e-04
2.799999999999999822e+00,9.881433170974418867e-06,1.243557028899579730e-04
2.800793650793650613e+00,1.149453643682433866e-05,8.259581282793133688e-05
2.801587301587301404e+00,1.385276604302188682e-05,1.970121580552470556e-05
2.802380952380952195e+00,1.680547954166643248e-05,-5.481771903119879907e-05
2.803174603174602986e+00,2.013684160636462778e-05,-1.289156041427637106e-04
2.803968253968253777e+00,2.353751859528133031e-05,-1.904341376730974908e-04
2.804761904761904567e+00,2.659267440026410385e-05,-2.295420541581251472e-04
2.805555555555555358e+00,2.880513694901479070e-05,-2.406108622505634452e-04
2.806349206349206149e+00,2.966064042797005902e-05,-2.231196913836200628e-04
2.807142857142856940e+00,2.872594403643553140e-05,-1.814502964140186751e-04
2.807936507936507731e+00,2.575665207122421779e-05,-1.236987654231444024e-04
2.808730158730158522e+00,2.078424064398340794e-05,-5.983625192769604490e-05
2.809523809523809312e+00,1.415335827151651372e-05,3.304689240431586398e-07
2.810317460317460103e+00,6.491478312751630477e-06,4.893876412533266113e-05
2.811111111111110894e+00,-1.388839902113526611e-06,8.123658053887369357e-05
2.811904761904761685e+00,-8.635011136126750930e-06,9.596922985614708473e-05
2.812698412698412920e+00,-1.451168229762952331e-05,9.502424397963872831e-05
2.813492063492063711e+00,-1.852960407617758678e-05,8.253279787280226663e-05
2.814285714285714501e+00,-2.051239065594500415e-05,6.370925969521780018e-05
2.815079365079365292e+00,-2.058632029133223318e-05,4.370920298601550612e-05
2.815873015873016083e+00,-1.910330645294652864e-05,2.672094022882393782e-05
2.816666666666666874e+00,-1.652720339458971382e-05,1.541348581053480886e-05
2.817460317460317665e+00,-1.331986728893806026e-05,1.077415165800086046e-05
2.818253968253968456e+00,-9.856204235171033717e-06,1.229012098612977643e-05
2.819047619047619246e+00,-6.383887622284821791e-06,1.836463208833462443e-05
2.819841269841270037e+00,-3.029785926412910528e-06,2.682603281709752338e-05
2.820634920634920828e+00,1.561893610698033854e-07,3.540147179239689333e-05
2.821428571428571619e+00,3.137552262908943942e-06,4.207810184650105352e-05
2.822222222222222410e+00,5.830550412950555441e-06,4.533455429284167739e-05
2.823015873015873201e+00,8.068717902880788339e-06,4.426580077515870405e-05
2.823809523809523991e+00,9.608810644974172043e-06,3.863565445780825784e-05
2.824603174603174782e+00,1.018156170178374851e-05,2.888237703086994659e-05
2.825396825396825573e+00,9.574107861296459821e-06,1.608670266264833362e-05
2.826190476190476364e+00,7.716866764864167472e-06,1.893008053446166571e-06
2.826984126984127155e+00,4.743331281790280302e-06,-1.164156740656883534e-05
2.827777777777777946e+00,9.993456301178098307e-07,-2.229506197717002813e-05
2.828571428571428736e+00,-3.004841061474012544e-06,-2.802259556929054705e-05
2.829365079365079527e+00,-6.688117018256366458e-06,-2.733958291317149125e-05
2.830158730158730318e+00,-9.512504633880931369e-06,-1.965068233996491214e-05
2.830952380952381109e+00,-1.108758461975597579e-05,-5.426937762811498277e-06
2.831746031746031900e+00,-1.123976789911023378e-05,1.381457832559562413e-05
2.832539682539682691e+00,-1.003257141143956609e-05,3.569729611606231481e-05
2.833333333333333481e+00,-7.738832791500635825e-06,5.726019139380085678e-05
2.834126984126984272e+00,-4.778077021481891034e-06,7.526279635527412194e-05
2.834920634920635063e+00,-1.637579841996352186e-06,8.652357138005770012e-05
2.835714285714285854e+00,1.206367151462513828e-06,8.833767287584990563e-05
2.836507936507936645e+00,3.356287582829144044e-06,7.899428533802117856e-05
2.837301587301587436e+00,4.545180983642136801e-06,5.831952568858861548e-05
2.838095238095238226e+00,4.669923841317939263e-06,2.806216463401931473e-05
2.838888888888889017e+00,3.805043567680840166e-06,-8.101903147845029683e-06
2.839682539682539808e+00,2.194283247382546130e-06,-4.508679394474218645e-05
2.840476190476190599e+00,2.159829053828295722e-07,-7.738452594353834426e-05
2.841269841269841390e+00,-1.680446950147265032e-06,-1.002670295273975023e-04
2.842063492063492181e+00,-3.063707136956241795e-06,-1.108360151601007077e-04
2.842857142857142971e+00,-3.621671173129113574e-06,-1.085983711614779283e-04
2.843650793650793762e+00,-3.248750313423137209e-06,-9.541421827675491149e-05
2.844444444444444553e+00,-2.087709392263246950e-06,-7.487277687906323403e-05
2.845238095238095344e+00,-5.012469779286281714e-07,-5.131100239782398836e-05
2.846031746031746135e+00,1.028333471277828648e-06,-2.875970243259558999e-05
2.846825396825396925e+00,2.042765704741791487e-06,-1.008738238356273769e-05
2.847619047619047716e+00,2.245160097704410919e-06,3.461512393653467049e-06
2.848412698412698507e+00,1.582683141656714643e-06,1.224900080495874125e-05
2.849206349206349298e+00,2.490953358949649460e-07,1.779204312366009438e-05
2.850000000000000089e+00,-1.387245869357550905e-06,2.204012996814246202e-05
2.850793650793650880e+00,-2.900131826027191898e-06,2.661104725239497626e-05
2.851587301587301670e+00,-3.927447557777964516e-06,3.220730352963054608e-05
2.852380952380952461e+00,-4.262900055481224164e-06,3.836797854277340924e-05
2.853174603174603252e+00,-3.895613118097853443e-06,4.361095804584659829e-05
2.853968253968254043e+00,-2.992671968031499159e-06,4.591439785092021235e-05
2.854761904761904834e+00,-1.834652424935968216e-06,4.339337346395558473e-05
2.855555555555555625e+00,-7.237790269849368996e-07,3.496694446481382173e-05
2.856349206349206415e+00,1.116187997231014133e-07,2.080157732406597744e-05
2.857142857142857206e+00,5.928932804954723962e-07,2.375258650618171079e-06
2.857936507936507997e+00,8.272221262332038416e-07,-1.786880419004990557e-05
2.858730158730158788e+00,1.091378422472949015e-06,-3.715924784237275170e-05
2.859523809523809579e+00,1.761529729187255845e-06,-5.309800259323091312e-05
2.860317460317460370e+00,3.201670550544819518e-06,-6.418860279244432618e-05
2.861111111111111160e+00,5.637013520938928723e-06,-7.003242106934164882e-05
2.861904761904761951e+00,9.046398997113475280e-06,-7.115719755968783020e-05
2.862698412698412742e+00,1.310567430804474888e-05,-6.856826618706984790e-05
2.863492063492063533e+00,1.720287862935494360e-05,-6.320931670832683846e-05
2.864285714285714324e+00,2.052991826305554547e-05,-5.555167411019969892e-05
2.865079365079365115e+00,2.223740085572835192e-05,-4.547824129754993487e-05
2.865873015873015905e+00,2.162123870419671703e-05,-3.250701775699753825e-05
2.866666666666666696e+00,1.829563563703350375e-05,-1.625489506158095426e-05
2.867460317460317487e+00,1.230521237708307937e-05,3.069968955261797954e-06
2.868253968253968278e+00,4.145441990391401439e-06,2.438575168199055157e-05
2.869047619047619069e+00,-5.309855688607259900e-06,4.581676397253427196e-05
2.869841269841269860e+00,-1.494882307581042914e-05,6.512077863304952929e-05
2.870634920634920650e+00,-2.359507804999700091e-05,8.028612667944667370e-05
2.871428571428571441e+00,-3.018546316274415664e-05,9.004283684122472346e-05
2.872222222222222232e+00,-3.393053035447699179e-05,9.407514393273455589e-05
2.873015873015873023e+00,-3.443687804699199409e-05,9.286846241202775549e-05
2.873809523809523814e+00,-3.176848820235131897e-05,8.730227413201976287e-05
2.874603174603174605e+00,-2.642971645960986464e-05,7.821235378998126831e-05
2.875396825396825395e+00,-1.926945408066792803e-05,6.612706611365544278e-05
2.876190476190476186e+00,-1.132781088245891872e-05,5.126047729571056431e-05
2.876984126984126977e+00,-3.662013289683601407e-06,3.371420304707018812e-05
2.877777777777777768e+00,2.810846058592775091e-06,1.377155586099262009e-05
2.878571428571428559e+00,7.428882998506811665e-06,-7.839663120076091225e-06
2.879365079365079350e+00,9.849883468946864337e-06,-2.981930741078292916e-05
2.880158730158730140e+00,1.006907986979043972e-05,-5.036924987924827960e-05
2.880952380952380931e+00,8.398615100839422012e-06,-6.747595150427393147e-05
2.881746031746031722e+00,5.416004843596540102e-06,-7.932853768908204378e-05
2.882539682539682513e+00,1.886517216118354266e-06,-8.473740958879716302e-05
2.883333333333333304e+00,-1.336443058787091546e-06,-8.340734573359397162e-05
2.884126984126984095e+00,-3.427237552511781797e-06,-7.596951775699922488e-05
2.884920634920634885e+00,-3.711364536956575746e-06,-6.376986305187144343e-05
2.885714285714285676e+00,-1.784427868119129566e-06,-4.850673857896979944e-05
2.886507936507936467e+00,2.388025898672279012e-06,-3.186168210921854681e-05
2.887301587301587258e+00,8.408289377542019279e-06,-1.524399636969320068e-05
2.888095238095238049e+00,1.544448326377634049e-05,3.110849150602938619e-07
2.888888888888888840e+00,2.231149329954860980e-05,1.412889935857779331e-05
2.889682539682539630e+00,2.764712815550723438e-05,2.582483341026515553e-05
2.890476190476190421e+00,3.017084741401441849e-05,3.520352104150325926e-05
2.891269841269841212e+00,2.897825980174256435e-05,4.212920433172225346e-05
2.892063492063492003e+00,2.379642067760408364e-05,4.639052966437202870e-05
2.892857142857142794e+00,1.511989504183789513e-05,4.762903824249591539e-05
2.893650793650793585e+00,4.172803351565804532e-06,4.540779267887120550e-05
2.894444444444444375e+00,-7.310285292148566750e-06,3.943090066279075415e-05
2.895238095238095166e+00,-1.743882342131289646e-05,2.982667317008129494e-05
2.896031746031745957e+00,-2.456920534522674180e-05,1.735875095797499549e-05
2.896825396825396748e+00,-2.765296290765238181e-05,3.469527642036401336e-06
2.897619047619047539e+00,-2.644251266144809204e-05,-9.853616688931684953e-06
2.898412698412698330e+00,-2.150940697628186816e-05,-2.033892208549489060e-05
2.899206349206349120e+00,-1.408319487280499146e-05,-2.576423873163329070e-05
2.899999999999999911e+00,-5.762627027476431040e-06,-2.433577755544094926e-05
2.900793650793650702e+00,1.826998902846854093e-06,-1.508992211005245600e-05
2.901587301587301493e+00,7.356441964847977984e-06,1.730626374077119129e-06
2.902380952380952284e+00,1.003601686412991146e-05,2.441575177001291920e-05
2.903174603174603075e+00,9.743031367783494149e-06,4.975394182633414232e-05
2.903968253968253865e+00,7.020178509959931432e-06,7.332054278567752483e-05
2.904761904761904656e+00,2.953782272023137611e-06,9.012071571931166839e-05
2.905555555555555447e+00,-1.042674866620520748e-06,9.552200197493437405e-05
2.906349206349206238e+00,-3.504204499620104522e-06,8.630735922725918461e-05
2.907142857142857029e+00,-3.208254926447789924e-06,6.160778946137932053e-05
2.907936507936507819e+00,5.566481990558477706e-07,2.346467437192107579e-05
2.908730158730158610e+00,7.791364693946486677e-06,-2.317039534161704153e-05
2.909523809523809401e+00,1.769574135607439864e-05,-7.108606337267219855e-05
2.910317460317460192e+00,2.871822608745597567e-05,-1.120695753942146429e-04
2.911111111111110983e+00,3.876051215082232284e-05,-1.385831661679895899e-04
2.911904761904761774e+00,4.552752654397525695e-05,-1.455149464891226897e-04
2.912698412698412564e+00,4.697861803745385928e-05,-1.315474174573411895e-04
2.913492063492063355e+00,4.179743045215910557e-05,-9.969511998633158012e-05
2.914285714285714146e+00,2.977037404794558270e-05,-5.674910691431915571e-05
2.915079365079364937e+00,1.196343501709640163e-05,-1.169510345132619067e-05
2.915873015873015728e+00,-9.377970663262303897e-06,2.647397953348294293e-05
2.916666666666666519e+00,-3.121608092357329006e-05,5.089807769653540971e-05
2.917460317460317309e+00,-5.032326172368371987e-05,5.829948391779765746e-05
2.918253968253968100e+00,-6.395368138929690359e-05,4.937660393433444345e-05
2.919047619047618891e+00,-7.040181500958962095e-05,2.819018269331408967e-05
2.919841269841269682e+00,-6.929320618356668213e-05,9.109314754062324175e-07
2.920634920634920473e+00,-6.154096454339113165e-05,-2.562486782787585954e-05
2.921428571428571264e+00,-4.901152566305633229e-05,-4.523084214520102606e-05
2.922222222222222054e+00,-3.402618940526115805e-05,-5.340161177378161645e-05
2.923015873015872845e+00,-1.885194064320873012e-05,-4.798903528784216480e-05
2.923809523809523636e+00,-5.307942382290502059e-06,-2.947010111531786101e-05
2.924603174603174427e+00,5.445253998809805402e-06,-7.804892102764509233e-07
2.925396825396825218e+00,1.293161096187553502e-05,3.324241033048811839e-05
2.926190476190476009e+00,1.724705260368370014e-05,6.669102399610810853e-05
2.926984126984126799e+00,1.887608166986122911e-05,9.355244089227326672e-05
2.927777777777777590e+00,1.850027423251683774e-05,1.086876369959390129e-04
2.928571428571428381e+00,1.684028403388503967e-05,1.087289986808942277e-04
2.929365079365079172e+00,1.454782002519243316e-05,9.278398124503780154e-05
2.930158730158729963e+00,1.214430108577360657e-05,6.279444779388245476e-05
2.930952380952380754e+00,9.993512489513023292e-06,2.339864091854242242e-05
2.931746031746031544e+00,8.296671916388110383e-06,-1.878301748733097304e-05
2.932539682539682335e+00,7.105675908284865502e-06,-5.637273741957524056e-05
2.933333333333333126e+00,6.356870502269505561e-06,-8.273576244605983297e-05
2.934126984126983917e+00,5.926617224000156644e-06,-9.339460853191025374e-05
2.934920634920634708e+00,5.699774961709169184e-06,-8.698067668649305114e-05
2.935714285714285499e+00,5.629822363497474089e-06,-6.547193950957003281e-05
2.936507936507936289e+00,5.765424158951254913e-06,-3.368379988464587375e-05
2.937301587301587080e+00,6.228792786556504313e-06,1.808076697709931729e-06
2.938095238095238315e+00,7.152150891563833992e-06,3.401670930953471975e-05
2.938888888888889106e+00,8.597970140555484406e-06,5.686589404058280274e-05
2.939682539682539897e+00,1.049521454052519571e-05,6.625499144742961349e-05
2.940476190476190688e+00,1.261565350387751658e-05,6.071536329357361361e-05
2.941269841269841478e+00,1.459861590557829975e-05,4.157245691976711938e-05
2.942063492063492269e+00,1.601727549633248583e-05,1.259089950305357104e-05
2.942857142857143060e+00,1.646792635548415589e-05,-2.083841114465148609e-05
2.943650793650793851e+00,1.565691710280194492e-05,-5.281238552388971697e-05
2.944444444444444642e+00,1.346093561768147451e-05,-7.809144656568451802e-05
2.945238095238095433e+00,9.947633663639066968e-06,-9.307282055137378876e-05
2.946031746031746223e+00,5.361094503981685220e-06,-9.635108114819033976e-05
2.946825396825397014e+00,8.890974719313660341e-08,-8.876554160476813574e-05
2.947619047619047805e+00,-5.375102609151493580e-06,-7.295891509774598063e-05
2.948412698412698596e+00,-1.047274766466760153e-05,-5.258341799204569448e-05
2.949206349206349387e+00,-1.463823206197316466e-05,-3.137303501331171405e-05
2.950000000000000178e+00,-1.737481277627504159e-05,-1.232967305400459575e-05
2.950793650793650968e+00,-1.834029482909465102e-05,2.778024486350124044e-06
2.951587301587301759e+00,-1.741828999525608853e-05,1.352162323920580992e-05
2.952380952380952550e+00,-1.475245978334159834e-05,2.057545934108640623e-05
2.953174603174603341e+00,-1.073154086693113007e-05,2.527049032633077016e-05
2.953968253968254132e+00,-5.926819136889085286e-06,2.909502059413847047e-05
2.954761904761904923e+00,-9.951411213245845003e-07,3.327170606963394673e-05
2.955555555555555713e+00,3.432311308701705904e-06,3.849395132417287885e-05
2.956349206349206504e+00,6.851621506777993464e-06,4.485045501238487921e-05
2.957142857142857295e+00,8.954447667818236781e-06,5.190982147413863849e-05
2.957936507936508086e+00,9.646077946787186790e-06,5.889153412768919683e-05
2.958730158730158877e+00,9.011112925919531540e-06,6.483916334179983703e-05
2.959523809523809668e+00,7.244218226793253843e-06,6.874988246131932498e-05
2.960317460317460458e+00,4.578902933734284238e-06,6.967777296304792853e-05
2.961111111111111249e+00,1.248463725689958956e-06,6.686500043803581537e-05
2.961904761904762040e+00,-2.505200769595840559e-06,5.992796224847751036e-05
2.962698412698412831e+00,-6.390552066191115021e-06,4.905042642239667401e-05
2.963492063492063622e+00,-1.003361895609148094e-05,3.507703553395686327e-05
2.964285714285714413e+00,-1.299266250590327336e-05,1.942072490679250157e-05
2.965079365079365203e+00,-1.483107871441745664e-05,3.792956404569008970e-06
2.965873015873015994e+00,-1.522417146655224378e-05,-1.013778973416795475e-05
2.966666666666666785e+00,-1.405670531453581444e-05,-2.103000612243673549e-05
2.967460317460317576e+00,-1.147283957929206986e-05,-2.802208258384458566e-05
2.968253968253968367e+00,-7.859779040552318738e-06,-3.076038968264793608e-05
2.969047619047619158e+00,-3.769466583711387486e-06,-2.935381687100976371e-05
2.969841269841269948e+00,1.992211368211383540e-07,-2.430201477960785111e-05
2.970634920634920739e+00,3.525840523539868218e-06,-1.641858268059645146e-05
2.971428571428571530e+00,5.869112791958644550e-06,-6.753884387909954840e-06
2.972222222222222321e+00,7.118357015919532120e-06,3.479039212557143124e-06
2.973015873015873112e+00,7.384110258777844649e-06,1.297507943675605909e-05
2.973809523809523903e+00,6.932634878930181103e-06,2.042225182422247051e-05
2.974603174603174693e+00,6.084913254142732651e-06,2.464020843387863108e-05
2.975396825396825484e+00,5.111673074444211248e-06,2.480060551899288364e-05
2.976190476190476275e+00,4.157364983158190949e-06,2.069974563222643280e-05
2.976984126984127066e+00,3.216374482521301557e-06,1.297786279672511527e-05
2.977777777777777857e+00,2.167666262598875402e-06,3.146455459737197091e-06
2.978571428571428648e+00,8.561780582369250455e-07,-6.666502372704702786e-06
2.979365079365079438e+00,-8.038387735852264712e-07,-1.423036378525679707e-05
2.980158730158730229e+00,-2.734600020061620914e-06,-1.783932902336102277e-05
2.980952380952381020e+00,-4.640483819773044344e-06,-1.683975263782080641e-05
2.981746031746031811e+00,-6.017889572868528406e-06,-1.186677056103599199e-05
2.982539682539682602e+00,-6.240254621736644038e-06,-4.705863282943551207e-06
2.983333333333333393e+00,-4.710083485059173017e-06,2.170356872064596264e-06
2.984126984126984183e+00,-1.048632939567042561e-06,6.239256882309162577e-06
2.984920634920634974e+00,4.723888101495098093e-06,5.556030762221339271e-06
2.985714285714285765e+00,1.207393044587027631e-05,-7.817882311328088930e-07
2.986507936507936556e+00,1.995780156137194635e-05,-1.242853592351961455e-05
2.987301587301587347e+00,2.697095683468779043e-05,-2.787324969110029394e-05
2.988095238095238138e+00,3.162957784709420801e-05,-4.477062690831420792e-05
2.988888888888888928e+00,3.271978817662154007e-05,-6.041696998998020231e-05
2.989682539682539719e+00,2.961265741647669568e-05,-7.225189550765859703e-05
2.990476190476190510e+00,2.244331438553251850e-05,-7.830752931816531556e-05
2.991269841269841301e+00,1.209731602366125447e-05,-7.756742939001707074e-05
2.992063492063492092e+00,1.665138552959155276e-08,-7.018381966001686380e-05
2.992857142857142883e+00,-1.210528653927291522e-05,-5.746991534176687543e-05
2.993650793650793673e+00,-2.265147544637645613e-05,-4.161395989375707308e-05
2.994444444444444464e+00,-3.035972811716887494e-05,-2.516493421715345035e-05
2.995238095238095255e+00,-3.450866792908414136e-05,-1.044536071809931715e-05
2.996031746031746046e+00,-3.499081450051798450e-05,9.224042581178419121e-07
2.996825396825396837e+00,-3.226797096366111161e-05,8.252131106971858623e-06
2.997619047619047628e+00,-2.722204359213213984e-05,1.177628447910662487e-05
2.998412698412698418e+00,-2.093769252188541091e-05,1.244281752517873883e-05
2.999206349206349209e+00,-1.447160730789873414e-05,1.161593161231937709e-05
3.000000000000000000e+00,-8.663966757758008070e-06,1.075295782583680419e-05
3.000793650793650791e+00,-4.029000388023223966e-06,1.111061924553068246e-05
3.001587301587301582e+00,-7.339598621743049460e-07,1.352666757329314245e-05
3.002380952380952372e+00,1.347817508671332712e-06,1.831457999304615198e-05
3.003174603174603163e+00,2.537012992023610334e-06,2.528362729365395969e-05
3.003968253968253954e+00,3.231357628942595333e-06,3.385306629818436589e-05
3.004761904761904745e+00,3.796867162552367244e-06,4.318938386524485057e-05
3.005555555555555536e+00,4.485335547795412590e-06,5.229431224296954208e-05
3.006349206349206327e+00,5.389526885319679376e-06,6.002448736924571621e-05
3.007142857142857117e+00,6.441785647943018740e-06,6.510052577306923028e-05
3.007936507936507908e+00,7.454629212760260606e-06,6.620257132491535643e-05
3.008730158730158699e+00,8.192170776460940901e-06,6.221238919278849089e-05
3.009523809523809490e+00,8.451600277621872692e-06,5.257007581409749240e-05
3.010317460317460281e+00,8.129255880302218258e-06,3.762574124280290922e-05
3.011111111111111072e+00,7.249668179904049380e-06,1.882926534717997762e-05
3.011904761904761862e+00,5.948564450602351069e-06,-1.371782334832522653e-06
3.012698412698412653e+00,4.418369504474093908e-06,-1.997012865417104686e-05
3.013492063492063444e+00,2.840325153333710034e-06,-3.409441071823768863e-05
3.014285714285714235e+00,1.333612058210827496e-06,-4.177086014196308863e-05
3.015079365079365026e+00,-5.560670317291035863e-08,-4.250665394020148474e-05
3.015873015873015817e+00,-1.321834046355942764e-06,-3.748345071418728583e-05
3.016666666666666607e+00,-2.443863653418288782e-06,-2.925857882504599925e-05
3.017460317460317398e+00,-3.337081587978259111e-06,-2.102605262855058397e-05
3.018253968253968189e+00,-3.843510654051873595e-06,-1.564567833210459135e-05
3.019047619047618980e+00,-3.770000275255669855e-06,-1.474841979092950104e-05
3.019841269841269771e+00,-2.961188305072406018e-06,-1.822231148721769155e-05
3.020634920634920562e+00,-1.376828397630294669e-06,-2.426699954483998474e-05
3.021428571428571352e+00,8.593555606766858612e-07,-3.001142859453334922e-05
3.022222222222222143e+00,3.459980335657966129e-06,-3.248568055527224356e-05
3.023015873015872934e+00,6.024773274436020097e-06,-2.960735926921993720e-05
3.023809523809523725e+00,8.125816034596066104e-06,-2.084679427570964983e-05
3.024603174603174516e+00,9.402059730106502089e-06,-7.370763204808020882e-06
3.025396825396825307e+00,9.637724875990758968e-06,8.339137571749073101e-06
3.026190476190476097e+00,8.805822758579181866e-06,2.322831824140806449e-05
3.026984126984126888e+00,7.068344778943295023e-06,3.451830714487231773e-05
3.027777777777777679e+00,4.735845465568872945e-06,4.041291398613701722e-05
3.028571428571428470e+00,2.198657921138327202e-06,4.048513353413735698e-05
3.029365079365079261e+00,-1.524634704544084710e-07,3.567907567141224653e-05
3.030158730158730052e+00,-1.998041729054314547e-06,2.797061167911923601e-05
3.030952380952380842e+00,-3.139736892328380040e-06,1.981095727440321431e-05
3.031746031746031633e+00,-3.520937099321821737e-06,1.351404658064747421e-05
3.032539682539682424e+00,-3.218040760238660413e-06,1.073634016800415050e-05
3.033333333333333215e+00,-2.408465083296411527e-06,1.214634677659655718e-05
3.034126984126984006e+00,-1.324986219240936514e-06,1.731696234381474898e-05
3.034920634920634797e+00,-2.071590135370071391e-07,2.482749804380350952e-05
3.035714285714285587e+00,7.401752947816894143e-07,3.254759865902850371e-05
3.036507936507936378e+00,1.373934817035088418e-06,3.807399455327519091e-05
3.037301587301587169e+00,1.622589810696156076e-06,3.926657073484782342e-05
3.038095238095237960e+00,1.480986253278164232e-06,3.477087970326014839e-05
3.038888888888888751e+00,9.957890498233270789e-07,2.436496382499289936e-05
3.039682539682539542e+00,2.474466141932151056e-07,8.998529768561224439e-06
3.040476190476190332e+00,-6.670639666697004382e-07,-9.483719894512171914e-06
3.041269841269841123e+00,-1.648146908569259985e-06,-2.880061479262045702e-05
3.042063492063491914e+00,-2.602737018629538928e-06,-4.668283915089449434e-05
3.042857142857142705e+00,-3.448700051130139397e-06,-6.118164484170402330e-05
3.043650793650793496e+00,-4.116473327596340642e-06,-7.083237632117722518e-05
3.044444444444444287e+00,-4.551103503578407497e-06,-7.475054711587703169e-05
3.045238095238095077e+00,-4.716773999468751114e-06,-7.272465750588117902e-05
3.046031746031745868e+00,-4.603149818701492468e-06,-6.529216355827095557e-05
3.046825396825396659e+00,-4.230535183079931772e-06,-5.372496777375674481e-05
3.047619047619047450e+00,-3.650563283160437507e-06,-3.986125685461986573e-05
3.048412698412698241e+00,-2.940848797618737401e-06,-2.578751577569349230e-05
3.049206349206349032e+00,-2.194584469961205378e-06,-1.344392864378181308e-05
3.049999999999999822e+00,-1.508159445329109541e-06,-4.254608956921192141e-06
3.050793650793650613e+00,-9.703775904671787760e-07,1.131465373501331012e-06
3.051587301587301404e+00,-6.552155691473425794e-07,2.934581859331255293e-06
3.052380952380952195e+00,-6.171614454274668263e-07,2.146646132125863980e-06
3.053174603174602986e+00,-8.862129404750874560e-07,2.476058772170994191e-07
3.053968253968253777e+00,-1.460486865542747300e-06,-1.203038584492930774e-06
3.054761904761904567e+00,-2.297790004966292644e-06,-9.763293002681395656e-07
3.055555555555555358e+00,-3.310754105008159877e-06,1.558116643227329115e-06
3.056349206349206149e+00,-4.370480563246924320e-06,6.394063178011896105e-06
3.057142857142856940e+00,-5.320614265448725771e-06,1.306071826789771478e-05
3.057936507936507731e+00,-5.999255616046789498e-06,2.089227686229157922e-05
3.058730158730158522e+00,-6.262889508385889843e-06,2.925735350304079906e-05
3.059523809523809312e+00,-6.006644253482633154e-06,3.765584026035443700e-05
3.060317460317460103e+00,-5.178453483039480610e-06,4.567171426787766962e-05
3.061111111111110894e+00,-3.788186405354432173e-06,5.284701442656616731e-05
3.061904761904761685e+00,-1.913376893636314976e-06,5.858303910266642885e-05
3.062698412698412920e+00,2.996242921731096427e-07,6.216129226973744087e-05
3.063492063492063711e+00,2.643698441500529502e-06,6.291142067637048253e-05
3.064285714285714501e+00,4.873355153936338229e-06,6.046604092067191428e-05
3.065079365079365292e+00,6.742664527310894561e-06,5.497948981893870850e-05
3.065873015873016083e+00,8.053021694875566887e-06,4.718415146054491933e-05
3.066666666666666874e+00,8.698812939662047805e-06,3.821479885221226909e-05
3.067460317460317665e+00,8.697062275006909855e-06,2.922220047054811982e-05
3.068253968253968456e+00,8.190887277590034801e-06,2.089340774420273889e-05
3.069047619047619246e+00,7.424538602209893785e-06,1.307219931731977604e-05
3.069841269841270037e+00,6.696093980149686722e-06,4.690747438579524024e-06
3.070634920634920828e+00,6.298645873607184552e-06,-5.864092863282179231e-06
3.071428571428571619e+00,6.460788673787220492e-06,-2.002125800360226782e-05
3.072222222222222410e+00,7.294560331881800046e-06,-3.821705898979146226e-05
3.073015873015873201e+00,8.757262386422863968e-06,-5.938604403784935280e-05
3.073809523809523991e+00,1.063444376808125729e-05,-8.102391245991918641e-05
3.074603174603174782e+00,1.255293468494350719e-05,-9.983240940772896647e-05
3.075396825396825573e+00,1.403096835516339232e-05,-1.126763152889647394e-04
3.076190476190476364e+00,1.456428446450519249e-05,-1.174442253597932816e-04
3.076984126984127155e+00,1.373431077622500675e-05,-1.134872767183529364e-04
3.077777777777777946e+00,1.131261523039935517e-05,-1.015513447915197885e-04
3.078571428571428736e+00,7.331089275083149148e-06,-8.335294410565088690e-05
3.079365079365079527e+00,2.093895717861443946e-06,-6.104110120416237413e-05
3.080158730158730318e+00,-3.875210749516295063e-06,-3.673336137649024422e-05
3.080952380952381109e+00,-9.934259464386801229e-06,-1.221014992179126126e-05
3.081746031746031900e+00,-1.544067848193311987e-05,1.121966437832652408e-05
3.082539682539682691e+00,-1.985084883937326326e-05,3.270029829778418754e-05
3.083333333333333481e+00,-2.278080306463394885e-05,5.169919038002835260e-05
3.084126984126984272e+00,-2.402728680898334756e-05,6.783415477602015387e-05
3.084920634920635063e+00,-2.356285817583562655e-05,8.073578613907308815e-05
3.085714285714285854e+00,-2.152111535864347113e-05,8.999829041886979442e-05
3.086507936507936645e+00,-1.818069694605367985e-05,9.522257686629097284e-05
3.087301587301587436e+00,-1.394586043398557250e-05,9.611050016014736138e-05
3.088095238095238226e+00,-9.313429658557405557e-06,9.255450018042382123e-05
3.088888888888889017e+00,-4.815853248128765681e-06,8.469051560196534244e-05
3.089682539682539808e+00,-9.403333710217602262e-07,7.292265211990322030e-05
3.090476190476190599e+00,1.959886562140843611e-06,5.794534860925671142e-05
3.091269841269841390e+00,3.734233390332840713e-06,4.076225646456711971e-05
3.092063492063492181e+00,4.457079079731544332e-06,2.265746637546507531e-05
3.092857142857142971e+00,4.392096926412414328e-06,5.065754485876231674e-06
3.093650793650793762e+00,3.908208605339007040e-06,-1.066163795284970803e-05
3.094444444444444553e+00,3.373954755290236789e-06,-2.352179994138912391e-05
3.095238095238095344e+00,3.063678164669350401e-06,-3.303842744049768768e-05
3.096031746031746135e+00,3.102533938861587534e-06,-3.926755315165633101e-05
3.096825396825396925e+00,3.461555994997334982e-06,-4.263580839084360528e-05
3.097619047619047716e+00,3.996279368552168793e-06,-4.370704529861608849e-05
3.098412698412698507e+00,4.509946585175537958e-06,-4.299993522612593881e-05
3.099206349206349298e+00,4.818469725683323378e-06,-4.092610242731757110e-05
3.100000000000000089e+00,4.798277088335110984e-06,-3.783148619965542376e-05
3.100793650793650880e+00,4.406920586265115416e-06,-3.406839670444684599e-05
3.101587301587301670e+00,3.676318202390571997e-06,-3.003025883809601568e-05
3.102380952380952461e+00,2.686845793931702189e-06,-2.612360788672120883e-05
3.103174603174603252e+00,1.535701295246997037e-06,-2.269397410848351308e-05
3.103968253968254043e+00,3.144955404352473355e-07,-1.994130890708172872e-05
3.104761904761904834e+00,-8.920163781821692648e-07,-1.785598702641648521e-05
3.105555555555555625e+00,-1.982620311884042323e-06,-1.618997360999510561e-05
3.106349206349206415e+00,-2.800784030877455642e-06,-1.446386789744776240e-05
3.107142857142857206e+00,-3.100952917182180089e-06,-1.200833685028353785e-05
3.107936507936507997e+00,-2.545361762093412708e-06,-8.046234240414385294e-06
3.108730158730158788e+00,-7.505590616585643055e-07,-1.828230328832536222e-06
3.109523809523809579e+00,2.613380148911689328e-06,7.173029541864741956e-06
3.110317460317460370e+00,7.689112613555025655e-06,1.903380639600341068e-05
3.111111111111111160e+00,1.430038380644950962e-05,3.317981571685491140e-05
3.111904761904761951e+00,2.186766563819518683e-05,4.830696412656304464e-05
3.112698412698412742e+00,2.941086964287907251e-05,6.249121956203880621e-05
3.113492063492063533e+00,3.566025896616960837e-05,7.348540991600174181e-05
3.114285714285714324e+00,3.926893796033576795e-05,7.912326397875645099e-05
3.115079365079365115e+00,3.908924816269799673e-05,7.771900919467058415e-05
3.115873015873015905e+00,3.444865177533909637e-05,6.837356236122272451e-05
3.116666666666666696e+00,2.534876570815119368e-05,5.114163495649953962e-05
3.117460317460317487e+00,1.252414753096421521e-05,2.704814853990417491e-05
3.118253968253968278e+00,-2.663557109497669924e-06,-2.029939205526483128e-06
3.119047619047619069e+00,-1.846889859830714653e-05,-3.357108349500638776e-05
3.119841269841269860e+00,-3.307505388182499761e-05,-6.464872319086013776e-05
3.120634920634920650e+00,-4.489410664071280164e-05,-9.217393802721315520e-05
3.121428571428571441e+00,-5.278994283698976137e-05,-1.131622489310361965e-04
3.122222222222222232e+00,-5.619194982421631964e-05,-1.250672017852164119e-04
3.123015873015873023e+00,-5.510337230486716300e-05,-1.261866973703501071e-04
3.123809523809523814e+00,-5.003203070522465646e-05,-1.160718449051605452e-04
3.124603174603174605e+00,-4.187507467469186008e-05,-9.580033118653006154e-05
3.125396825396825395e+00,-3.177817462874765308e-05,-6.796519603030824167e-05
3.126190476190476186e+00,-2.097800343626987562e-05,-3.630111305158667751e-05
3.126984126984126977e+00,-1.063729059152481998e-05,-5.002336577686996623e-06
3.127777777777777768e+00,-1.693151731328914828e-06,2.208825744071781777e-05
3.128571428571428559e+00,5.250968374045159608e-06,4.218933231337977489e-05
3.129365079365079350e+00,9.964426399675242374e-06,5.400571521659925848e-05
3.130158730158730140e+00,1.255470521039930520e-05,5.778875832872213303e-05
3.130952380952380931e+00,1.337759581839947801e-05,5.506293820927746864e-05
3.131746031746031722e+00,1.292407195859415527e-05,4.812131773880254268e-05
3.132539682539682513e+00,1.171451235032904471e-05,3.942509204952248037e-05
3.133333333333333304e+00,1.021994104135730590e-05,3.105182207364288750e-05
3.134126984126984095e+00,8.816059625651553560e-06,2.432601064576173173e-05
3.134920634920634885e+00,7.764925617118253467e-06,1.972129232791082319e-05
3.135714285714285676e+00,7.214442808640028447e-06,1.704176612732653849e-05
3.136507936507936467e+00,7.206938650354649942e-06,1.579304319939289785e-05
3.137301587301587258e+00,7.692120456209338363e-06,1.557993643001048364e-05
3.138095238095238049e+00,8.543600722406698321e-06,1.635148206356592125e-05
3.138888888888888840e+00,9.580039447091207892e-06,1.837222213480552418e-05
3.139682539682539630e+00,1.059136546974203213e-05,2.192331954681518301e-05
3.140476190476190421e+00,1.136848839031683956e-05,2.688309588738841560e-05
3.141269841269841212e+00,1.173281342282605312e-05,3.242504089045871861e-05
3.142063492063492003e+00,1.156080965935275779e-05,3.703379378862891956e-05
3.142857142857142794e+00,1.079947612110030712e-05,3.888072924525736118e-05
3.143650793650793585e+00,9.470644830381367901e-06,3.641046788014380009e-05
3.144444444444444375e+00,7.664683836260619213e-06,2.888173245590147986e-05
3.145238095238095166e+00,5.526313564599523570e-06,1.664032357610720951e-05
3.146031746031745957e+00,3.236286317201064509e-06,1.047464607985027922e-06
3.146825396825396748e+00,9.921249535531449003e-07,-1.585553769548596494e-05
3.147619047619047539e+00,-1.010751612554891012e-06,-3.178881286972046975e-05
3.148412698412698330e+00,-2.597770799696162814e-06,-4.464819683331650187e-05
3.149206349206349120e+00,-3.633773430625567092e-06,-5.282895468287740579e-05
3.149999999999999911e+00,-4.039596260006998001e-06,-5.544410349938189587e-05
3.150793650793650702e+00,-3.803733599062426448e-06,-5.242756509671917897e-05
3.151587301587301493e+00,-2.986932712442952297e-06,-4.450546464461948713e-05
3.152380952380952284e+00,-1.719359290974882331e-06,-3.303729683295223611e-05
3.153174603174603075e+00,-1.909031549184219710e-07,-1.976869084542622260e-05
3.153968253968253865e+00,1.365540019066656728e-06,-6.562619882329747789e-06
3.154761904761904656e+00,2.699263894376369596e-06,4.837177494368881077e-06
3.155555555555555447e+00,3.576138595351731151e-06,1.299452624660692237e-05
3.156349206349206238e+00,3.818608731213381756e-06,1.693484003376265058e-05
3.157142857142857029e+00,3.342108575960817027e-06,1.628056950073431778e-05
3.157936507936507819e+00,2.176395817698547225e-06,1.136205142186409715e-05
3.158730158730158610e+00,4.633602894397339029e-07,3.272220856513580683e-06
3.159523809523809401e+00,-1.571073980969295519e-06,-6.178234669467280831e-06
3.160317460317460192e+00,-3.667119932330421090e-06,-1.464041244987636844e-05
3.161111111111110983e+00,-5.593157305415143237e-06,-1.955057638675458285e-05
3.161904761904761774e+00,-7.202338212239417857e-06,-1.856974496039259966e-05
3.162698412698412564e+00,-8.461841161725623212e-06,-1.007363146931867678e-05
3.163492063492063355e+00,-9.436474036245135182e-06,6.401000596850770310e-06
3.164285714285714146e+00,-1.022278875256364584e-05,2.985573182640550381e-05
3.165079365079364937e+00,-1.085025195629285307e-05,5.776401104511328782e-05
3.165873015873015728e+00,-1.118278741949025854e-05,8.629500756847767744e-05
3.166666666666666519e+00,-1.085971087316960175e-05,1.108353065708153021e-04
3.167460317460317309e+00,-9.308080496744172924e-06,1.267518397042343206e-04
3.168253968253968100e+00,-5.841853070343483866e-06,1.302700934504840704e-04
3.169047619047618891e+00,1.585041541429221230e-07,1.192881449576965085e-04
3.169841269841269682e+00,9.015514832694439888e-06,9.393011051251151265e-05
3.170634920634920473e+00,2.052451203597664963e-05,5.667437006740876434e-05
3.171428571428571264e+00,3.379006726274662851e-05,1.197709339482863161e-05
3.172222222222222054e+00,4.719627756268322572e-05,-3.455651713567736488e-05
3.173015873015872845e+00,5.855847502157119505e-05,-7.725474212808359825e-05
3.173809523809523636e+00,6.546347723273936289e-05,-1.114216960286805355e-04
3.174603174603174427e+00,6.575248218941525779e-05,-1.340649604824528044e-04
3.175396825396825218e+00,5.804907178081543536e-05,-1.441678334394783784e-04
3.176190476190476009e+00,4.220032837484602120e-05,-1.425324569151126351e-04
3.176984126984126799e+00,1.949686172479975677e-05,-1.313277165137692268e-04
3.177777777777777590e+00,-7.422304701634679323e-06,-1.134988665304310581e-04
3.178571428571428381e+00,-3.499496125249982313e-05,-9.217150790804016581e-05
3.179365079365079172e+00,-5.941008359692624490e-05,-7.014994704472441627e-05
3.180158730158729963e+00,-7.737041290744811422e-05,-4.957693265929766647e-05
3.180952380952380754e+00,-8.674704945188127134e-05,-3.178165816108861690e-05
3.181746031746031544e+00,-8.695444557653998752e-05,-1.730038294862378044e-05
3.182539682539682335e+00,-7.895556811444176689e-05,-6.024037874300549530e-06
3.183333333333333126e+00,-6.491950186805405204e-05,2.583440818900073892e-06
3.184126984126983917e+00,-4.765382840155844309e-05,9.250200769647468283e-06
3.184920634920634708e+00,-2.998245413824731409e-05,1.469167054032101421e-05
3.185714285714285499e+00,-1.422500337069399137e-05,1.946886505609971392e-05
3.186507936507936289e+00,-1.875838197488566769e-06,2.392095744269888240e-05
3.187301587301587080e+00,6.489317566637716119e-06,2.816142398078466127e-05
3.188095238095238315e+00,1.110891465675094920e-05,3.211895223567580177e-05
3.188888888888889106e+00,1.279760733222635431e-05,3.561047954988259823e-05
3.189682539682539897e+00,1.265047070926453579e-05,3.843730849216509974e-05
3.190476190476190688e+00,1.175919784768053202e-05,4.048389597045679472e-05
3.191269841269841478e+00,1.099380197219847977e-05,4.178196935548875309e-05
3.192063492063492269e+00,1.088123450093716011e-05,4.250007752334062136e-05
3.192857142857143060e+00,1.158736883430809938e-05,4.284154431981771974e-05
3.193650793650793851e+00,1.298506346768781799e-05,4.287705366497468874e-05
3.194444444444444642e+00,1.477349840837423804e-05,4.238284052237499631e-05
3.195238095238095433e+00,1.660662286827654176e-05,4.077585347374359121e-05
3.196031746031746223e+00,1.819324395939140847e-05,3.721467536739661022e-05
3.196825396825397014e+00,1.934693993860119946e-05,3.087189324359571079e-05
3.197619047619047805e+00,1.998506704071362035e-05,2.130492109858714463e-05
3.198412698412698596e+00,2.009381911990673543e-05,8.793702815552429723e-06
3.199206349206349387e+00,1.968373001045349246e-05,-5.494814875193632747e-06
3.200000000000000178e+00,1.875656439408690423e-05,-1.960528988523685729e-05
3.200793650793650968e+00,1.729442853114542816e-05,-3.115647039529510125e-05
3.201587301587301759e+00,1.527025249665862295e-05,-3.787910313149365506e-05
3.202380952380952550e+00,1.267006176653342370e-05,-3.818405762080501084e-05
3.203174603174603341e+00,9.515196845778458286e-06,-3.160315364304728874e-05
3.203968253968254132e+00,5.877513312603542378e-06,-1.897615479962814919e-05
3.204761904761904923e+00,1.888708941852215888e-06,-2.326558470890313583e-06
3.205555555555555713e+00,-2.250685836958808449e-06,1.554037166612962212e-05
3.206349206349206504e+00,-6.261199076836671100e-06,3.160400811614270423e-05
3.207142857142857295e+00,-9.781552299211456215e-06,4.320874487210896349e-05
3.207936507936508086e+00,-1.238834357930589096e-05,4.852483302749604159e-05
3.208730158730158877e+00,-1.365103131329957419e-05,4.681319775236262882e-05
3.209523809523809668e+00,-1.322276144051926904e-05,3.848252376636489633e-05
3.210317460317460458e+00,-1.095009608473404486e-05,2.496668049234570817e-05
3.211111111111111249e+00,-6.969121556864467173e-06,8.456871205729441825e-06
3.211904761904762040e+00,-1.750527503134122096e-06,-8.482818075447783060e-06
3.212698412698412831e+00,3.932864851657841092e-06,-2.337545001951008930e-05
3.213492063492063622e+00,9.119825304360823975e-06,-3.428590804671112778e-05
3.214285714285714413e+00,1.283476505120121594e-05,-4.014904837615863382e-05
3.215079365079365203e+00,1.428376500988557883e-05,-4.085928145133699800e-05
3.215873015873015994e+00,1.302801879582344491e-05,-3.709201707410355469e-05
3.216666666666666785e+00,9.094851820883714642e-06,-2.994452324531085571e-05
3.217460317460317576e+00,2.999106722794125827e-06,-2.055983257994522417e-05
3.218253968253968367e+00,-4.335208812425173910e-06,-9.885238505282167054e-06
3.219047619047619158e+00,-1.174273581667176885e-05,1.369267223076225094e-06
3.219841269841269948e+00,-1.804114989039430175e-05,1.261247595128667539e-05
3.220634920634920739e+00,-2.226085658269547421e-05,2.320032684673514731e-05
3.221428571428571530e+00,-2.382511412420404087e-05,3.232022508248678336e-05
3.222222222222222321e+00,-2.264083720753008180e-05,3.899427941345255964e-05
3.223015873015873112e+00,-1.908612711187528561e-05,4.221109979184042648e-05
3.223809523809523903e+00,-1.390493825612958706e-05,4.115913712902454939e-05
3.224603174603174693e+00,-8.036531905959507971e-06,3.550436732787465793e-05
3.225396825396825484e+00,-2.418069149984168412e-06,2.561888142847140731e-05
3.226190476190476275e+00,2.196621417350129053e-06,1.264597536937369954e-05
3.226984126984127066e+00,5.362528311588750371e-06,-1.678836491127511327e-06
3.227777777777777857e+00,6.987384665310656923e-06,-1.543603326659739568e-05
3.228571428571428648e+00,7.290400819841059049e-06,-2.703367336223391553e-05
3.229365079365079438e+00,6.695262892727346075e-06,-3.563359983659344346e-05
3.230158730158730229e+00,5.692038497677954247e-06,-4.132193277921070314e-05
3.230952380952381020e+00,4.706195880209753547e-06,-4.494411129492762157e-05
3.231746031746031811e+00,4.006736492205846718e-06,-4.765520942263819058e-05
3.232539682539682602e+00,3.672029439783939491e-06,-5.036138650808450433e-05
3.233333333333333393e+00,3.613741174117384243e-06,-5.328818889602670477e-05
3.234126984126984183e+00,3.641642885071003410e-06,-5.585742189882077441e-05
3.234920634920634974e+00,3.542272932232486419e-06,-5.690348987575938338e-05
3.235714285714285765e+00,3.146100611633849611e-06,-5.510484136159201599e-05
3.236507936507936556e+00,2.368491261102455223e-06,-4.944015471157333996e-05
