Timestamp,Flexor carpi radialis,Extensor digitorum
2.000000000000000000e+00,-3.068985215750823571e-06,1.176302668388707832e-05
2.000793650793650791e+00,-3.594859909273081971e-06,6.144468038409501141e-06
2.001587301587301582e+00,-4.017948912587856615e-06,-3.364998411256909886e-07
2.002380952380952372e+00,-4.279118719592348844e-06,-6.352459199881729607e-06
2.003174603174603163e+00,-4.318851536885582069e-06,-1.069495801721230600e-05
2.003968253968253954e+00,-4.081559489365264245e-06,-1.258736842974600108e-05
2.004761904761904745e+00,-3.527417800189490671e-06,-1.189621397281125172e-05
2.005555555555555536e+00,-2.649883152543345068e-06,-9.166222228142222934e-06
2.006349206349206327e+00,-1.493743021100262953e-06,-5.455825879370359113e-06
2.007142857142857117e+00,-1.664652176435731402e-07,-2.017915244384271332e-06
2.007936507936507908e+00,1.164420275654902355e-06,7.496946193189102985e-08
2.008730158730158699e+00,2.292203202828097334e-06,2.445564523757612935e-07
2.009523809523809490e+00,3.008608006701782796e-06,-1.432392604768719140e-06
2.010317460317460281e+00,3.150179568635773960e-06,-4.255734063242794556e-06
2.011111111111111072e+00,2.641603511521206022e-06,-7.103826394741797038e-06
2.011904761904761862e+00,1.524497916862551898e-06,-8.734143745296542552e-06
2.012698412698412653e+00,-3.592547295488410791e-08,-8.089791458649200106e-06
2.013492063492063444e+00,-1.768552266750019251e-06,-4.531728627434083988e-06
2.014285714285714235e+00,-3.335385832378337992e-06,2.044998568727140306e-06
2.015079365079365026e+00,-4.384903211097372411e-06,1.120773871361042996e-05
2.015873015873015817e+00,-4.610853713540957903e-06,2.206136821400984794e-05
2.016666666666666607e+00,-3.807762689669247784e-06,3.336268687212993035e-05
2.017460317460317398e+00,-1.915674941554730113e-06,4.365092449138075820e-05
2.018253968253968189e+00,9.519290210633704229e-07,5.139229872529264267e-05
2.019047619047618980e+00,4.502018865272938984e-06,5.514479415979216026e-05
2.019841269841269771e+00,8.281858390059713602e-06,5.373949931564583844e-05
2.020634920634920562e+00,1.172778033069762923e-05,4.645769811097050667e-05
2.021428571428571352e+00,1.424282733083013640e-05,3.317547621093565476e-05
2.022222222222222143e+00,1.529688790247416436e-05,1.445702372556005417e-05
2.023015873015872934e+00,1.453424502094688114e-05,-8.408352504657619770e-06
2.023809523809523725e+00,1.186644676084139828e-05,-3.343327226229790837e-05
2.024603174603174516e+00,7.527613462562910631e-06,-5.805263753007186485e-05
2.025396825396825307e+00,2.075342926319550300e-06,-7.937850724632533107e-05
2.026190476190476097e+00,-3.670012755135495851e-06,-9.460093176399076104e-05
2.026984126984126888e+00,-8.744626195009127986e-06,-1.014768778846038267e-04
2.027777777777777679e+00,-1.220526141216293870e-05,-9.878302578439059284e-05
2.028571428571428470e+00,-1.331326208045210697e-05,-8.659375677216720553e-05
2.029365079365079261e+00,-1.170393765867065432e-05,-6.629808434462824062e-05
2.030158730158730052e+00,-7.501758500764483366e-06,-4.035845378803259087e-05
2.030952380952380842e+00,-1.344725590316288550e-06,-1.189000973869674309e-05
2.031746031746031633e+00,5.704785299913094032e-06,1.583088539064536463e-05
2.032539682539682424e+00,1.235979537637711429e-05,3.983157255630768886e-05
2.033333333333333215e+00,1.738332047296093920e-05,5.781389080058779110e-05
2.034126984126984006e+00,1.987289818600533706e-05,6.839483510118615631e-05
2.034920634920634797e+00,1.947862936368078838e-05,7.120995844835281729e-05
2.035714285714285587e+00,1.649169194133547195e-05,6.689298359999219497e-05
2.036507936507936378e+00,1.177383200156095284e-05,5.694874147075221248e-05
2.037301587301587169e+00,6.540396980139062208e-06,4.352619926485549394e-05
2.038095238095237960e+00,2.049256586182670144e-06,2.909262778920476157e-05
2.038888888888888751e+00,-7.237801191232940577e-07,1.602645977845638156e-05
2.039682539682539542e+00,-1.335126598014451930e-06,6.184446602991842430e-06
2.040476190476190332e+00,1.982374782625312946e-08,5.378386282883373242e-07
2.041269841269841123e+00,2.571844919504882124e-06,-1.016180130267532636e-06
2.042063492063491914e+00,5.194858087169453302e-06,4.049040706085075955e-07
2.042857142857142705e+00,6.713466958465077805e-06,2.979557952043967961e-06
2.043650793650793496e+00,6.217871889665403032e-06,4.670987959518533123e-06
2.044444444444444287e+00,3.305586931480687260e-06,3.764784348189556566e-06
2.045238095238095077e+00,-1.806602066823870905e-06,-6.945621401740469280e-07
2.046031746031745868e+00,-8.321040910699907555e-06,-8.693444711435509341e-06
2.046825396825396659e+00,-1.503194995952923602e-05,-1.931836312486717798e-05
2.047619047619047450e+00,-2.058854060164805528e-05,-3.105955479634332176e-05
2.048412698412698241e+00,-2.379009072684632812e-05,-4.222408703152868617e-05
2.049206349206349032e+00,-2.385244993766082365e-05,-5.131182929104440168e-05
2.049999999999999822e+00,-2.059181069968614740e-05,-5.724979254102357233e-05
2.050793650793650613e+00,-1.448598738433513268e-05,-5.945740582891978260e-05
2.051587301587301404e+00,-6.598076565160608451e-06,-5.778857087293214740e-05
2.052380952380952195e+00,1.621017945940751640e-06,-5.243379831581800353e-05
2.053174603174602986e+00,8.606956870887145424e-06,-4.385137079716815449e-05
2.053968253968253777e+00,1.297502900474525266e-05,-3.274283097467702079e-05
2.054761904761904567e+00,1.377524824220781205e-05,-2.003436084137908676e-05
2.055555555555555358e+00,1.066543247936074642e-05,-6.809009318202456621e-06
2.056349206349206149e+00,3.976424848455874917e-06,5.836793948341799212e-06
2.057142857142856940e+00,-5.337406651692118683e-06,1.698692783703585662e-05
2.057936507936507731e+00,-1.585313932195575525e-05,2.608154959400986220e-05
2.058730158730158522e+00,-2.591712565971480392e-05,3.299996694750795089e-05
2.059523809523809312e+00,-3.392910040969311967e-05,3.800654370814218378e-05
2.060317460317460103e+00,-3.862155300907302503e-05,4.156991587777597173e-05
2.061111111111110894e+00,-3.927666247324077599e-05,4.411812352536157041e-05
2.061904761904761685e+00,-3.583345176103398453e-05,4.582093113610274319e-05
2.062698412698412920e+00,-2.886475483537127141e-05,4.648328280341284440e-05
2.063492063492063711e+00,-1.943631041897341878e-05,4.559396028907716076e-05
2.064285714285714501e+00,-8.886991877509025156e-06,4.251921336691376796e-05
2.065079365079365292e+00,1.416472457606876286e-06,3.678309683964022593e-05
2.065873015873016083e+00,1.029690238129927760e-05,2.834653679707924582e-05
2.066666666666666874e+00,1.691671382186909838e-05,1.778957834109055883e-05
2.067460317460317665e+00,2.084465115564294421e-05,6.318092629353299943e-06
2.068253968253968456e+00,2.204724510789299788e-05,-4.440145158660746444e-06
2.069047619047619246e+00,2.082797913296326493e-05,-1.281884924596228682e-05
2.069841269841270037e+00,1.773915274856307663e-05,-1.757388846891270477e-05
2.070634920634920828e+00,1.348407009781086003e-05,-1.827156513437131854e-05
2.071428571428571619e+00,8.818158654903787396e-06,-1.545822880733771084e-05
2.072222222222222410e+00,4.453602261640388737e-06,-1.053069801566337580e-05
2.073015873015873201e+00,9.746046391464333073e-07,-5.335732038059195714e-06
2.073809523809523991e+00,-1.224985969449801760e-06,-1.628584266269745112e-06
2.074603174603174782e+00,-1.970140821854150722e-06,-5.664144473921369593e-07
2.075396825396825573e+00,-1.295771972964074817e-06,-2.389683709019828462e-06
2.076190476190476364e+00,5.907387943035445539e-07,-6.376584784865079762e-06
2.076984126984127155e+00,3.358856150637194198e-06,-1.107216265327489226e-05
2.077777777777777946e+00,6.601604401110823048e-06,-1.471658313793447129e-05
2.078571428571428736e+00,9.876027438004215448e-06,-1.574268298626870253e-05
2.079365079365079527e+00,1.274383919085148319e-05,-1.319672240224593004e-05
2.080158730158730318e+00,1.481974833817529132e-05,-6.966091707772145688e-06
2.080952380952381109e+00,1.582699476809311170e-05,2.233846309289886716e-06
2.081746031746031900e+00,1.564945267454693077e-05,1.307916124154473152e-05
2.082539682539682691e+00,1.436383779598866406e-05,2.396601927726612770e-05
2.083333333333333481e+00,1.223708182171738029e-05,3.333616317157313020e-05
2.084126984126984272e+00,9.682093271865128812e-06,3.991981010508677421e-05
2.084920634920635063e+00,7.176311669190100546e-06,4.287174890588748948e-05
2.085714285714285854e+00,5.157776578933131663e-06,4.181954364123606662e-05
2.086507936507936645e+00,3.921228087629831429e-06,3.685654634480427114e-05
2.087301587301587436e+00,3.541264085638563669e-06,2.850235958343096240e-05
2.088095238095238226e+00,3.848150031848144636e-06,1.763629097818623302e-05
2.088888888888889017e+00,4.471247241818733804e-06,5.400386614356342458e-06
2.089682539682539808e+00,4.945585693367741270e-06,-6.927994429169539156e-06
2.090476190476190599e+00,4.854890974395115000e-06,-1.808653045068309956e-05
2.091269841269841390e+00,3.968333734801512925e-06,-2.698985363685930442e-05
2.092063492063492181e+00,2.325387916184578647e-06,-3.288799844118535262e-05
2.092857142857142971e+00,2.360906030880859824e-07,-3.549620467805441270e-05
2.093650793650793762e+00,-1.809113509166264046e-06,-3.505954926696786401e-05
2.094444444444444553e+00,-3.292678082716030989e-06,-3.231779917586357048e-05
2.095238095238095344e+00,-3.833925096571064768e-06,-2.835858385649560632e-05
2.096031746031746135e+00,-3.307185849131280035e-06,-2.438220511798992309e-05
2.096825396825396925e+00,-1.877360076018798237e-06,-2.143187843141083803e-05
2.097619047619047716e+00,5.119609213724224724e-08,-2.015582181573854776e-05
2.098412698412698507e+00,1.947249983056469054e-06,-2.066023395413845359e-05
2.099206349206349298e+00,3.286904676193350358e-06,-2.249095774315973943e-05
2.100000000000000089e+00,3.671376300094725933e-06,-2.475386019448363431e-05
2.100793650793650880e+00,2.903083598094551537e-06,-2.635381838486041160e-05
2.101587301587301670e+00,1.011119129980560261e-06,-2.630189594072714369e-05
2.102380952380952461e+00,-1.769076900297746892e-06,-2.401422290721810904e-05
2.103174603174603252e+00,-5.049016793543765185e-06,-1.951430352375392100e-05
2.103968253968254043e+00,-8.358826433932852609e-06,-1.346694989798854232e-05
2.104761904761904834e+00,-1.122519473868907727e-05,-7.021765634692954168e-06
2.105555555555555625e+00,-1.324671752130457026e-05,-1.509268261915835163e-06
2.106349206349206415e+00,-1.415843371372740357e-05,1.918848961765623125e-06
2.107142857142857206e+00,-1.387597094817889153e-05,2.602506931577228297e-06
2.107936507936507997e+00,-1.250972068208764092e-05,5.587677167538258056e-07
2.108730158730158788e+00,-1.034346860654304721e-05,-3.499444950561178502e-06
2.109523809523809579e+00,-7.779278060520307595e-06,-8.307146170324281514e-06
2.110317460317460370e+00,-5.258539920780425344e-06,-1.231427993407789933e-05
2.111111111111111160e+00,-3.175506255974504899e-06,-1.401642528811842495e-05
2.111904761904761951e+00,-1.802472811788148327e-06,-1.228265415958564492e-05
2.112698412698412742e+00,-1.243520903266922899e-06,-6.615364600695335834e-06
2.113492063492063533e+00,-1.426041697833309681e-06,2.712860635418059393e-06
2.114285714285714324e+00,-2.128593047724884145e-06,1.467764719262696782e-05
2.115079365079365115e+00,-3.034726033465961956e-06,2.767496201896052542e-05
2.115873015873015905e+00,-3.798993812327368034e-06,3.980938425436335196e-05
2.116666666666666696e+00,-4.113104608034017946e-06,4.923438389132641182e-05
2.117460317460317487e+00,-3.763478170658962682e-06,5.447311774380146930e-05
2.118253968253968278e+00,-2.673010907234266800e-06,5.466179480615604110e-05
2.119047619047619069e+00,-9.193901243685413907e-07,4.968243224764114582e-05
2.119841269841269860e+00,1.277468585586245604e-06,4.017350130909866027e-05
2.120634920634920650e+00,3.601822266467757067e-06,2.742033149796568964e-05
2.121428571428571441e+00,5.715336540520107167e-06,1.313964487290364830e-05
2.122222222222222232e+00,7.338030102611146147e-06,-8.080338520368340883e-07
2.123015873015873023e+00,8.310759185489361190e-06,-1.272258119352893801e-05
2.123809523809523814e+00,8.617693303639349409e-06,-2.131949376340722984e-05
2.124603174603174605e+00,8.363546726307026507e-06,-2.588210010104818873e-05
2.125396825396825395e+00,7.719778221176992468e-06,-2.628670193328912406e-05
2.126190476190476186e+00,6.864865099867231974e-06,-2.291224830787901584e-05
2.126984126984126977e+00,5.940527761848555418e-06,-1.647597956645368533e-05
2.127777777777777768e+00,5.032960895544316979e-06,-7.853931599391581904e-06
2.128571428571428559e+00,4.175388525667409934e-06,2.055267261469134462e-06
2.129365079365079350e+00,3.362363784489431421e-06,1.238697347889437603e-05
2.130158730158730140e+00,2.567328361471515539e-06,2.228923791527990075e-05
2.130952380952380931e+00,1.758893037136195540e-06,3.086383227642075408e-05
2.131746031746031722e+00,9.142973051022053702e-07,3.713222847410206721e-05
2.132539682539682513e+00,2.946080996583437737e-08,4.008603268626416562e-05
2.133333333333333304e+00,-8.751206294125546720e-07,3.885091449323178729e-05
2.134126984126984095e+00,-1.753355346276902301e-06,3.294204872920355125e-05
2.134920634920634885e+00,-2.537570078276857109e-06,2.253401222502641592e-05
2.135714285714285676e+00,-3.147347221163285936e-06,8.633087899217249363e-06
2.136507936507936467e+00,-3.502985644160517168e-06,-6.952188506025629237e-06
2.137301587301587258e+00,-3.542519814058034516e-06,-2.188823586550215576e-05
2.138095238095238049e+00,-3.238848542646912863e-06,-3.379575224063690486e-05
2.138888888888888840e+00,-2.611554718477539359e-06,-4.079769093431726999e-05
2.139682539682539630e+00,-1.729090409606184987e-06,-4.196172598512608066e-05
2.140476190476190421e+00,-7.009132501350636697e-07,-3.749568300990407265e-05
2.141269841269841212e+00,3.374837128284572969e-07,-2.864682625836879567e-05
2.142063492063492003e+00,1.243400360907845955e-06,-1.735872081610466579e-05
2.142857142857142794e+00,1.887737649420188941e-06,-5.804725393116526094e-06
2.143650793650793585e+00,2.175893144360002456e-06,4.069197952720030651e-06
2.144444444444444375e+00,2.064852487157851828e-06,1.088438283949248320e-05
2.145238095238095166e+00,1.571015786035591433e-06,1.399063877062345030e-05
2.146031746031745957e+00,7.646596237167593081e-07,1.344354130103068452e-05
2.146825396825396748e+00,-2.484389916120412973e-07,9.843868587480656017e-06
2.147619047619047539e+00,-1.351661361237715385e-06,4.114203867675682503e-06
2.148412698412698330e+00,-2.437796687087569367e-06,-2.714864453169915397e-06
2.149206349206349120e+00,-3.415380311615844401e-06,-9.664341192822146568e-06
2.149999999999999911e+00,-4.199146791795598741e-06,-1.590192118897916114e-05
2.150793650793650702e+00,-4.693044815628073492e-06,-2.078500240945998950e-05
2.151587301587301493e+00,-4.781128899237317206e-06,-2.387000540025027140e-05
2.152380952380952284e+00,-4.340006586149071783e-06,-2.490298832406166553e-05
2.153174603174603075e+00,-3.276457165471215690e-06,-2.380240915077955799e-05
2.153968253968253865e+00,-1.580303072892582630e-06,-2.064181254151168578e-05
2.154761904761904656e+00,6.274998821722071148e-07,-1.563623276850041157e-05
2.155555555555555447e+00,3.073147212587582108e-06,-9.131685054933759332e-06
2.156349206349206238e+00,5.348717770626971257e-06,-1.594918278390458251e-06
2.157142857142857029e+00,6.972893730969990470e-06,6.398595023821585828e-06
2.157936507936507819e+00,7.482970815768710228e-06,1.417887639143433511e-05
2.158730158730158610e+00,6.538710547459445920e-06,2.099945674599821432e-05
2.159523809523809401e+00,4.014351315224173784e-06,2.606644780703945002e-05
2.160317460317460192e+00,5.605292951666218504e-08,2.859300153483966073e-05
2.161111111111110983e+00,-4.911125818872067570e-06,2.789475871449493500e-05
2.161904761904761774e+00,-1.023086656303688204e-05,2.353190506380318481e-05
2.162698412698412564e+00,-1.510889686666844595e-05,1.548270401487322867e-05
2.163492063492063355e+00,-1.873320233850792274e-05,4.307474459766087560e-06
2.164285714285714146e+00,-2.039901741048689667e-05,-8.759697458030752437e-06
2.165079365079364937e+00,-1.961995124665753362e-05,-2.185887753853290113e-05
2.165873015873015728e+00,-1.621399908834180085e-05,-3.273484238295495106e-05
2.166666666666666519e+00,-1.035862528066824084e-05,-3.913922294519806862e-05
2.167460317460317309e+00,-2.608127389873620677e-06,-3.932816931461110557e-05
2.168253968253968100e+00,6.138651552901637560e-06,-3.253416611498152891e-05
2.169047619047618891e+00,1.473352111162818809e-05,-1.928543435198040742e-05
2.169841269841269682e+00,2.194083597181420978e-05,-1.477322100267418404e-06
2.170634920634920473e+00,2.664937172107057943e-05,1.785083285788005062e-05
2.171428571428571264e+00,2.809388100560468844e-05,3.502476674101035923e-05
2.172222222222222054e+00,2.603170965241615153e-05,4.646154084673611136e-05
2.173015873015872845e+00,2.082377238051491363e-05,4.948071017236615251e-05
2.173809523809523636e+00,1.339097895773478922e-05,4.301534797721397950e-05
2.174603174603174427e+00,5.048678330268925760e-06,2.802196901107626589e-05
2.175396825396825218e+00,-2.747411528071263469e-06,7.432956489442621994e-06
2.176190476190476009e+00,-8.688607718638708118e-06,-1.439750088413769371e-05
2.176984126984126799e+00,-1.187192917044436400e-05,-3.265827838913648899e-05
2.177777777777777590e+00,-1.197697608828309655e-05,-4.322508154046144924e-05
2.178571428571428381e+00,-9.328422200540014396e-06,-4.367523035247410622e-05
2.179365079365079172e+00,-4.835465612883162183e-06,-3.388741788377032811e-05
2.180158730158729963e+00,1.798005837210982915e-07,-1.605982271324707324e-05
2.180952380952380754e+00,4.238283041445419407e-06,5.846879332340536753e-06
2.181746031746031544e+00,6.006188615576647407e-06,2.707271048882001338e-05
2.182539682539682335e+00,4.595171230761439945e-06,4.315995853293463653e-05
2.183333333333333126e+00,-1.987267597132793271e-07,5.091221879305362404e-05
2.184126984126983917e+00,-7.780046862428149744e-06,4.899559571090939458e-05
2.184920634920634708e+00,-1.681221884801095587e-05,3.808257844829272273e-05
2.185714285714285499e+00,-2.546343660990238670e-05,2.056526335749903731e-05
2.186507936507936289e+00,-3.180289752408704530e-05,-3.853783889175794655e-08
2.187301587301587080e+00,-3.425761047005664077e-05,-1.982023542293061429e-05
2.188095238095238315e+00,-3.200714208642549782e-05,-3.520213403479117287e-05
2.188888888888889106e+00,-2.520006935517200893e-05,-4.353491190411788465e-05
2.189682539682539897e+00,-1.492699241454528444e-05,-4.350650505394604571e-05
2.190476190476190688e+00,-2.963445955778863545e-06,-3.533104075153123652e-05
2.191269841269841478e+00,8.631213308531144758e-06,-2.070547545577901516e-05
2.192063492063492269e+00,1.793699781501675492e-05,-2.534901159529993746e-06
2.192857142857143060e+00,2.351153699668194968e-05,1.555487073437018968e-05
2.193650793650793851e+00,2.459144767930472475e-05,2.986890727168106470e-05
2.194444444444444642e+00,2.116721567601376690e-05,3.736761983645589416e-05
2.195238095238095433e+00,1.397350116094752080e-05,3.632932914547507344e-05
2.196031746031746223e+00,4.421501709087952611e-06,2.679332070651982848e-05
2.196825396825397014e+00,-5.541005522757595049e-06,1.064335400388126212e-05
2.197619047619047805e+00,-1.368018278798317596e-05,-8.740062689001743240e-06
2.198412698412698596e+00,-1.785372244344226474e-05,-2.721795143802419501e-05
2.199206349206349387e+00,-1.647431920784286541e-05,-4.085729026423857399e-05
2.200000000000000178e+00,-8.959148705247595650e-06,-4.687277081922743141e-05
2.200793650793650968e+00,3.965291588027732226e-06,-4.429040919937070857e-05
2.201587301587301759e+00,2.022610623322588955e-05,-3.415154388323328975e-05
2.202380952380952550e+00,3.670947237707762281e-05,-1.920395489462781524e-05
2.203174603174603341e+00,4.989540990953625517e-05,-3.170196245047608740e-06
2.203968253968254132e+00,5.669773355299152561e-05,1.020141468950570545e-05
2.204761904761904923e+00,5.529004533770412542e-05,1.804666908067966433e-05
2.205555555555555713e+00,4.566580722818574785e-05,1.902507253518653462e-05
2.206349206349206504e+00,2.973726220904153797e-05,1.354428187201229422e-05
2.207142857142857295e+00,1.091181725536193367e-05,3.542243070789525240e-06
2.207936507936508086e+00,-6.753441606611026643e-06,-8.083088132500960160e-06
2.208730158730158877e+00,-1.958707731824704408e-05,-1.822208128476788351e-05
2.209523809523809668e+00,-2.523834222571596435e-05,-2.427678062963797351e-05
2.210317460317460458e+00,-2.325244823298360428e-05,-2.468771704515997897e-05
2.211111111111111249e+00,-1.513378696570630085e-05,-1.916787706847809095e-05
2.211904761904762040e+00,-3.892898065758932733e-06,-8.636843896140413535e-06
2.212698412698412831e+00,6.784732629726042881e-06,5.079113478294473731e-06
2.213492063492063622e+00,1.351396313961821454e-05,1.967750647154285106e-05
2.214285714285714413e+00,1.406854167801579955e-05,3.283463296095694053e-05
2.215079365079365203e+00,7.907381208951799387e-06,4.259939809846787010e-05
2.215873015873015994e+00,-3.745715958603124789e-06,4.766952156703845348e-05
2.216666666666666785e+00,-1.825755697896705912e-05,4.752333774986926328e-05
2.217460317460317576e+00,-3.225356926656566039e-05,4.240706014216406492e-05
2.218253968253968367e+00,-4.241070904219429742e-05,3.320081294696914883e-05
2.219047619047619158e+00,-4.618298521968345022e-05,2.120656181727535627e-05
2.219841269841269948e+00,-4.231334553558805002e-05,7.913794304196548941e-06
2.220634920634920739e+00,-3.105601080637797752e-05,-5.201953978668369182e-06
2.221428571428571530e+00,-1.410045524805212324e-05,-1.681141154679605411e-05
2.222222222222222321e+00,5.762521839980066685e-06,-2.579227645196072231e-05
2.223015873015873112e+00,2.516026768585945372e-05,-3.125168347389975293e-05
2.223809523809523903e+00,4.074901402016909856e-05,-3.256198341712200281e-05
2.224603174603174693e+00,4.980703312201962559e-05,-2.944734179462397348e-05
2.225396825396825484e+00,5.070140504848415485e-05,-2.211522529591314852e-05
2.226190476190476275e+00,4.314412434975953964e-05,-1.137700024908269417e-05
2.226984126984127066e+00,2.820144855956418362e-05,1.323398783515265002e-06
2.227777777777777857e+00,8.076227690123098592e-06,1.403626619374288967e-05
2.228571428571428648e+00,-1.427521015564462915e-05,2.459875788647909685e-05
2.229365079365079438e+00,-3.561457434609104696e-05,3.104043376816206264e-05
2.230158730158730229e+00,-5.291006255764632571e-05,3.200282184127996933e-05
2.230952380952381020e+00,-6.378041422208918093e-05,2.706320599861660047e-05
2.231746031746031811e+00,-6.683719195998467531e-05,1.687873026348382527e-05
2.232539682539682602e+00,-6.187116925521314798e-05,3.114912973808187562e-06
2.233333333333333393e+00,-4.984547545936705571e-05,-1.182779618479097228e-05
2.234126984126984183e+00,-3.269378885246575808e-05,-2.523765397407247882e-05
2.234920634920634974e+00,-1.296442787389313072e-05,-3.458981341043755408e-05
2.235714285714285765e+00,6.618059393757361571e-06,-3.803177534156454751e-05
2.236507936507936556e+00,2.359200590859093875e-05,-3.476575982765074593e-05
2.237301587301587347e+00,3.612237745985670312e-05,-2.524193546552145964e-05
2.238095238095238138e+00,4.322825685138235346e-05,-1.109603035738504768e-05
2.238888888888888928e+00,4.483837818289527133e-05,5.185896696820630568e-06
2.239682539682539719e+00,4.167654890621873525e-05,2.081328962223411916e-05
2.240476190476190510e+00,3.502029988916031185e-05,3.330594076018701677e-05
2.241269841269841301e+00,2.640333236840965457e-05,4.100311878637003633e-05
2.242063492063492092e+00,1.733263217755394008e-05,4.332863700289339514e-05
2.242857142857142883e+00,9.068571650341567046e-06,4.076013484229153730e-05
2.243650793650793673e+00,2.486176617962727697e-06,3.454514017123195061e-05
2.244444444444444464e+00,-1.987691999218429817e-06,2.627499359161661219e-05
2.245238095238095255e+00,-4.376092043011366711e-06,1.745714373360295049e-05
2.246031746031746046e+00,-5.104079529537841080e-06,9.213029383060610393e-06
2.246825396825396837e+00,-4.903612269866941907e-06,2.173468887495886048e-06
2.247619047619047628e+00,-4.670291910148365947e-06,-3.438521827479402297e-06
2.248412698412698418e+00,-5.279757064793189539e-06,-7.621852580920272673e-06
2.249206349206349209e+00,-7.389151344998031836e-06,-1.042324899653921256e-05
2.250000000000000000e+00,-1.126341133693195060e-05,-1.186307653351129394e-05
2.250793650793650791e+00,-1.666717596879333733e-05,-1.198308540191689069e-05
2.251587301587301582e+00,-2.285177691456057001e-05,-1.096828045216692765e-05
2.252380952380952372e+00,-2.865083333791878373e-05,-9.256345998477087913e-06
2.253174603174603163e+00,-3.268151073036334341e-05,-7.556946840727539568e-06
2.253968253968253954e+00,-3.362870230768712118e-05,-6.748983861728577822e-06
2.254761904761904745e+00,-3.056408334373379775e-05,-7.676723196845241037e-06
2.255555555555555536e+00,-2.322763326821569455e-05,-1.090256900084336848e-05
2.256349206349206327e+00,-1.218954803358980174e-05,-1.649135010333308907e-05
2.257142857142857117e+00,1.172963449355133923e-06,-2.389920424137768209e-05
2.257936507936507908e+00,1.490549651972198677e-05,-3.201457113209133637e-05
2.258730158730158699e+00,2.687374003958846255e-05,-3.935201578928725503e-05
2.259523809523809490e+00,3.523190083622373340e-05,-4.435146669126835618e-05
2.260317460317460281e+00,3.883547430480662887e-05,-4.570855204095362976e-05
2.261111111111111072e+00,3.748357279103352367e-05,-4.266162892485361974e-05
2.261904761904761862e+00,3.192799268506681858e-05,-3.517724641342175019e-05
2.262698412698412653e+00,2.365698114801941616e-05,-2.399795140804718096e-05
2.263492063492063444e+00,1.452334463408695243e-05,-1.054235142973015167e-05
2.264285714285714235e+00,6.319754423038857198e-06,3.324595025759125284e-06
2.265079365079365026e+00,4.050764611264200893e-07,1.560954349895118606e-05
2.265873015873015817e+00,-2.538384990605493130e-06,2.454195455701017122e-05
2.266666666666666607e+00,-2.575335666238312434e-06,2.890013277165391880e-05
2.267460317460317398e+00,-4.172101364534977660e-07,2.825783462253145421e-05
2.268253968253968189e+00,2.809490242795951697e-06,2.310451790138580663e-05
2.269047619047618980e+00,5.862016242977889583e-06,1.480031248623484938e-05
2.269841269841269771e+00,7.675076795221510341e-06,5.343607830536823852e-06
2.270634920634920562e+00,7.586058187029841960e-06,-3.030542542586193373e-06
2.271428571428571352e+00,5.450543530587344387e-06,-8.343537555528168027e-06
2.272222222222222143e+00,1.635235778648639416e-06,-9.334155054393599419e-06
2.273015873015872934e+00,-3.097976357454570738e-06,-5.761480812096007035e-06
2.273809523809523725e+00,-7.783306841796366210e-06,1.534209112862359882e-06
2.274603174603174516e+00,-1.147322888976877534e-05,1.083140732316395567e-05
2.275396825396825307e+00,-1.344491263856596890e-05,1.993675685585802589e-05
2.276190476190476097e+00,-1.335041742326301929e-05,2.669410901210086894e-05
2.276984126984126888e+00,-1.128302269005039862e-05,2.945794703904475946e-05
2.277777777777777679e+00,-7.750011601579220150e-06,2.741591430080863456e-05
2.278571428571428470e+00,-3.562237677512104418e-06,2.070123184975563885e-05
2.279365079365079261e+00,3.318237260392098757e-07,1.030128454529065862e-05
2.280158730158730052e+00,3.030600490605611322e-06,-2.182013823253761211e-06
2.280952380952380842e+00,3.847598022543037098e-06,-1.484458849938451403e-05
2.281746031746031633e+00,2.439251802183462631e-06,-2.579804307595069351e-05
2.282539682539682424e+00,-1.119027538588460627e-06,-3.344850351239974539e-05
2.283333333333333215e+00,-6.313656832714376053e-06,-3.671288393048471925e-05
2.284126984126984006e+00,-1.223663537003367978e-05,-3.515987415383584449e-05
2.284920634920634797e+00,-1.770070702850996071e-05,-2.906562105261826178e-05
2.285714285714285587e+00,-2.142895180548628979e-05,-1.937411565899220463e-05
2.286507936507936378e+00,-2.230361155402087384e-05,-7.556409369476459188e-06
2.287301587301587169e+00,-1.963130058255148979e-05,4.622858971369007108e-06
2.288095238095237960e+00,-1.335686338168088406e-05,1.539916318667465238e-05
2.288888888888888751e+00,-4.152948024517914285e-06,2.330629038347065672e-05
2.289682539682539542e+00,6.661782614481957657e-06,2.741398413758604343e-05
2.290476190476190332e+00,1.737158757867561241e-05,2.745178381340966997e-05
2.291269841269841123e+00,2.622105091059053061e-05,2.379647229726325670e-05
2.292063492063491914e+00,3.178834506013674223e-05,1.733911452818789892e-05
2.292857142857142705e+00,3.327883361905335953e-05,9.278178555503100919e-06
2.293650793650793496e+00,3.066794647621917945e-05,8.943124674223939113e-07
2.294444444444444287e+00,2.466410021113109690e-05,-6.650641302292847678e-06
2.295238095238095077e+00,1.651036028216159701e-05,-1.246808375259356812e-05
2.296031746031745868e+00,7.685011676964042618e-06,-1.603893093243654030e-05
2.296825396825396659e+00,-4.166164466420155638e-07,-1.724036753568891286e-05
2.297619047619047450e+00,-6.741147360204947656e-06,-1.629594319117852298e-05
2.298412698412698241e+00,-1.072599425529536495e-05,-1.365952559324170024e-05
2.299206349206349032e+00,-1.232322930599545675e-05,-9.867073167168652424e-06
2.299999999999999822e+00,-1.191553655500140632e-05,-5.404002106631269164e-06
2.300793650793650613e+00,-1.016163839545942038e-05,-6.305106543354967695e-07
2.301587301587301404e+00,-7.816165493475303954e-06,4.218008278260213454e-06
2.302380952380952195e+00,-5.565350545670579646e-06,8.974766572692514127e-06
2.303174603174602986e+00,-3.908141399088572376e-06,1.347713206179888954e-05
2.303968253968253777e+00,-3.096658248495256869e-06,1.754041770562803933e-05
2.304761904761904567e+00,-3.135165710386747605e-06,2.098345625366491022e-05
2.305555555555555358e+00,-3.826248756938664271e-06,2.367833750169432596e-05
2.306349206349206149e+00,-4.847163989568484117e-06,2.557823641364681555e-05
2.307142857142856940e+00,-5.837042020253946133e-06,2.669388148793020544e-05
2.307936507936507731e+00,-6.476240921864611879e-06,2.702764542686614163e-05
2.308730158730158522e+00,-6.543483899560343048e-06,2.650785752246194953e-05
2.309523809523809312e+00,-5.943954017275093144e-06,2.497220263622856103e-05
2.310317460317460103e+00,-4.709397425054148745e-06,2.222320869727447234e-05
2.311111111111110894e+00,-2.976689273308075377e-06,1.813710927603221577e-05
2.311904761904761685e+00,-9.535299454208145989e-07,1.277594458243655409e-05
2.312698412698412920e+00,1.120316121112989351e-06,6.449714810311277401e-06
2.313492063492063711e+00,3.009599472471753035e-06,-2.999472489721715356e-07
2.314285714285714501e+00,4.513617713326538463e-06,-6.787886280412472906e-06
2.315079365079365292e+00,5.487229536675779984e-06,-1.231380077013371325e-05
2.315873015873016083e+00,5.851854549005902143e-06,-1.629426957626409276e-05
2.316666666666666874e+00,5.597178470223128382e-06,-1.836926399055006877e-05
2.317460317460317665e+00,4.776201199788780706e-06,-1.846269577676925181e-05
2.318253968253968456e+00,3.497052883946205914e-06,-1.678442988129167669e-05
2.319047619047619246e+00,1.913515397754180166e-06,-1.377273222195578876e-05
2.319841269841270037e+00,2.131852909279636426e-07,-9.991989832787960625e-06
2.320634920634920828e+00,-1.399939625781058389e-06,-6.014849138371815006e-06
2.321428571428571619e+00,-2.730895342709185343e-06,-2.323307948247783697e-06
2.322222222222222410e+00,-3.625613848607623645e-06,7.442476186338531234e-07
2.323015873015873201e+00,-4.002073953070612943e-06,2.992272539375578794e-06
2.323809523809523991e+00,-3.869983090468717190e-06,4.329120194184335510e-06
2.324603174603174782e+00,-3.329849750888580464e-06,4.720774003549095469e-06
2.325396825396825573e+00,-2.549529771043727232e-06,4.166386089733297891e-06
2.326190476190476364e+00,-1.725498415351564314e-06,2.708758242418964247e-06
2.326984126984127155e+00,-1.041959161406016053e-06,4.734405423943810188e-07
2.327777777777777946e+00,-6.403302328059023094e-07,-2.284645220930610785e-06
2.328571428571428736e+00,-6.053529756442623087e-07,-5.154715465718038774e-06
2.329365079365079527e+00,-9.656408011798511446e-07,-7.586495678651264903e-06
2.330158730158730318e+00,-1.700496845354349832e-06,-8.955698435165337454e-06
2.330952380952381109e+00,-2.744691925074294097e-06,-8.666006521031158061e-06
2.331746031746031900e+00,-3.988535816374676894e-06,-6.266460297059159670e-06
2.332539682539682691e+00,-5.277650611205874726e-06,-1.567595697757543906e-06
2.333333333333333481e+00,-6.419940512047705463e-06,5.253837162385143673e-06
2.334126984126984272e+00,-7.204594583987528565e-06,1.357518491578302825e-05
2.334920634920635063e+00,-7.432367578445377656e-06,2.229911036494572964e-05
2.335714285714285854e+00,-6.951706918231589581e-06,2.990862911289256433e-05
2.336507936507936645e+00,-5.693161357166842917e-06,3.462798554480108181e-05
2.337301587301587436e+00,-3.694349885141357037e-06,3.468471888861022969e-05
2.338095238095238226e+00,-1.108784848008166208e-06,2.864080844384603736e-05
2.338888888888889017e+00,1.805868339703524992e-06,1.574505426954398346e-05
2.339682539682539808e+00,4.720752779633571849e-06,-3.747590763972842722e-06
2.340476190476190599e+00,7.286251153675032068e-06,-2.835419814037817900e-05
2.341269841269841390e+00,9.192335888605596174e-06,-5.532195167424649562e-05
2.342063492063492181e+00,1.022839372661511414e-05,-8.085329990379836232e-05
2.342857142857142971e+00,1.032964344486624175e-05,-1.006417108316132034e-04
2.343650793650793762e+00,9.596117100392644768e-06,-1.106583420715894888e-04
2.344444444444444553e+00,8.273251734360894150e-06,-1.080098901727930103e-04
2.345238095238095344e+00,6.692768007906998849e-06,-9.162837598345690388e-05
2.346031746031746135e+00,5.186611216194929020e-06,-6.260219881466104507e-05
2.346825396825396925e+00,3.998902051932871137e-06,-2.408427558561316610e-05
2.347619047619047716e+00,3.224735960592399403e-06,1.916512715821202352e-05
2.348412698412698507e+00,2.797646094873107831e-06,6.148542867418318493e-05
2.349206349206349298e+00,2.531152360371269352e-06,9.715561885944672116e-05
2.350000000000000089e+00,2.199543653067491298e-06,1.212585942075978905e-04
2.350793650793650880e+00,1.627784486494795093e-06,1.304526180643606002e-04
2.351587301587301670e+00,7.583551761473621798e-07,1.235193646923794255e-04
2.352380952380952461e+00,-3.250084025596748462e-07,1.015720215471289857e-04
2.353174603174603252e+00,-1.417731001468993151e-06,6.786378006680085116e-05
2.353968253968254043e+00,-2.244488595688746301e-06,2.722372089205623441e-05
2.354761904761904834e+00,-2.518841791837632582e-06,-1.476712808061606214e-05
2.355555555555555625e+00,-1.996689988225439914e-06,-5.269146923780831205e-05
2.356349206349206415e+00,-5.174201121419196487e-07,-8.212372597384564080e-05
2.357142857142857206e+00,1.965538362563321906e-06,-1.002188192687312606e-04
2.357936507936507997e+00,5.361851669227586085e-06,-1.059664745558773502e-04
2.358730158730158788e+00,9.431306537198586997e-06,-1.000927510357136848e-04
2.359523809523809579e+00,1.378918668574043208e-05,-8.467483160720946900e-05
2.360317460317460370e+00,1.793976658251091489e-05,-6.259902402481572127e-05
2.361111111111111160e+00,2.134084222819900633e-05,-3.700796947593103903e-05
2.361904761904761951e+00,2.348944222594464006e-05,-1.084931159328927409e-05
2.362698412698412742e+00,2.400726712684168908e-05,1.342000204664366569e-05
2.363492063492063533e+00,2.270176790170401777e-05,3.397239150062582211e-05
2.364285714285714324e+00,1.958761962734469712e-05,4.962264350522280231e-05
2.365079365079365115e+00,1.486850557605545094e-05,5.975932521154318257e-05
2.365873015873015905e+00,8.891617111465118970e-06,6.423838521424512257e-05
2.366666666666666696e+00,2.090821500736774264e-06,6.327779643559305086e-05
2.367460317460317487e+00,-5.070805513751135898e-06,5.738599908776593518e-05
2.368253968253968278e+00,-1.215633970755900375e-05,4.734286239299408832e-05
2.369047619047619069e+00,-1.880797685756653500e-05,3.422073235990800934e-05
2.369841269841269860e+00,-2.479046358596298795e-05,1.939232148476922898e-05
2.370634920634920650e+00,-3.000717308969501481e-05,4.452820812149762690e-06
2.371428571428571441e+00,-3.446888688078356421e-05,-8.982857064125812451e-06
2.372222222222222232e+00,-3.821058406205568619e-05,-1.956638030526019285e-05
2.373015873015873023e+00,-4.117923301913464096e-05,-2.647159934923200574e-05
2.373809523809523814e+00,-4.313812427778515151e-05,-2.950266805269851099e-05
2.374603174603174605e+00,-4.363432944305885454e-05,-2.901669800984780907e-05
2.375396825396825395e+00,-4.205390412055385403e-05,-2.572472163103806710e-05
2.376190476190476186e+00,-3.775727194240502768e-05,-2.048301796822282999e-05
2.376984126984126977e+00,-3.026048294772435492e-05,-1.415574858080186437e-05
2.377777777777777768e+00,-1.941573058654449488e-05,-7.559400455394117287e-06
2.378571428571428559e+00,-5.547082369591509897e-06,-1.449023290392721543e-06
2.379365079365079350e+00,1.049020410623827315e-05,3.499117072920246850e-06
2.380158730158730140e+00,2.734231128201398958e-05,6.731803407273266215e-06
2.380952380952380931e+00,4.328140350241563116e-05,7.892429942039813520e-06
2.381746031746031722e+00,5.640853034037499497e-05,6.914131718031111175e-06
2.382539682539682513e+00,6.490988609784859053e-05,4.107604654878419339e-06
2.383333333333333304e+00,6.733242080251010441e-05,1.963183753180316046e-07
2.384126984126984095e+00,6.283965016592951648e-05,-3.757329077340117533e-06
2.384920634920634885e+00,5.140776933328044900e-05,-6.560988942834503070e-06
2.385714285714285676e+00,3.392425165823383906e-05,-7.196546850753251953e-06
2.386507936507936467e+00,1.215546932319843242e-05,-5.118749183248185750e-06
2.387301587301587258e+00,-1.143897883771098026e-05,-4.349140203102137921e-07
2.388095238095238049e+00,-3.404282651379065985e-05,6.103384173171638475e-06
2.388888888888888840e+00,-5.292890763762513187e-05,1.329261578276977537e-05
2.389682539682539630e+00,-6.592857279524378181e-05,1.978600287518789087e-05
2.390476190476190421e+00,-7.181073893604568545e-05,2.442166410118178386e-05
2.391269841269841212e+00,-7.046556106795817676e-05,2.648094717322052241e-05
2.392063492063492003e+00,-6.284137741091093085e-05,2.582008687490343682e-05
2.392857142857142794e+00,-5.066150483753926000e-05,2.285850122261019678e-05
2.393650793650793585e+00,-3.601228290312295896e-05,1.844238827853027636e-05
2.394444444444444375e+00,-2.091840584243521498e-05,1.362731087553059469e-05
2.395238095238095166e+00,-7.004640526166601716e-06,9.436708991162012740e-06
2.396031746031745957e+00,4.698422436017109486e-06,6.653293989128329309e-06
2.396825396825396748e+00,1.379258438673208951e-05,5.686166475419726338e-06
2.397619047619047539e+00,2.041833119301168545e-05,6.531938191638242111e-06
2.398412698412698330e+00,2.507498744745174506e-05,8.821744635662659271e-06
2.399206349206349120e+00,2.840828701328230484e-05,1.192649910612113673e-05
2.399999999999999911e+00,3.101440993947371551e-05,1.508513873344144096e-05
2.400793650793650702e+00,3.329537738580149494e-05,1.752650431513998354e-05
2.401587301587301493e+00,3.538248781312002477e-05,1.857177588393604730e-05
2.402380952380952284e+00,3.712905599374615546e-05,1.772095045142036654e-05
2.403174603174603075e+00,3.816451799104354764e-05,1.473109999965672495e-05
2.403968253968253865e+00,3.799732458214723381e-05,9.682774913196923953e-06
2.404761904761904656e+00,3.615006316206842131e-05,3.015071719026502126e-06
2.405555555555555447e+00,3.230447689585452684e-05,-4.495836368223348198e-06
2.406349206349206238e+00,2.642705686005250714e-05,-1.183199709993164574e-05
2.407142857142857029e+00,1.884156922698873406e-05,-1.790482056252042797e-05
2.407936507936507819e+00,1.021972438836809820e-05,-2.178449968340950759e-05
2.408730158730158610e+00,1.479926027327842493e-06,-2.294370945875284079e-05
2.409523809523809401e+00,-6.386588724179945525e-06,-2.144335020338866557e-05
2.410317460317460192e+00,-1.251525602686391748e-05,-1.797890729638721363e-05
2.411111111111110983e+00,-1.633530239241527178e-05,-1.373773409354630713e-05
2.411904761904761774e+00,-1.765946544717183396e-05,-1.008647978480133832e-05
2.412698412698412564e+00,-1.668228913246484437e-05,-8.178667940112335519e-06
2.413492063492063355e+00,-1.390481674638948165e-05,-8.606429713913685107e-06
2.414285714285714146e+00,-1.002018929770498196e-05,-1.120656350537198855e-05
2.415079365079364937e+00,-5.792411645261513386e-06,-1.508423723439170922e-05
2.415873015873015728e+00,-1.947723703910541902e-06,-1.885561734520894108e-05
2.416666666666666519e+00,9.144043041899209112e-07,-2.104582347439126863e-05
2.417460317460317309e+00,2.389451317878977165e-06,-2.052705617261125899e-05
2.418253968253968100e+00,2.312782821888949594e-06,-1.686505872075494170e-05
2.419047619047618891e+00,7.747477817358413141e-07,-1.047142885654540439e-05
2.419841269841269682e+00,-1.901557174624328512e-06,-2.523249202999129369e-06
2.420634920634920473e+00,-5.221326806887223314e-06,5.317136064787620198e-06
2.421428571428571264e+00,-8.608653851087555932e-06,1.129680990987628294e-05
2.422222222222222054e+00,-1.150776784252604408e-05,1.397557984060304024e-05
2.423015873015872845e+00,-1.347207266754103912e-05,1.254212668818159707e-05
2.423809523809523636e+00,-1.422217310439051080e-05,6.978180569882065046e-06
2.424603174603174427e+00,-1.366488072574083332e-05,-1.952317506880200329e-06
2.425396825396825218e+00,-1.187772389480261652e-05,-1.286859444675154554e-05
2.426190476190476009e+00,-9.071265699242387856e-06,-2.403935722032551561e-05
2.426984126984126799e+00,-5.542036628530295920e-06,-3.368632244738288377e-05
2.427777777777777590e+00,-1.625419227625911933e-06,-4.027503178454923892e-05
2.428571428571428381e+00,2.345140512917448701e-06,-4.276323258100478604e-05
2.429365079365079172e+00,6.067956748957188295e-06,-4.078260701869555261e-05
2.430158730158729963e+00,9.289927735698988643e-06,-3.471906537104577962e-05
2.430952380952380754e+00,1.181251071639861825e-05,-2.565216404706054373e-05
2.431746031746031544e+00,1.349279356351887318e-05,-1.513851684191457068e-05
2.432539682539682335e+00,1.424627623177475747e-05,-4.876304099765244242e-06
2.433333333333333126e+00,1.405400486478002110e-05,3.660560430857039770e-06
2.434126984126983917e+00,1.296947368111144053e-05,9.513342632011067860e-06
2.434920634920634708e+00,1.111534363623487251e-05,1.237814577009166498e-05
2.435714285714285499e+00,8.662527151051855768e-06,1.257362073135680936e-05
2.436507936507936289e+00,5.795476351162184056e-06,1.086864215024596165e-05
2.437301587301587080e+00,2.680288786123109216e-06,8.232752706495343538e-06
2.438095238095238315e+00,-5.447179234731683336e-07,5.579715634854806892e-06
2.438888888888889106e+00,-3.748597110560146159e-06,3.566158823962240940e-06
2.439682539682539897e+00,-6.771087971642839505e-06,2.489406865725814550e-06
2.440476190476190688e+00,-9.397572390478144629e-06,2.302718073931811853e-06
2.441269841269841478e+00,-1.136974606614936133e-05,2.733648778703281806e-06
2.442063492063492269e+00,-1.243572123521361859e-05,3.459739279538565956e-06
2.442857142857143060e+00,-1.242038005162145820e-05,4.277533557634622271e-06
2.443650793650793851e+00,-1.128638721070621714e-05,5.204894271417041751e-06
2.444444444444444642e+00,-9.162618352373883549e-06,6.482106246265318831e-06
2.445238095238095433e+00,-6.331963247925828063e-06,8.475157901656332207e-06
2.446031746031746223e+00,-3.183877576469021725e-06,1.152039713112724524e-05
2.446825396825397014e+00,-1.441932546516645807e-07,1.576863625246492781e-05
2.447619047619047805e+00,2.402716474257396086e-06,2.108065820663325521e-05
2.448412698412698596e+00,4.183536069719306440e-06,2.699982896691615472e-05
2.449206349206349387e+00,5.082174986549436306e-06,3.279764054262591661e-05
2.450000000000000178e+00,5.151132355877704284e-06,3.757163844230744065e-05
2.450793650793650968e+00,4.584778045532878174e-06,4.037725582465483219e-05
2.451587301587301759e+00,3.661991585692589740e-06,4.038514263410071146e-05
2.452380952380952550e+00,2.674669439611735861e-06,3.705704909274355014e-05
2.453174603174603341e+00,1.861677553619015168e-06,3.031727542135679391e-05
2.453968253968254132e+00,1.363592786414602767e-06,2.067119839584326087e-05
2.454761904761904923e+00,1.204880306963338007e-06,9.209928526027182178e-06
2.455555555555555713e+00,1.301821986803290575e-06,-2.538997194536763452e-06
2.456349206349206504e+00,1.489724501951904888e-06,-1.290149001603235099e-05
2.457142857142857295e+00,1.561623574226789443e-06,-2.041236355780745560e-05
2.457936507936508086e+00,1.311183321747463796e-06,-2.412550928207792203e-05
2.458730158730158877e+00,5.738156330098365672e-07,-2.378059590654519104e-05
2.459523809523809668e+00,-7.379027696852267274e-07,-1.978530873182413735e-05
2.460317460317460458e+00,-2.606558230576745210e-06,-1.304249231386939422e-05
2.461111111111111249e+00,-4.892127756169054673e-06,-4.697540989404810442e-06
2.461904761904762040e+00,-7.328976784884836140e-06,4.112717145757243501e-06
2.462698412698412831e+00,-9.545758570183234828e-06,1.244980200808630449e-05
2.463492063492063622e+00,-1.111606237916748486e-05,1.966937684179617226e-05
2.464285714285714413e+00,-1.163998904777756959e-05,2.541504172586010884e-05
2.465079365079365203e+00,-1.084239989819352924e-05,2.952823598286294268e-05
2.465873015873015994e+00,-8.660021622314615955e-06,3.191872029091231841e-05
2.466666666666666785e+00,-5.286558462581118611e-06,3.245450855646632551e-05
2.467460317460317576e+00,-1.155622946080251091e-06,3.092222761496528697e-05
2.468253968253968367e+00,3.139445884378203986e-06,2.707898178845348774e-05
2.469047619047619158e+00,6.969982859882722623e-06,2.077449008006091555e-05
2.469841269841269948e+00,9.807840080719609600e-06,1.208671928272999174e-05
2.470634920634920739e+00,1.133605957610559249e-05,1.407689992204154420e-06
2.471428571428571530e+00,1.150541552646506236e-05,-1.055634805911659324e-05
2.472222222222222321e+00,1.052475435732455246e-05,-2.286470018665361832e-05
2.473015873015873112e+00,8.793108707700393825e-06,-3.446709504495043969e-05
2.473809523809523903e+00,6.797397532350378005e-06,-4.433410656787943220e-05
2.474603174603174693e+00,5.005894951621636428e-06,-5.156907897592198040e-05
2.475396825396825484e+00,3.782951809625358946e-06,-5.549694197264006543e-05
2.476190476190476275e+00,3.336975589894869822e-06,-5.573177690834422938e-05
2.476984126984127066e+00,3.697881400776981700e-06,-5.221773407791192634e-05
2.477777777777777857e+00,4.711053471281559655e-06,-4.523275760184227329e-05
2.478571428571428648e+00,6.038292548047080558e-06,-3.535206964727662359e-05
2.479365079365079438e+00,7.169852202231775952e-06,-2.338126056471819390e-05
2.480158730158730229e+00,7.464957517850615522e-06,-1.027522135387398740e-05
2.480952380952381020e+00,6.239387380409802474e-06,2.943296282448485428e-06
2.481746031746031811e+00,2.903185028593277025e-06,1.525818780858209175e-05
2.482539682539682602e+00,-2.873978489323430354e-06,2.572666292299388778e-05
2.483333333333333393e+00,-1.101298162235642203e-05,3.354180368172912739e-05
2.484126984126984183e+00,-2.093681419417248179e-05,3.809618653868647074e-05
2.484920634920634974e+00,-3.157283053950703673e-05,3.904751630465620824e-05
2.485714285714285765e+00,-4.145149370616024352e-05,3.637668277245216140e-05
2.486507936507936556e+00,-4.889094373754137635e-05,3.041778580199918126e-05
2.487301587301587347e+00,-5.224979332736069367e-05,2.183920610022425425e-05
2.488095238095238138e+00,-5.022324430727185141e-05,1.156991373828034889e-05
2.488888888888888928e+00,-4.214071657024689164e-05,6.879078425855302429e-07
2.489682539682539719e+00,-2.820237044006270743e-05,-9.698915560262042472e-06
2.490476190476190510e+00,-9.585791317088090933e-06,-1.855689454794007948e-05
2.491269841269841301e+00,1.162516362088865768e-05,-2.501666671557521010e-05
2.492063492063492092e+00,3.269755706433341867e-05,-2.846852546544198750e-05
2.492857142857142883e+00,5.065952066092674387e-05,-2.867518220311504512e-05
2.493650793650793673e+00,6.279763409663704327e-05,-2.587936908411738861e-05
2.494444444444444464e+00,6.715337159974602238e-05,-2.084602958882473750e-05
2.495238095238095255e+00,6.292100715901206062e-05,-1.477429441556265001e-05
2.496031746031746046e+00,5.065907908975342722e-05,-9.059320926508850508e-06
2.496825396825396837e+00,3.225882173474269846e-05,-4.955985618497124262e-06
2.497619047619047628e+00,1.065937949414878505e-05,-3.251060624993291380e-06
2.498412698412698418e+00,-1.065039504142217290e-05,-4.056169412061277561e-06
2.499206349206349209e+00,-2.825832833401110863e-05,-6.789883067819943647e-06
2.500000000000000000e+00,-3.946174355885593963e-05,-1.034799597799396265e-05
2.500793650793650791e+00,-4.276719342326382092e-05,-1.339831809290864283e-05
2.501587301587301582e+00,-3.813567390216455414e-05,-1.470557646030542316e-05
2.502380952380952372e+00,-2.691355998581807641e-05,-1.340213287654210046e-05
2.503174603174603163e+00,-1.147669405118932655e-05,-9.158507369107615122e-06
2.503968253968253954e+00,5.308561704611574177e-06,-2.246919686309594015e-06
2.504761904761904745e+00,2.066664067694029742e-05,6.489995077870108185e-06
2.505555555555555536e+00,3.240365810086734091e-05,1.575406283587309661e-05
2.506349206349206327e+00,3.921565888893951241e-05,2.398356432143823269e-05
2.507142857142857117e+00,4.077889789730587932e-05,2.961133442701057117e-05
2.507936507936507908e+00,3.764272106122824624e-05,3.136305945671432992e-05
2.508730158730158699e+00,3.098303828381557555e-05,2.855033093555110773e-05
2.509523809523809490e+00,2.228446632055758618e-05,2.129573616270946440e-05
2.510317460317460281e+00,1.301051245767752892e-05,1.062209513768999553e-05
2.511111111111111072e+00,4.312381747632333346e-06,-1.644068270036191337e-06
2.511904761904761862e+00,-3.172480655698215965e-06,-1.316334495407233497e-05
2.512698412698412653e+00,-9.381510074168282365e-06,-2.152830238861998065e-05
2.513492063492063444e+00,-1.471790280914553854e-05,-2.478330192338608253e-05
2.514285714285714235e+00,-1.978886407920258593e-05,-2.191394441857556855e-05
2.515079365079365026e+00,-2.506685213785578872e-05,-1.318452040356612902e-05
2.515873015873015817e+00,-3.058828043798699322e-05,-2.079023656257121634e-07
2.516666666666666607e+00,-3.580079240458316218e-05,1.431732754363338051e-05
2.517460317460317398e+00,-3.962340688897632529e-05,2.717301518535551841e-05
2.518253968253968189e+00,-4.071342135687562759e-05,3.535875766993928313e-05
2.519047619047618980e+00,-3.786635930404991170e-05,3.680640124658029311e-05
2.519841269841269771e+00,-3.042958538354656074e-05,3.088246750175334019e-05
2.520634920634920562e+00,-1.859787753340515871e-05,1.855338881520348344e-05
2.521428571428571352e+00,-3.488037045207685192e-06,2.182390196691920958e-06
2.522222222222222143e+00,1.304259789874517561e-05,-1.498331128204308034e-05
2.523015873015872934e+00,2.878357893061961860e-05,-2.951236067036309038e-05
2.523809523809523725e+00,4.164635428156317990e-05,-3.851934032842448081e-05
2.524603174603174516e+00,5.008512413841307616e-05,-4.026207981469565305e-05
2.525396825396825307e+00,5.334985015457723685e-05,-3.447156532971965817e-05
2.526190476190476097e+00,5.152288490944106480e-05,-2.234833364369225392e-05
2.526984126984126888e+00,4.536596417735474737e-05,-6.250925180292128127e-06
2.527777777777777679e+00,3.606005102532944609e-05,1.082177839439532347e-05
2.528571428571428470e+00,2.493653665536967875e-05,2.582177091078511778e-05
2.529365079365079261e+00,1.327342803030598226e-05,3.619730423410556547e-05
2.530158730158730052e+00,2.181713824600669147e-06,4.030664286872330570e-05
2.530952380952380842e+00,-7.439036859577773278e-06,3.764894388708521419e-05
2.531746031746031633e+00,-1.491912104638945508e-05,2.889260740353301920e-05
2.532539682539682424e+00,-1.984651090680804319e-05,1.571268915610460050e-05
2.533333333333333215e+00,-2.211178590799892248e-05,4.767348810137938575e-07
2.534126984126984006e+00,-2.194947742633765331e-05,-1.416533668680666338e-05
2.534920634920634797e+00,-1.994031897570029658e-05,-2.572815489012176358e-05
2.535714285714285587e+00,-1.694334685777974898e-05,-3.231427524947309187e-05
2.536507936507936378e+00,-1.394799907228724680e-05,-3.294540515953917574e-05
2.537301587301587169e+00,-1.186592731143937107e-05,-2.772605185594825838e-05
2.538095238095237960e+00,-1.130979076546858622e-05,-1.778204066896373788e-05
2.538888888888888751e+00,-1.242326686544878400e-05,-4.971451875054661349e-06
2.539682539682539542e+00,-1.482550716141950896e-05,8.560275138456144433e-06
2.540476190476190332e+00,-1.770759977676567598e-05,2.085447206483661981e-05
2.541269841269841123e+00,-2.006966630528710219e-05,3.050928523241690460e-05
2.542063492063491914e+00,-2.103233434091061362e-05,3.685397617262385525e-05
2.542857142857142705e+00,-2.012155272061952010e-05,3.990290683139758996e-05
2.543650793650793496e+00,-1.742793058968512550e-05,4.012934767581846158e-05
2.544444444444444287e+00,-1.358028292548956389e-05,3.814414465038161076e-05
2.545238095238095077e+00,-9.534660726217000101e-06,3.438467158212552444e-05
2.546031746031745868e+00,-6.244960799502291515e-06,2.891577399336686202e-05
2.546825396825396659e+00,-4.326975655372519716e-06,2.141611614094181712e-05
2.547619047619047450e+00,-3.837433985101586172e-06,1.137121517917191526e-05
2.548412698412698241e+00,-4.256963931497297903e-06,-1.573695956507797957e-06
2.549206349206349032e+00,-4.695729867096072828e-06,-1.721361713176659724e-05
2.549999999999999822e+00,-4.251672986740796738e-06,-3.448681723482816479e-05
2.550793650793650613e+00,-2.380450202448066773e-06,-5.141887700682566968e-05
2.551587301587301404e+00,8.766332674724762234e-07,-6.537920695595447469e-05
2.552380952380952195e+00,4.902019799611087860e-06,-7.361990763739123110e-05
2.553174603174602986e+00,8.742679886945650713e-06,-7.396492136992302330e-05
2.553968253968253777e+00,1.148202142538998883e-05,-6.545254436278154578e-05
2.554761904761904567e+00,1.259450149101175923e-05,-4.873232391044391115e-05
2.555555555555555358e+00,1.214604505908566587e-05,-2.608068999350134486e-05
2.556349206349206149e+00,1.076556877276218111e-05,-1.006150491850329256e-06
2.557142857142856940e+00,9.400950980012593605e-06,2.247030387709956980e-05
2.557936507936507731e+00,8.953570883273344802e-06,4.068342121103312402e-05
2.558730158730158522e+00,9.929083398457057774e-06,5.112097292553269197e-05
2.559523809523809312e+00,1.223307600497867417e-05,5.294468937054814720e-05
2.560317460317460103e+00,1.518341290719298681e-05,4.709903066736159199e-05
2.561111111111110894e+00,1.772931507099232245e-05,3.598250042838358913e-05
2.561904761904761685e+00,1.879302413069072273e-05,2.277818978036641085e-05
2.562698412698412920e+00,1.761202871906361280e-05,1.063329589178981241e-05
2.563492063492063711e+00,1.397074657329260773e-05,1.909873428755095868e-06
2.564285714285714501e+00,8.260411359926371085e-06,-2.304115709000020554e-06
2.565079365079365292e+00,1.368291584114267134e-06,-2.315591567338804620e-06
2.565873015873016083e+00,-5.554020342487215882e-06,4.265509117335086026e-07
2.566666666666666874e+00,-1.137012673694783176e-05,3.867473991557525576e-06
2.567460317460317665e+00,-1.521210975369953288e-05,6.006442400435117715e-06
2.568253968253968456e+00,-1.664881320828797787e-05,5.493101458861855146e-06
2.569047619047619246e+00,-1.573725576228623648e-05,1.991152241259167480e-06
2.569841269841270037e+00,-1.295778537806931605e-05,-3.789625505737659163e-06
2.570634920634920828e+00,-9.062412320231633497e-06,-1.038496923791128865e-05
2.571428571428571619e+00,-4.883029157002670989e-06,-1.607601947492059779e-05
2.572222222222222410e+00,-1.149447999487670650e-06,-1.941936976184380220e-05
2.573015873015873201e+00,1.641824883562803893e-06,-1.963628418399767378e-05
2.573809523809523991e+00,3.284998802445476639e-06,-1.675915671390393533e-05
2.574603174603174782e+00,3.847509326888625822e-06,-1.152947997970719015e-05
2.575396825396825573e+00,3.596185884566728584e-06,-5.122678312757500070e-06
2.576190476190476364e+00,2.896438638534140350e-06,1.187411044198438741e-06
2.576984126984127155e+00,2.113237086019236548e-06,6.321154312380802301e-06
2.577777777777777946e+00,1.533953832200205209e-06,9.578918567826129026e-06
2.578571428571428736e+00,1.322716448218491945e-06,1.070266685824579868e-05
2.579365079365079527e+00,1.508075633572764132e-06,9.832991976084580721e-06
2.580158730158730318e+00,2.000571385952728916e-06,7.400982038654997254e-06
2.580952380952381109e+00,2.632441089695087372e-06,3.997322756672468564e-06
2.581746031746031900e+00,3.208252414330282095e-06,2.529337011079809853e-07
2.582539682539682691e+00,3.554227091464994737e-06,-3.248669396297429126e-06
2.583333333333333481e+00,3.556199198403051089e-06,-6.024111847779415093e-06
2.584126984126984272e+00,3.180523240804053968e-06,-7.719690169072993262e-06
2.584920634920635063e+00,2.476846770737655354e-06,-8.134493978233438649e-06
2.585714285714285854e+00,1.564740064086542086e-06,-7.245868528415276245e-06
2.586507936507936645e+00,6.075144926373109323e-07,-5.231132870985751321e-06
2.587301587301587436e+00,-2.223762625987687845e-07,-2.469442045448373895e-06
2.588095238095238226e+00,-7.800700440110984846e-07,4.916300797110624915e-07
2.588888888888889017e+00,-9.791858213859973643e-07,3.012143045361784824e-06
2.589682539682539808e+00,-8.093990883399592232e-07,4.475131920583223160e-06
2.590476190476190599e+00,-3.365103946457966466e-07,4.424860490847840397e-06
2.591269841269841390e+00,3.146149498554548259e-07,2.696441768333749647e-06
2.592063492063492181e+00,9.898402704914891750e-07,-5.062859562291415869e-07
2.592857142857142971e+00,1.541176666816852544e-06,-4.625513172033783847e-06
2.593650793650793762e+00,1.859344735978575572e-06,-8.873890779803414537e-06
2.594444444444444553e+00,1.895315978161532176e-06,-1.244416506972759752e-05
2.595238095238095344e+00,1.665321552997042910e-06,-1.473959294322557991e-05
2.596031746031746135e+00,1.238662369572430656e-06,-1.554613486222349022e-05
2.596825396825396925e+00,7.131579572796501133e-07,-1.508779768032666656e-05
2.597619047619047716e+00,1.868394796893584922e-07,-1.394902835234379979e-05
2.598412698412698507e+00,-2.652692109960382042e-07,-1.288968912596600450e-05
2.599206349206349298e+00,-6.036196013886033470e-07,-1.260505394591407300e-05
2.600000000000000089e+00,-8.248183408922365119e-07,-1.349551656772749062e-05
2.600793650793650880e+00,-9.531862026225782832e-07,-1.551073031560494284e-05
2.601587301587301670e+00,-1.027515295342451408e-06,-1.811795804106206692e-05
2.602380952380952461e+00,-1.087383177665851353e-06,-2.041229871088005366e-05
2.603174603174603252e+00,-1.162692836633625281e-06,-2.134391298258458549e-05
2.603968253968254043e+00,-1.268891566409140357e-06,-2.000035936397856536e-05
2.604761904761904834e+00,-1.408392876153513635e-06,-1.586644854166613047e-05
2.605555555555555625e+00,-1.576464419219931111e-06,-8.993589053565270567e-06
2.606349206349206415e+00,-1.768219468893906020e-06,-3.655042781346497218e-08
2.607142857142857206e+00,-1.983145944325479528e-06,9.853330577469421024e-06
2.607936507936507997e+00,-2.225012201195009411e-06,1.925869669053421310e-05
2.608730158730158788e+00,-2.497497440275464268e-06,2.680170980654290807e-05
2.609523809523809579e+00,-2.798179799946345276e-06,3.145241501543220673e-05
2.610317460317460370e+00,-3.114066303780033721e-06,3.275884326327286954e-05
2.611111111111111160e+00,-3.420485233655133627e-06,3.093324412787709014e-05
2.611904761904761951e+00,-3.683366559028756020e-06,2.677006269764671244e-05
2.612698412698412742e+00,-3.864115228154097907e-06,2.142485868945700648e-05
2.613492063492063533e+00,-3.926335114038344443e-06,1.612595104307248974e-05
2.614285714285714324e+00,-3.843657311715926628e-06,1.190341497716300201e-05
2.615079365079365115e+00,-3.607456324767720743e-06,9.402185082288161714e-06
2.615873015873015905e+00,-3.232657625175292096e-06,8.812501391906254501e-06
2.616666666666666696e+00,-2.759635986879413010e-06,9.917683867051832445e-06
2.617460317460317487e+00,-2.250618190738241959e-06,1.223251129674546913e-05
2.618253968253968278e+00,-1.780133033405323883e-06,1.518617589553613108e-05
2.619047619047619069e+00,-1.420774966709256736e-06,1.829446929077009791e-05
2.619841269841269860e+00,-1.227283692890854846e-06,2.126986008705628958e-05
2.620634920634920650e+00,-1.222832763603787441e-06,2.403580276672467606e-05
2.621428571428571441e+00,-1.390947871748798941e-06,2.664026248401311079e-05
2.622222222222222232e+00,-1.674900028123557270e-06,2.909773704261012334e-05
2.623015873015873023e+00,-1.984527181402986130e-06,3.121963033321752048e-05
2.623809523809523814e+00,-2.208948412744089222e-06,3.250688708930310700e-05
2.624603174603174605e+00,-2.232965416112708703e-06,3.216636419792816650e-05
2.625396825396825395e+00,-1.955105729562679388e-06,2.927443817402373494e-05
2.626190476190476186e+00,-1.305687186355658067e-06,2.306105473733680293e-05
2.626984126984126977e+00,-2.632918644220998201e-07,1.324185861586176510e-05
2.627777777777777768e+00,1.132504661310451581e-06,2.968814092610449909e-07
2.628571428571428559e+00,2.775093337083924221e-06,-1.441180994249926714e-05
2.629365079365079350e+00,4.494940674311840154e-06,-2.876675773438113921e-05
2.630158730158730140e+00,6.076640252853943344e-06,-4.028893907583047532e-05
2.630952380952380931e+00,7.289086407835298729e-06,-4.673389702925870168e-05
2.631746031746031722e+00,7.924925226018525410e-06,-4.673954607934102169e-05
2.632539682539682513e+00,7.841920073070638854e-06,-4.032841349755573253e-05
2.633333333333333304e+00,6.997663425789697000e-06,-2.908398867561954893e-05
2.634126984126984095e+00,5.470417752341860151e-06,-1.590411203576704217e-05
2.634920634920634885e+00,3.461563140376330535e-06,-4.362724841699713136e-06
2.635714285714285676e+00,1.277744767509854475e-06,2.161796139751396858e-06
2.636507936507936467e+00,-7.072492749452459910e-07,1.360864458946577314e-06
2.637301587301587258e+00,-2.108995331108943422e-06,-7.354173061687402218e-06
2.638095238095238049e+00,-2.602237562923335300e-06,-2.259009860329508346e-05
2.638888888888888840e+00,-1.993549192663654749e-06,-4.117284376694364855e-05
2.639682539682539630e+00,-2.807018467848278452e-07,-5.878673362191802514e-05
2.640476190476190421e+00,2.319266227963242863e-06,-7.092367404882556981e-05
2.641269841269841212e+00,5.386136991413001424e-06,-7.392342114933223571e-05
2.642063492063492003e+00,8.358710872614727130e-06,-6.584340225626449810e-05
2.642857142857142794e+00,1.063308191892558143e-05,-4.693341933797373427e-05
2.643650793650793585e+00,1.167802550073211303e-05,-1.960379910447565682e-05
2.644444444444444375e+00,1.114452249546055188e-05,1.208043518093671311e-05
2.645238095238095166e+00,8.947538871489703167e-06,4.323061668239214076e-05
2.646031746031745957e+00,5.303366600278716915e-06,6.908660752731172431e-05
2.646825396825396748e+00,7.133938439386621409e-07,8.588885727225755080e-05
2.647619047619047539e+00,-4.105957711627749421e-06,9.151080665201301778e-05
2.648412698412698330e+00,-8.337398599883548219e-06,8.575402865062698864e-05
2.649206349206349120e+00,-1.120128994938678794e-05,7.027647787572187952e-05
2.649999999999999911e+00,-1.209186565807891377e-05,4.818809031900558409e-05
2.650793650793650702e+00,-1.068438636803371554e-05,2.340153194783038055e-05
2.651587301587301493e+00,-6.994268029807428293e-06,-1.352810693153769595e-07
2.652380952380952284e+00,-1.381998928321751172e-06,-1.917760654882609813e-05
2.653174603174603075e+00,5.490228980452468967e-06,-3.174577299724849446e-05
2.653968253968253865e+00,1.273731989346861426e-05,-3.738832904002757374e-05
2.654761904761904656e+00,1.935192727126418586e-05,-3.708306589081791159e-05
2.655555555555555447e+00,2.431713257166139653e-05,-3.280313860175821473e-05
2.656349206349206238e+00,2.672663172030833854e-05,-2.687204912829205429e-05
2.657142857142857029e+00,2.591101620680852545e-05,-2.129361192179561474e-05
2.657936507936507819e+00,2.156557361327831357e-05,-1.724519088045593372e-05
2.658730158730158610e+00,1.386370860791720234e-05,-1.486705134409023953e-05
2.659523809523809401e+00,3.524321004987889694e-06,-1.338862169933343543e-05
2.660317460317460192e+00,-8.208253805064533610e-06,-1.153020812117401305e-05
2.661111111111110983e+00,-1.970450646174220713e-05,-8.036161095967526174e-06
2.661904761904761774e+00,-2.921157521034541796e-05,-2.163075496126792505e-06
2.662698412698412564e+00,-3.519353136092116493e-05,6.021801290974144545e-06
2.663492063492063355e+00,-3.666912990580919736e-05,1.560031396141109525e-05
2.664285714285714146e+00,-3.345293745993150496e-05,2.500910795756250689e-05
2.665079365079364937e+00,-2.622532820408225590e-05,3.242380092576345300e-05
2.665873015873015728e+00,-1.640362116277385465e-05,3.622522328939135731e-05
2.666666666666666519e+00,-5.843833995556489242e-06,3.543703425860845519e-05
2.667460317460317309e+00,3.551411117617453545e-06,3.002205109795219552e-05
2.668253968253968100e+00,1.022392477502142426e-05,2.094648829379997169e-05
2.669047619047618891e+00,1.326339444320007024e-05,9.976857420657505356e-06
2.669841269841269682e+00,1.256211057713817237e-05,-7.460508591811346930e-07
2.670634920634920473e+00,8.791748780688077430e-06,-9.238898929885424290e-06
2.671428571428571264e+00,3.208259298350427911e-06,-1.416414802816761320e-05
2.672222222222222054e+00,-2.670977184473427633e-06,-1.514652159466390775e-05
2.673015873015872845e+00,-7.439415718200524812e-06,-1.284312241049353951e-05
2.673809523809523636e+00,-1.012788623940228369e-05,-8.751875209347714834e-06
2.674603174603174427e+00,-1.040155840444372494e-05,-4.797906083453875391e-06
2.675396825396825218e+00,-8.582229957460805304e-06,-2.794786852567338926e-06
2.676190476190476009e+00,-5.503808371272726519e-06,-3.929218261273432049e-06
2.676984126984126799e+00,-2.256726460437730727e-06,-8.430958553320215025e-06
2.677777777777777590e+00,9.715461318407801850e-08,-1.553730265163928527e-05
2.678571428571428381e+00,7.619021517020691154e-07,-2.375449125600070536e-05
2.679365079365079172e+00,-6.499763287025760524e-07,-3.130683599376512768e-05
2.680158730158729963e+00,-4.076807054748229144e-06,-3.660606976993820079e-05
2.680952380952380754e+00,-9.045985450911026954e-06,-3.859565902983856005e-05
2.681746031746031544e+00,-1.476173334944133996e-05,-3.690300479563844374e-05
2.682539682539682335e+00,-2.022505319078788500e-05,-3.181206883146809244e-05
2.683333333333333126e+00,-2.438150490688921948e-05,-2.411253999316301369e-05
2.684126984126983917e+00,-2.629125015522716649e-05,-1.488951518399848502e-05
2.684920634920634708e+00,-2.530156727718170458e-05,-5.307830085235060114e-06
2.685714285714285499e+00,-2.118799751918490416e-05,3.570817288512248897e-06
2.686507936507936289e+00,-1.422789622159283362e-05,1.091921886888722195e-05
2.687301587301587080e+00,-5.181440433043449068e-06,1.622527213028310532e-05
2.688095238095238315e+00,4.824639261198609269e-06,1.933431835895021639e-05
2.688888888888889106e+00,1.449234984770649347e-05,2.046205537220018060e-05
2.689682539682539897e+00,2.258801795276989396e-05,2.016986972842839209e-05
2.690476190476190688e+00,2.816635000342140166e-05,1.927867959040954852e-05
2.691269841269841478e+00,3.073053772997069120e-05,1.870188626123466419e-05
2.692063492063492269e+00,3.029061859709832586e-05,1.921010020649282346e-05
2.692857142857143060e+00,2.730905853187586807e-05,2.118582111544900891e-05
2.693650793650793851e+00,2.255259196591252071e-05,2.445636889458358218e-05
2.694444444444444642e+00,1.689294987560398812e-05,2.828418935979648140e-05
2.695238095238095433e+00,1.111012320506451675e-05,3.154395650833835416e-05
2.696031746031746223e+00,5.749188332355676305e-06,3.304717519161845226e-05
2.696825396825397014e+00,1.067110322547538490e-06,3.191565985740622559e-05
2.697619047619047805e+00,-2.919026312601645460e-06,2.787753127687261066e-05
2.698412698412698596e+00,-6.302865216836227628e-06,2.137624462750387512e-05
2.699206349206349387e+00,-9.129021139495180429e-06,1.344442530546680936e-05
2.700000000000000178e+00,-1.126745611528544784e-05,5.380447322220572998e-06
2.700793650793650968e+00,-1.237666035398417445e-05,-1.657410622231938793e-06
2.701587301587301759e+00,-1.197744738557890989e-05,-6.990379673633372569e-06
2.702380952380952550e+00,-9.615584164331990796e-06,-1.057042973653558393e-05
2.703174603174603341e+00,-5.054497269580364738e-06,-1.290114484810997799e-05
2.703968253968254132e+00,1.575082852265534680e-06,-1.477948680788827478e-05
2.704761904761904923e+00,9.726250583677669922e-06,-1.696727330105105637e-05
2.705555555555555713e+00,1.850693344585475607e-05,-1.990000458218540953e-05
2.706349206349206504e+00,2.684584095478182223e-05,-2.350308741986983392e-05
2.707142857142857295e+00,3.369803880804591689e-05,-2.715035181047455743e-05
2.707936507936508086e+00,3.822913425757725348e-05,-2.977853813192099750e-05
2.708730158730158877e+00,3.993484713915610655e-05,-3.014669824378568596e-05
2.709523809523809668e+00,3.868226793884288603e-05,-2.719078769093670304e-05
2.710317460317460458e+00,3.468462736464752500e-05,-2.038582182955943817e-05
2.711111111111111249e+00,2.843260263953969577e-05,-1.001257599716017365e-05
2.711904761904762040e+00,2.060321172664564824e-05,2.758915085305030907e-06
2.712698412698412831e+00,1.196129014844304184e-05,1.601615965720551364e-05
2.713492063492063622e+00,3.265482323263292408e-06,2.747126825445743011e-05
2.714285714285714413e+00,-4.809954689709174911e-06,3.497431434952159965e-05
2.715079365079365203e+00,-1.172898062189982064e-05,3.704408303188160196e-05
2.715873015873015994e+00,-1.712122565242864521e-05,3.326376935042484197e-05
2.716666666666666785e+00,-2.078820528223757725e-05,2.441500957510530200e-05
2.717460317460317576e+00,-2.269663763409425828e-05,1.229781369729798984e-05
2.718253968253968367e+00,-2.296493171206440243e-05,-7.163985765321174848e-07
2.719047619047619158e+00,-2.184370892077187225e-05,-1.226310413802142563e-05
2.719841269841269948e+00,-1.968735462028740578e-05,-2.051933404316101602e-05
2.720634920634920739e+00,-1.691379330235285382e-05,-2.454842445888346286e-05
2.721428571428571530e+00,-1.395352117511523941e-05,-2.438888295187275655e-05
2.722222222222222321e+00,-1.119394772508045701e-05,-2.090893175673793790e-05
2.723015873015873112e+00,-8.929010450886445369e-06,-1.550520073433124803e-05
2.723809523809523903e+00,-7.325582862466606404e-06,-9.741895831329866473e-06
2.724603174603174693e+00,-6.416435537232392534e-06,-5.017024054900411908e-06
2.725396825396825484e+00,-6.123577373764918283e-06,-2.316847374062636922e-06
2.726190476190476275e+00,-6.306261777752769004e-06,-2.086697735585967871e-06
2.726984126984127066e+00,-6.818052039751919804e-06,-4.214365922888754919e-06
2.727777777777777857e+00,-7.552299547515254206e-06,-8.100577321655790057e-06
2.728571428571428648e+00,-8.459149111773338532e-06,-1.278448593965211889e-05
2.729365079365079438e+00,-9.528986382065709953e-06,-1.709895919026790432e-05
2.730158730158730229e+00,-1.075124918956284164e-05,-1.984303899640665544e-05
2.730952380952381020e+00,-1.206668791604477058e-05,-1.996672676291048087e-05
2.731746031746031811e+00,-1.333204723061041262e-05,-1.675868721332171777e-05
2.732539682539682602e+00,-1.431043058966641771e-05,-1.001273895746163597e-05
2.733333333333333393e+00,-1.469276821513889282e-05,-1.356822185570823796e-07
2.734126984126984183e+00,-1.414949515748000163e-05,1.184091794141089670e-05
2.734920634920634974e+00,-1.240682629465656937e-05,2.436656752945633227e-05
2.735714285714285765e+00,-9.335823284892168596e-06,3.559270046633138254e-05
2.736507936507936556e+00,-5.033537163698566268e-06,4.368129898850382688e-05
2.737301587301587347e+00,1.313750687244733202e-07,4.715159415069391851e-05
2.738095238095238138e+00,5.533707755702343971e-06,4.519706238200078412e-05
2.738888888888888928e+00,1.037835514481652403e-05,3.789790524404639633e-05
2.739682539682539719e+00,1.384797156601628823e-05,2.626612108799823925e-05
2.740476190476190510e+00,1.527981177394421139e-05,1.209292554465457626e-05
2.741269841269841301e+00,1.432563763873354414e-05,-2.384421903877806005e-06
2.742063492063492092e+00,1.104599268077443409e-05,-1.492894399398948201e-05
2.742857142857142883e+00,5.902288296503201217e-06,-2.375831138145963366e-05
2.743650793650793673e+00,-3.616581802228050679e-07,-2.789373873396664338e-05
2.744444444444444464e+00,-6.916547014028041290e-06,-2.731815833343889771e-05
2.745238095238095255e+00,-1.305272275961895880e-05,-2.291317196594733023e-05
2.746031746031746046e+00,-1.831043844254010586e-05,-1.620310722969290916e-05
2.746825396825396837e+00,-2.248048990204305739e-05,-8.978088125401627106e-06
2.747619047619047628e+00,-2.548110064994836603e-05,-2.889212265896557831e-06
2.748412698412698418e+00,-2.717826593777589986e-05,8.914505723488208886e-07
2.749206349206349209e+00,-2.724559585324207669e-05,1.873265834807509193e-06
2.750000000000000000e+00,-2.514254020218142279e-05,2.754732041651430954e-07
2.750793650793650791e+00,-2.023760633383418092e-05,-3.109071137449379170e-06
2.751587301587301582e+00,-1.204142954918076780e-05,-7.162437365283079406e-06
2.752380952380952372e+00,-4.699866819058058827e-07,-1.072373498711244563e-05
2.753174603174603163e+00,1.395366170220668462e-05,-1.282796123821699802e-05
2.753968253968253954e+00,3.003176339701681220e-05,-1.285425177456712972e-05
2.754761904761904745e+00,4.599471124921081369e-05,-1.057745253637805932e-05
2.755555555555555536e+00,5.976909034148715624e-05,-6.147853348911248003e-06
2.756349206349206327e+00,6.936409407212261837e-05,-3.161821220363934698e-08
2.757142857142857117e+00,7.329166457690827535e-05,7.066129731635790926e-06
2.757936507936507908e+00,7.091172141264199852e-05,1.428652122718053867e-05
2.758730158730158699e+00,6.259909799435682553e-05,2.070662742745161229e-05
2.759523809523809490e+00,4.967318984198504486e-05,2.543045590186438854e-05
2.760317460317460281e+00,3.410484998277551989e-05,2.768019506357080121e-05
2.761111111111111072e+00,1.808683261428868167e-05,2.688915480117665447e-05
2.761904761904761862e+00,3.591530743879200369e-06,2.279595539657979270e-05
2.762698412698412653e+00,-7.969760557274204344e-06,1.553103288395220479e-05
2.763492063492063444e+00,-1.591736472438870151e-05,5.673834957662813724e-06
2.764285714285714235e+00,-2.029328401819667385e-05,-5.749765239459561322e-06
2.765079365079365026e+00,-2.170947159259041639e-05,-1.735445274497201957e-05
2.765873015873015817e+00,-2.111904492571493473e-05,-2.756800797036024995e-05
2.766666666666666607e+00,-1.957687099569451413e-05,-3.486126522379502429e-05
2.767460317460317398e+00,-1.804024126960201106e-05,-3.798931689707079799e-05
2.768253968253968189e+00,-1.723665828301788091e-05,-3.619779937283546157e-05
2.769047619047618980e+00,-1.760218550860988930e-05,-2.935989179776864227e-05
2.769841269841269771e+00,-1.927616194833270080e-05,-1.802471967808514037e-05
2.770634920634920562e+00,-2.212969209066044425e-05,-3.373657717312756565e-06
2.771428571428571352e+00,-2.580689280216241701e-05,1.290291600527936511e-05
2.772222222222222143e+00,-2.976742532879538192e-05,2.878529014184168399e-05
2.773015873015872934e+00,-3.333173878459443057e-05,4.213956640051454773e-05
2.773809523809523725e+00,-3.574014056772855898e-05,5.095893839333993713e-05
2.774603174603174516e+00,-3.623764940860326004e-05,5.362799800797842361e-05
2.775396825396825307e+00,-3.418784073467999766e-05,4.919676105995571231e-05
2.776190476190476097e+00,-2.920538043587489292e-05,3.762771514873392362e-05
2.776984126984126888e+00,-2.128495316273751461e-05,1.995526374978055174e-05
2.777777777777777679e+00,-1.089714360183420581e-05,-1.712888574788918436e-06
2.778571428571428470e+00,9.806240435347139570e-07,-2.440570665344432157e-05
2.779365079365079261e+00,1.292775393206724032e-05,-4.471591874784730595e-05
2.780158730158730052e+00,2.325785814927360036e-05,-5.938523529723146175e-05
2.780952380952380842e+00,3.030499533358879999e-05,-6.593117692470476152e-05
2.781746031746031633e+00,3.277743154667280131e-05,-6.317201411227840074e-05
2.782539682539682424e+00,3.009966630417639519e-05,-5.152131841222250231e-05
2.783333333333333215e+00,2.264175724898320337e-05,-3.297383273277962762e-05
2.784126984126984006e+00,1.174513814338353946e-05,-1.076993277939264594e-05
2.784920634920634797e+00,-4.987255727125950520e-07,1.120893929159822450e-05
2.785714285714285587e+00,-1.168706419875134133e-05,2.920154152561399685e-05
2.786507936507936378e+00,-1.965732280767367671e-05,4.032510705471350744e-05
2.787301587301587169e+00,-2.299980786625258433e-05,4.315580548980144831e-05
2.788095238095237960e+00,-2.138092955368163926e-05,3.799088772347417113e-05
2.788888888888888751e+00,-1.557919023829527845e-05,2.673039782812868556e-05
2.789682539682539542e+00,-7.224081395179099569e-06,1.241128675507524320e-05
2.790476190476190332e+00,1.679812334214359529e-06,-1.492805353230549625e-06
2.791269841269841123e+00,9.298112477644795588e-06,-1.184578768506646694e-05
2.792063492063491914e+00,1.442205386188658491e-05,-1.652770215312297376e-05
2.792857142857142705e+00,1.670997643033774035e-05,-1.487198868842305454e-05
2.793650793650793496e+00,1.665859429020036256e-05,-7.766877760427818472e-06
2.794444444444444287e+00,1.532461597084787988e-05,2.601728135127129165e-06
2.795238095238095077e+00,1.388368532051999083e-05,1.330676307134796346e-05
2.796031746031745868e+00,1.315713151473248737e-05,2.140444080056711586e-05
2.796825396825396659e+00,1.324985361262395819e-05,2.465302565398470703e-05
2.797619047619047450e+00,1.341945472665823216e-05,2.205181149923636860e-05
2.798412698412698241e+00,1.223811771600284950e-05,1.406742588467369069e-05
2.799206349206349032e+00,8.026590881839184132e-06,2.490520278636244344e-06
2.799999999999999822e+00,-5.446266231228340240e-07,-1.003801929776701913e-05
2.800793650793650613e+00,-1.385540072672367004e-05,-2.070190768825901155e-05
2.801587301587301404e+00,-3.092872811476126592e-05,-2.720333717866737223e-05
2.802380952380952195e+00,-4.937378375710568693e-05,-2.829861603027194873e-05
2.803174603174602986e+00,-6.574406047150848308e-05,-2.405316032882035441e-05
2.803968253968253777e+00,-7.624771959901319315e-05,-1.577260712318232901e-05
2.804761904761904567e+00,-7.763347461334438727e-05,-5.645356571342011037e-06
2.805555555555555358e+00,-6.802111147158585943e-05,3.806293612748735620e-06
2.806349206349206149e+00,-4.746369206333150392e-05,1.033390376425353471e-05
2.807142857142856940e+00,-1.809800934185511119e-05,1.249160674262470551e-05
2.807936507936507731e+00,1.616640244598083133e-05,9.968227737194974115e-06
2.808730158730158522e+00,5.036762428137289422e-05,3.644629304791171345e-06
2.809523809523809312e+00,7.947070400454182002e-05,-4.646859145780910865e-06
2.810317460317460103e+00,9.938134946423202339e-05,-1.261511471478390649e-05
2.811111111111110894e+00,1.077475357719636973e-04,-1.813547636881314833e-05
2.811904761904761685e+00,1.043516812349828981e-04,-1.983236631803449548e-05
2.812698412698412920e+00,9.100681602806958218e-05,-1.743729464135724064e-05
2.813492063492063711e+00,7.100620839849307374e-05,-1.180239098947934536e-05
2.814285714285714501e+00,4.829016877339630708e-05,-4.566896541506603951e-06
2.815079365079365292e+00,2.655111694780418701e-05,2.403449861813713282e-06
2.815873015873016083e+00,8.491358053043191812e-06,7.612190104401329543e-06
2.816666666666666874e+00,-4.606065776446932046e-06,1.037427832746275758e-05
2.817460317460317665e+00,-1.291413140950012516e-05,1.098038988900885319e-05
2.818253968253968456e+00,-1.772107093288444264e-05,1.055234075116643592e-05
2.819047619047619246e+00,-2.082055778686159106e-05,1.064695977622456672e-05
2.819841269841270037e+00,-2.381377055343696225e-05,1.272712547451952465e-05
2.820634920634920828e+00,-2.753162569519309016e-05,1.764565927047183732e-05
2.821428571428571619e+00,-3.175173722676703466e-05,2.528325388651420707e-05
2.822222222222222410e+00,-3.529453384956348451e-05,3.444890414768867729e-05
2.823015873015873201e+00,-3.646416508866684637e-05,4.309059414978888694e-05
2.823809523809523991e+00,-3.369075298490617525e-05,4.878031888626716819e-05
2.824603174603174782e+00,-2.616573250550802295e-05,4.935073156370983841e-05
2.825396825396825573e+00,-1.426282209495967980e-05,4.350277650902792653e-05
2.826190476190476364e+00,3.963422077548930998e-07,3.120193045659735786e-05
2.826984126984127155e+00,1.526352235082584826e-05,1.374186271174058678e-05
2.827777777777777946e+00,2.748571161789281869e-05,-6.539634694083646088e-06
2.828571428571428736e+00,3.464677172917660921e-05,-2.679518694507715886e-05
2.829365079365079527e+00,3.540488369457199454e-05,-4.428356934994325878e-05
2.830158730158730318e+00,2.982797626837828365e-05,-5.689532489581246630e-05
2.830952380952381109e+00,1.932342209515242753e-05,-6.347408045226396000e-05
2.831746031746031900e+00,6.191703933388219045e-06,-6.389500082988834714e-05
2.832539682539682691e+00,-7.042432056469423050e-06,-5.892336166419670360e-05
2.833333333333333481e+00,-1.830227254830772286e-05,-4.991798711251529280e-05
2.834126984126984272e+00,-2.643191961715364208e-05,-3.847130032877920503e-05
2.834920634920635063e+00,-3.134939813282599738e-05,-2.608634489630423881e-05
2.835714285714285854e+00,-3.386833691627026140e-05,-1.397133151872048257e-05
2.836507936507936645e+00,-3.527081552595271027e-05,-2.982999165462971591e-06
2.837301587301587436e+00,-3.677390811678478850e-05,6.311650778779681994e-06
2.838095238095238226e+00,-3.905362278924020278e-05,1.353090551784389206e-05
2.838888888888889017e+00,-4.197127924793091268e-05,1.841158251121808792e-05
2.839682539682539808e+00,-4.458774837635908454e-05,2.082276370234056883e-05
2.840476190476190599e+00,-4.545915244643131229e-05,2.084662168138373705e-05
2.841269841269841390e+00,-4.311190026160975413e-05,1.887063477120301202e-05
2.842063492063492181e+00,-3.653541373234192634e-05,1.562440909940202718e-05
2.842857142857142971e+00,-2.553440524477193651e-05,1.211071660665890633e-05
2.843650793650793762e+00,-1.084308896473941549e-05,9.415085970909746845e-06
2.844444444444444553e+00,6.010734658797053814e-06,8.426684591917539804e-06
2.845238095238095344e+00,2.302771820493764869e-05,9.553187450923981096e-06
2.846031746031746135e+00,3.813670179105529739e-05,1.253696792382972319e-05
2.846825396825396925e+00,4.955989500603013524e-05,1.645803939000265012e-05
2.847619047619047716e+00,5.606506361208612478e-05,1.994783868998818325e-05
2.848412698412698507e+00,5.708103766338045527e-05,2.156573517182706906e-05
2.849206349206349298e+00,5.270123724956436392e-05,2.023362020225928095e-05
2.850000000000000089e+00,4.361857836095309134e-05,1.559812474644539743e-05
2.850793650793650880e+00,3.102232128063562916e-05,8.203187411457676302e-06
2.851587301587301670e+00,1.646382098969865357e-05,-5.920113700679519065e-07
2.852380952380952461e+00,1.686990402986583342e-06,-8.938767800539127104e-06
2.853174603174603252e+00,-1.157306066814168600e-05,-1.498372960138627531e-05
2.853968253968254043e+00,-2.180411926845171269e-05,-1.737886283141087124e-05
2.854761904761904834e+00,-2.791463418210387933e-05,-1.566822819734831252e-05
2.855555555555555625e+00,-2.938619622097396445e-05,-1.043022574299900092e-05
2.856349206349206415e+00,-2.635711631788705635e-05,-3.121437141830577039e-06
2.857142857142857206e+00,-1.961869539361875037e-05,4.337647260008763933e-06
2.857936507936507997e+00,-1.051190627675243503e-05,1.010417736750103388e-05
2.858730158730158788e+00,-7.243914742219363867e-07,1.290406175307751400e-05
2.859523809523809579e+00,7.992250407780525511e-06,1.232046441010005439e-05
2.860317460317460370e+00,1.414133380813486655e-05,8.816058440385761863e-06
2.861111111111111160e+00,1.677285155537199112e-05,3.527084850163267685e-06
2.861904761904761951e+00,1.567700872402809088e-05,-2.072043064220836486e-06
2.862698412698412742e+00,1.142070536110391405e-05,-6.530867966802569291e-06
2.863492063492063533e+00,5.204740394367890236e-06,-8.737068275908203092e-06
2.864285714285714324e+00,-1.428357425357584266e-06,-8.137156602991696549e-06
2.865079365079365115e+00,-6.959562121976712376e-06,-4.837419094113626575e-06
2.865873015873015905e+00,-1.023470929121894484e-05,4.254366817508679806e-07
2.866666666666666696e+00,-1.069638116549745732e-05,6.434694672387381767e-06
2.867460317460317487e+00,-8.456378373584881594e-06,1.173480063010478033e-05
2.868253968253968278e+00,-4.204521813649101224e-06,1.491978879424419841e-05
2.869047619047619069e+00,1.009071766027264372e-06,1.492191548506640185e-05
2.869841269841269860e+00,6.053690030049862920e-06,1.125202078211968259e-05
2.870634920634920650e+00,9.985824251125931936e-06,4.142199184730738207e-06
2.871428571428571441e+00,1.224024357680870960e-05,-5.449251162069231544e-06
2.872222222222222232e+00,1.270400853215079968e-05,-1.598501569621801403e-05
2.873015873015873023e+00,1.166636605657722958e-05,-2.562862513913929580e-05
2.873809523809523814e+00,9.670620251613428969e-06,-3.260637246058039598e-05
2.874603174603174605e+00,7.318155350237935478e-06,-3.557663587301979942e-05
2.875396825396825395e+00,5.083083054728783998e-06,-3.391991528962239234e-05
2.876190476190476186e+00,3.187072105043077002e-06,-2.787341479912835664e-05
2.876984126984126977e+00,1.562833049210263880e-06,-1.847244669467786154e-05
2.877777777777777768e+00,-9.019134529168655292e-08,-7.316297583280426312e-06
2.878571428571428559e+00,-2.176149094128555259e-06,3.773862104775081047e-06
2.879365079365079350e+00,-5.032882158310609092e-06,1.311280948193395804e-05
2.880158730158730140e+00,-8.765253120599118206e-06,1.944047358491802653e-05
2.880952380952380931e+00,-1.312931628013077722e-05,2.209000880284660499e-05
2.881746031746031722e+00,-1.751057590977562158e-05,2.102036936622963444e-05
2.882539682539682513e+00,-2.102117273921715374e-05,1.672969311028988759e-05
2.883333333333333304e+00,-2.270647941105495142e-05,1.008665947580004886e-05
2.884126984126984095e+00,-2.180925052692282972e-05,2.129955018161209457e-06
2.884920634920634885e+00,-1.800815356772365967e-05,-6.112579154657714427e-06
2.885714285714285676e+00,-1.154790311183709213e-05,-1.374881800339096813e-05
2.886507936507936467e+00,-3.215705575904608718e-06,-2.008161853925568256e-05
2.887301587301587258e+00,5.824920159206814831e-06,-2.461622483295131813e-05
2.888095238095238049e+00,1.428564443516471784e-05,-2.704036103381338193e-05
2.888888888888888840e+00,2.101535762501382222e-05,-2.720221639095567228e-05
2.889682539682539630e+00,2.520876169048616948e-05,-2.510617949975800357e-05
2.890476190476190421e+00,2.652360170317905215e-05,-2.093296423972057233e-05
2.891269841269841212e+00,2.509557109533457609e-05,-1.506886532293592571e-05
2.892063492063492003e+00,2.146049978285404980e-05,-8.109121505772023497e-06
2.892857142857142794e+00,1.640784958656108303e-05,-8.010888398352723241e-07
2.893650793650793585e+00,1.079986300047626478e-05,6.078918308288996912e-06
2.894444444444444375e+00,5.396451143453176426e-06,1.188205889806735087e-05
2.895238095238095166e+00,7.245169019333898754e-07,1.622101035944751142e-05
2.896031746031745957e+00,-2.980057279720112042e-06,1.903428378628863185e-05
2.896825396825396748e+00,-5.748358881373370550e-06,2.056311602733037875e-05
2.897619047619047539e+00,-7.785886356068193268e-06,2.125324367973963660e-05
2.898412698412698330e+00,-9.345037387139212921e-06,2.161082168411084287e-05
2.899206349206349120e+00,-1.060599839533876826e-05,2.204640296409299713e-05
2.899999999999999911e+00,-1.160503011046536839e-05,2.274110275345958820e-05
2.900793650793650702e+00,-1.223192978273087802e-05,2.356974633770130399e-05
2.901587301587301493e+00,-1.229429135604080132e-05,2.411279445243123842e-05
2.902380952380952284e+00,-1.162316578572852947e-05,2.377146141138719999e-05
2.903174603174603075e+00,-1.018018379235692277e-05,2.196486085957916298e-05
2.903968253968253865e+00,-8.124682651719120985e-06,1.834856954045844643e-05
2.904761904761904656e+00,-5.811862837453211727e-06,1.297481688018005558e-05
2.905555555555555447e+00,-3.716198118482923387e-06,6.329517588991353790e-06
2.906349206349206238e+00,-2.300292213900248474e-06,-7.740022309682226743e-07
2.907142857142857029e+00,-1.868485485404922146e-06,-7.407928481039345657e-06
2.907936507936507819e+00,-2.451037910831115503e-06,-1.276788958467677561e-05
2.908730158730158610e+00,-3.758629619464160372e-06,-1.634429641782824530e-05
2.909523809523809401e+00,-5.229916695062692929e-06,-1.796865779569797200e-05
2.910317460317460192e+00,-6.168245865594819904e-06,-1.773591263259029384e-05
2.911111111111110983e+00,-5.932723137210253416e-06,-1.585818945498006468e-05
2.911904761904761774e+00,-4.125947605798208656e-06,-1.253019961868864964e-05
2.912698412698412564e+00,-7.185522661813256663e-07,-7.875029009489788835e-06
2.913492063492063355e+00,3.927546024757560186e-06,-1.998888696083632760e-06
2.914285714285714146e+00,9.139117265109769262e-06,4.869872501015046525e-06
2.915079365079364937e+00,1.408359865972799903e-05,1.222777935262417573e-05
2.915873015873015728e+00,1.794677486372857098e-05,1.921724790694452086e-05
2.916666666666666519e+00,2.009482184645356001e-05,2.468874587852116606e-05
2.917460317460317309e+00,2.019308895155717075e-05,2.741764084347346337e-05
2.918253968253968100e+00,1.826441051227339514e-05,2.642421242984738391e-05
2.919047619047618891e+00,1.467625376760420479e-05,2.129631296897443364e-05
2.919841269841269682e+00,1.005672040860673829e-05,1.240223094835394929e-05
2.920634920634920473e+00,5.157259519731603487e-06,9.110386106529342067e-07
2.921428571428571264e+00,6.961622370741000534e-07,-1.140345465997027044e-05
2.922222222222222054e+00,-2.778965370273547538e-06,-2.253234420225213319e-05
2.923015873015872845e+00,-4.979999967456107923e-06,-3.067819081304796585e-05
2.923809523809523636e+00,-5.902992031018660621e-06,-3.465690554514603129e-05
2.924603174603174427e+00,-5.789263151730842522e-06,-3.414671970977578623e-05
2.925396825396825218e+00,-5.039039774904396583e-06,-2.972434935554517640e-05
2.926190476190476009e+00,-4.104712798476648209e-06,-2.269278750080961759e-05
2.926984126984126799e+00,-3.391635650913631969e-06,-1.475922193431558269e-05
2.927777777777777590e+00,-3.185395869795236643e-06,-7.648346884367935368e-06
2.928571428571428381e+00,-3.612751676134196693e-06,-2.736597816473301999e-06
2.929365079365079172e+00,-4.635557182253695719e-06,-7.779879093689828833e-07
2.930158730158729963e+00,-6.073778158013931096e-06,-1.771221644862636812e-06
2.930952380952380754e+00,-7.651876636049682623e-06,-4.991640438597058420e-06
2.931746031746031544e+00,-9.060108345409852954e-06,-9.178207640599410737e-06
2.932539682539682335e+00,-1.001946454860150445e-05,-1.282897996793601394e-05
2.933333333333333126e+00,-1.033833328745941703e-05,-1.453138174000450256e-05
2.934126984126983917e+00,-9.951168653645062402e-06,-1.324939965964735962e-05
2.934920634920634708e+00,-8.933043842136402233e-06,-8.509706202810257607e-06
2.935714285714285499e+00,-7.487222611354864494e-06,-4.614023687199452383e-07
2.936507936507936289e+00,-5.905789842438406103e-06,1.018384011238266454e-05
2.937301587301587080e+00,-4.507154694532999714e-06,2.230138810992624197e-05
2.938095238095238315e+00,-3.559523839537626790e-06,3.455193138037567798e-05
2.938888888888889106e+00,-3.205203559330263361e-06,4.558581377623296862e-05
2.939682539682539897e+00,-3.404429258258272635e-06,5.421461303596844419e-05
2.940476190476190688e+00,-3.916724450061732275e-06,5.951964937119911013e-05
2.941269841269841478e+00,-4.331167451860506610e-06,6.088444207991622797e-05
2.942063492063492269e+00,-4.145416537034982782e-06,5.796611811665263527e-05
2.942857142857143060e+00,-2.880357869826833691e-06,5.064977718356847335e-05
2.943650793650793851e+00,-2.070528027512373501e-07,3.903984257252778370e-05
2.944444444444444642e+00,3.941911267155445589e-06,2.351800377556389080e-05
2.945238095238095433e+00,9.303134123084672092e-06,4.846031149776608169e-06
2.946031746031746223e+00,1.527510786515288069e-05,-1.575358418240111567e-05
2.946825396825397014e+00,2.098198856303032901e-05,-3.661097728808580825e-05
2.947619047619047805e+00,2.540372753587034839e-05,-5.574727866226101804e-05
2.948412698412698596e+00,2.755420585313204685e-05,-7.111405972198393355e-05
2.949206349206349387e+00,2.667874540786874845e-05,-8.088081519064145564e-05
2.950000000000000178e+00,2.243634922311305027e-05,-8.372528024541728796e-05
2.950793650793650968e+00,1.502942070163786501e-05,-7.909760877215476203e-05
2.951587301587301759e+00,5.245773548534542165e-06,-6.741938370332854985e-05
2.952380952380952550e+00,-5.611197255109649739e-06,-5.014731212457692309e-05
2.953174603174603341e+00,-1.590597906717995409e-05,-2.962585587436742616e-05
2.953968253968254132e+00,-2.394138478027367663e-05,-8.707540646468828836e-06
2.954761904761904923e+00,-2.826510785574312660e-05,9.788085161246197111e-06
2.955555555555555713e+00,-2.794971879030817431e-05,2.363488262406869875e-05
2.956349206349206504e+00,-2.278667003769333324e-05,3.162698856480294592e-05
2.957142857142857295e+00,-1.335227236338682709e-05,3.376213937364395284e-05
2.957936507936508086e+00,-9.316856876609915556e-07,3.113974252051484893e-05
2.958730158730158877e+00,1.268188627428075208e-05,2.560325487959195200e-05
2.959523809523809668e+00,2.547140145102045759e-05,1.922142857771994508e-05
2.960317460317460458e+00,3.551110392199808148e-05,1.375251052522620947e-05
2.961111111111111249e+00,4.126115626691054787e-05,1.024904946078854606e-05
2.961904761904762040e+00,4.179913235639030368e-05,8.917541159344996175e-06
2.962698412698412831e+00,3.695876438383477317e-05,9.251655907884499025e-06
2.963492063492063622e+00,2.736108490610082800e-05,1.035161160277960539e-05
2.964285714285714413e+00,1.433637780317793592e-05,1.128086045608856786e-05
2.965079365079365203e+00,-2.550644399612774337e-07,1.132680663482576548e-05
2.965873015873015994e+00,-1.428817883509320098e-05,1.011006751929544213e-05
2.966666666666666785e+00,-2.569948907814818476e-05,7.573478636023762239e-06
2.967460317460317576e+00,-3.283336376661261216e-05,3.923205666314777763e-06
2.968253968253968367e+00,-3.474751066180980607e-05,-4.256882514298799713e-07
2.969047619047619158e+00,-3.140761726766488513e-05,-4.897036049810772826e-06
2.969841269841269948e+00,-2.371467711990985213e-05,-8.825501084336207438e-06
2.970634920634920739e+00,-1.334586478084244385e-05,-1.157522637804171247e-05
2.971428571428571530e+00,-2.437847927648823512e-06,-1.269196883479760096e-05
2.972222222222222321e+00,6.817779279893029463e-06,-1.204351550848983990e-05
2.973015873015873112e+00,1.257818632183857358e-05,-9.895110316500452553e-06
2.973809523809523903e+00,1.367171547456821079e-05,-6.881854126599918659e-06
2.974603174603174693e+00,9.787692290157406773e-06,-3.868905658337745400e-06
2.975396825396825484e+00,1.515985239308785330e-06,-1.724324086555912670e-06
2.976190476190476275e+00,-9.757208391914113713e-06,-1.060718486593138420e-06
2.976984126984127066e+00,-2.207821729943909084e-05,-2.022061270976498959e-06
2.977777777777777857e+00,-3.325074684256811713e-05,-4.192903649392239060e-06
2.978571428571428648e+00,-4.121424431591451349e-05,-6.680551809124367340e-06
2.979365079365079438e+00,-4.441659936791547746e-05,-8.365303637316411423e-06
2.980158730158730229e+00,-4.211086639681852769e-05,-8.248432319439359919e-06
2.980952380952381020e+00,-3.450907961707437176e-05,-5.785617719090556014e-06
2.981746031746031811e+00,-2.274998710590690970e-05,-1.096018908083812374e-06
2.982539682539682602e+00,-8.680478851978229654e-06,5.021678692238824246e-06
2.983333333333333393e+00,5.500895742257915752e-06,1.127458159415126098e-05
2.984126984126984183e+00,1.765660987170978606e-05,1.620937126516117896e-05
2.984920634920634974e+00,2.609127888750568770e-05,1.859755221931352843e-05
2.985714285714285765e+00,2.982956297262199299e-05,1.776488843929045696e-05
2.986507936507936556e+00,2.874550751180789847e-05,1.378320890255502249e-05
2.987301587301587347e+00,2.352778012471509885e-05,7.486084662591564257e-06
2.988095238095238138e+00,1.549673123272097582e-05,3.092719348099749286e-07
2.988888888888888928e+00,6.318534895410396565e-06,-6.015060034822450239e-06
2.989682539682539719e+00,-2.319108189639270496e-06,-9.857454533782874636e-06
2.990476190476190510e+00,-9.003290220178548979e-06,-1.010520661745152024e-05
2.991269841269841301e+00,-1.281258806638172859e-05,-6.491534039329900634e-06
2.992063492063492092e+00,-1.342504452382740046e-05,2.618335200934141482e-07
2.992857142857142883e+00,-1.110983568859255523e-05,8.558646403850983059e-06
2.993650793650793673e+00,-6.613379267535444610e-06,1.630116683969384320e-05
2.994444444444444464e+00,-9.675091942245030656e-07,2.143887531428586332e-05
2.995238095238095255e+00,4.738555280104214089e-06,2.253848389103366403e-05
2.996031746031746046e+00,9.573932457121686699e-06,1.919742818032667048e-05
2.996825396825396837e+00,1.292501607273013794e-05,1.216358604603840901e-05
2.997619047619047628e+00,1.456775014560598641e-05,3.119296776171870281e-06
2.998412698412698418e+00,1.464492270542133182e-05,-5.798887979465025524e-06
2.999206349206349209e+00,1.356356122863950522e-05,-1.259052432857652296e-05
3.000000000000000000e+00,1.184742949041748591e-05,-1.591551643811866512e-05
3.000793650793650791e+00,9.990565364154491864e-06,-1.541038365840496867e-05
3.001587301587301582e+00,8.355006741161116935e-06,-1.172028828834783251e-05
3.002380952380952372e+00,7.138474248837318433e-06,-6.245814195731940141e-06
3.003174603174603163e+00,6.410848494446885728e-06,-6.762698222976579618e-07
3.003968253968253954e+00,6.191245989897079012e-06,3.558343975342922823e-06
3.004761904761904745e+00,6.521283405545400680e-06,5.751643722266238668e-06
3.005555555555555536e+00,7.492946601481290721e-06,6.149314800973713547e-06
3.006349206349206327e+00,9.211570401525458288e-06,5.856803791267399271e-06
3.007142857142857117e+00,1.170638883087122906e-05,6.446568074364836839e-06
3.007936507936507908e+00,1.482875238533257878e-05,9.388708508133969638e-06
3.008730158730158699e+00,1.818930671131362237e-05,1.548871265676266147e-05
3.009523809523809490e+00,2.117457779410729558e-05,2.451149817490860908e-05
3.010317460317460281e+00,2.305377686225542740e-05,3.510909836896871755e-05
3.011111111111111072e+00,2.315027102310742633e-05,4.507497436764720377e-05
3.011904761904761862e+00,2.102478140572465877e-05,5.185051860920148820e-05
3.012698412698412653e+00,1.661004381274738408e-05,5.313713432494848575e-05
3.013492063492063444e+00,1.025106866303852256e-05,4.744340597141861831e-05
3.014285714285714235e+00,2.635109907901182939e-06,3.442965920807666017e-05
3.015079365079365026e+00,-5.369081717646017246e-06,1.498689942161520590e-05
3.015873015873015817e+00,-1.291345794655101423e-05,-8.929267592927963098e-06
3.016666666666666607e+00,-1.935131996561714399e-05,-3.463068559463769420e-05
3.017460317460317398e+00,-2.434151064273615386e-05,-5.910113650052835766e-05
3.018253968253968189e+00,-2.784946303581070347e-05,-7.940463734099852719e-05
3.019047619047618980e+00,-3.005611090347166644e-05,-9.306683367552044249e-05
3.019841269841269771e+00,-3.121710648786583708e-05,-9.841634795313359207e-05
3.020634920634920562e+00,-3.152758894200402958e-05,-9.485483722525293513e-05
3.021428571428571352e+00,-3.103947136655876008e-05,-8.299067871413886286e-05
3.022222222222222143e+00,-2.965535225779060424e-05,-6.456555337532244232e-05
3.023015873015872934e+00,-2.719512834034996414e-05,-4.215315100721715524e-05
3.023809523809523725e+00,-2.350655326372373284e-05,-1.869228263861153372e-05
3.024603174603174516e+00,-1.857644005058453314e-05,3.022593525276930425e-06
3.025396825396825307e+00,-1.260014798305771763e-05,2.076790918461762688e-05
3.026190476190476097e+00,-5.983567180563177528e-06,3.315449393073970091e-05
3.026984126984126888e+00,7.226731851277926133e-07,3.970614243823117481e-05
3.027777777777777679e+00,6.933037112688552548e-06,4.077513913674542115e-05
3.028571428571428470e+00,1.214377232639950169e-05,3.734037458270720336e-05
3.029365079365079261e+00,1.602065719642385691e-05,3.074552317506481890e-05
3.030158730158730052e+00,1.843632578140809393e-05,2.244008824871912189e-05
3.030952380952380842e+00,1.945577461675551057e-05,1.377866315840385628e-05
3.031746031746031633e+00,1.928541536418025145e-05,5.905828641356256431e-06
3.032539682539682424e+00,1.820794749782460480e-05,-2.862037719187516268e-07
3.033333333333333215e+00,1.652180054948712708e-05,-4.169426167136875441e-06
3.034126984126984006e+00,1.449539762891894311e-05,-5.403108774726860836e-06
3.034920634920634797e+00,1.233971922316828062e-05,-3.981462141878158559e-06
3.035714285714285587e+00,1.019958213035279252e-05,-2.827484894014432041e-07
3.036507936507936378e+00,8.161800781519255459e-06,4.924586542333925723e-06
3.037301587301587169e+00,6.274581007376505570e-06,1.055693467951886676e-05
3.038095238095237960e+00,4.568593686364304575e-06,1.538120388750661340e-05
3.038888888888888751e+00,3.069357811065703661e-06,1.824674180908833588e-05
3.039682539682539542e+00,1.794056914220990143e-06,1.833505045235672904e-05
3.040476190476190332e+00,7.322597363877775221e-07,1.536883369597236086e-05
3.041269841269841123e+00,-1.830985560634299246e-07,9.723230944766506317e-06
3.042063492063491914e+00,-1.102235924782054389e-06,2.394041040648470719e-06
3.042857142857142705e+00,-2.266431316821068538e-06,-5.195547919426734704e-06
3.043650793650793496e+00,-3.981071540292362297e-06,-1.152431874984423273e-05
3.044444444444444287e+00,-6.543945513628148165e-06,-1.536220398670063846e-05
3.045238095238095077e+00,-1.013373501956251727e-05,-1.610884435285822965e-05
3.046031746031745868e+00,-1.468478062881041320e-05,-1.397398353844945660e-05
3.046825396825396659e+00,-1.979301768459936162e-05,-9.933197167290226974e-06
3.047619047619047450e+00,-2.470204062068388800e-05,-5.456936978972256070e-06
3.048412698412698241e+00,-2.839895535931525621e-05,-2.079923815035457938e-06
3.049206349206349032e+00,-2.981084913347576012e-05,-9.320879223862592627e-07
3.049999999999999822e+00,-2.805261341971030935e-05,-2.372862409565871038e-06
3.050793650793650613e+00,-2.265693589411897578e-05,-5.846859151660069512e-06
3.051587301587301404e+00,-1.372481155750715480e-05,-1.001480754118918604e-05
3.052380952380952195e+00,-1.960049803948957062e-06,-1.312875483772595885e-05
3.053174603174602986e+00,1.141845855549250702e-05,-1.354404662163760730e-05
3.053968253968253777e+00,2.486331990328432558e-05,-1.021908342129275832e-05
3.054761904761904567e+00,3.673742392466333517e-05,-3.059270061885135249e-06
3.055555555555555358e+00,4.555110615414166802e-05,6.991910623597026960e-06
3.056349206349206149e+00,5.015679154383918023e-05,1.814154694024668171e-05
3.057142857142856940e+00,4.988339839922150060e-05,2.816880652840678286e-05
3.057936507936507731e+00,4.460987245744980407e-05,3.497246375835642065e-05
3.058730158730158522e+00,3.478120966990732243e-05,3.710327447854982021e-05
3.059523809523809312e+00,2.136809589247568137e-05,3.413866520928976922e-05
3.060317460317460103e+00,5.772489148790499661e-06,2.679265684416722281e-05
3.061111111111110894e+00,-1.031279864564616822e-05,1.672346351972723831e-05
3.061904761904761685e+00,-2.507815630013247358e-05,6.089675665787091427e-06
3.062698412698412920e+00,-3.679346318329912728e-05,-3.014585605765499768e-06
3.063492063492063711e+00,-4.401785306826726642e-05,-9.076105418431217885e-06
3.064285714285714501e+00,-4.581030299231951081e-05,-1.148150004887892063e-05
3.065079365079365292e+00,-4.191384645206340596e-05,-1.056199564922609813e-05
3.065873015873016083e+00,-3.286815070253061187e-05,-7.379772517938821029e-06
3.066666666666666874e+00,-1.999894657333941577e-05,-3.345997284891615804e-06
3.067460317460317665e+00,-5.250069684161926937e-06,2.046586337319691051e-07
3.068253968253968456e+00,9.135646970086045164e-06,2.363605492972047102e-06
3.069047619047619246e+00,2.102920605435723648e-05,2.836696614510066812e-06
3.069841269841270037e+00,2.882353460067330181e-05,1.936245641929953721e-06
3.070634920634920828e+00,3.172884275207768251e-05,3.964231723105638004e-07
3.071428571428571619e+00,2.987820730573164695e-05,-9.212474610517023306e-07
3.072222222222222410e+00,2.422520679574078191e-05,-1.338556696557871379e-06
3.073015873015873201e+00,1.627537528614888339e-05,-5.936817863274096007e-07
3.073809523809523991e+00,7.731459601767193206e-06,1.071311671639932018e-06
3.074603174603174782e+00,1.417154099447080719e-07,2.993456740187696994e-06
3.075396825396825573e+00,-5.374034735567104682e-06,4.318860083858990934e-06
3.076190476190476364e+00,-8.274608703047816132e-06,4.313318323572563288e-06
3.076984126984127155e+00,-8.611433261078248582e-06,2.658577977823833874e-06
3.077777777777777946e+00,-6.924067086799105864e-06,-3.664114403468694607e-07
3.078571428571428736e+00,-4.056735456469782607e-06,-3.894108368158119435e-06
3.079365079365079527e+00,-9.448938861172185608e-07,-6.684756940250347373e-06
3.080158730158730318e+00,1.582444904417167673e-06,-7.496928788187943047e-06
3.080952380952381109e+00,2.950758842798681946e-06,-5.500515392264505556e-06
3.081746031746031900e+00,2.917668861764153788e-06,-5.996143705659108421e-07
3.082539682539682691e+00,1.570143699389875529e-06,6.443537214418948331e-06
3.083333333333333481e+00,-7.568920504848349572e-07,1.413443707706778325e-05
3.084126984126984272e+00,-3.620414167495207151e-06,2.060036645261582007e-05
3.084920634920635063e+00,-6.625017856724835387e-06,2.408419406466573339e-05
3.085714285714285854e+00,-9.537841841612084670e-06,2.344489612831272723e-05
3.086507936507936645e+00,-1.231532867315511015e-05,1.852176710980928606e-05
3.087301587301587436e+00,-1.503010376297504777e-05,1.024939078644143112e-05
3.088095238095238226e+00,-1.773264026769734943e-05,4.739071418743665863e-07
3.088888888888889017e+00,-2.031456484063228702e-05,-8.498677829747189346e-06
3.089682539682539808e+00,-2.244127527931280713e-05,-1.451278809716298154e-05
3.090476190476190599e+00,-2.359105458387521909e-05,-1.616522693794820894e-05
3.091269841269841390e+00,-2.319111730749117320e-05,-1.321974434238084460e-05
3.092063492063492181e+00,-2.079989768312130683e-05,-6.706768893977656885e-06
3.092857142857142971e+00,-1.626792771579894898e-05,1.316894621943993142e-06
3.093650793650793762e+00,-9.822199409342361010e-06,8.267980415752523632e-06
3.094444444444444553e+00,-2.050808747874415815e-06,1.165463190231547750e-05
3.095238095238095344e+00,6.200853688246539877e-06,9.666021192084908359e-06
3.096031746031746135e+00,1.398643648773279482e-05,1.617162571983549478e-06
3.096825396825396925e+00,2.042116590557859520e-05,-1.183132798520467015e-05
3.097619047619047716e+00,2.480781186339671576e-05,-2.872459897921802969e-05
3.098412698412698507e+00,2.669933484272238642e-05,-4.614177378735517191e-05
3.099206349206349298e+00,2.589769000184655932e-05,-6.075342874249610843e-05
3.100000000000000089e+00,2.241745240936438482e-05,-6.950328139918034002e-05
3.100793650793650880e+00,1.646042240855632272e-05,-7.026815487300501711e-05
3.101587301587301670e+00,8.438388749295478252e-06,-6.234428856254556057e-05
3.102380952380952461e+00,-9.555622976574904085e-07,-4.664191777496715839e-05
3.103174603174603252e+00,-1.067392532086705589e-05,-2.553536362562887707e-05
3.103968253968254043e+00,-1.931706781854108129e-05,-2.396870018275123667e-06
3.104761904761904834e+00,-2.528069316675756936e-05,1.908035900389352821e-05
3.105555555555555625e+00,-2.706793367671379068e-05,3.561250148080227513e-05
3.106349206349206415e+00,-2.370839155400434226e-05,4.494167947839982394e-05
3.107142857142857206e+00,-1.515597198986096173e-05,4.620668737496880436e-05
3.107936507936507997e+00,-2.510689939269201028e-06,4.000222971765046769e-05
3.108730158730158788e+00,1.205265111643360797e-05,2.813812903708248935e-05
3.109523809523809579e+00,2.567365840194424492e-05,1.317935515668784574e-05
3.110317460317460370e+00,3.542806726660871952e-05,-2.105573898841491849e-06
3.111111111111111160e+00,3.901359320891509567e-05,-1.524893336309073314e-05
3.111904761904761951e+00,3.530587136018223881e-05,-2.443236448443958085e-05
3.112698412698412742e+00,2.462754831075937882e-05,-2.863492249513294269e-05
3.113492063492063533e+00,8.659375520767035532e-06,-2.760708729903764650e-05
3.114285714285714324e+00,-9.968665008492907177e-06,-2.174403663756231840e-05
3.115079365079365115e+00,-2.826999322314776664e-05,-1.193576733031035711e-05
3.115873015873015905e+00,-4.349283200820270662e-05,5.602518607232406980e-07
3.116666666666666696e+00,-5.354938683016911182e-05,1.422203298227890418e-05
3.117460317460317487e+00,-5.720677528161603991e-05,2.736990993872558340e-05
3.118253968253968278e+00,-5.406527837688766093e-05,3.831006782066474461e-05
3.119047619047619069e+00,-4.441840581903717526e-05,4.553030331508639859e-05
3.119841269841269860e+00,-2.910053387409116801e-05,4.793404909479918158e-05
3.120634920634920650e+00,-9.389916509327143757e-06,4.506619038563129020e-05
3.121428571428571441e+00,1.302444672547829934e-05,3.726183550992473589e-05
3.122222222222222232e+00,3.605728828032688714e-05,2.565186193926040259e-05
3.123015873015873023e+00,5.729857416968073958e-05,1.199116262376354526e-05
3.123809523809523814e+00,7.421342151843657211e-05,-1.672105884279593089e-06
3.124603174603174605e+00,8.449594154423184576e-05,-1.341005135578440712e-05
3.125396825396825395e+00,8.652260796941437806e-05,-2.179223036439818505e-05
3.126190476190476186e+00,7.976995077647706803e-05,-2.610829855461586921e-05
3.126984126984126977e+00,6.503016249934162531e-05,-2.637778694168364289e-05
3.127777777777777768e+00,4.431123812205926458e-05,-2.317959980116547761e-05
3.128571428571428559e+00,2.043017836183827487e-05,-1.739922928179261872e-05
3.129365079365079350e+00,-3.567016923611396411e-06,-9.997491617516692612e-06
3.130158730158730140e+00,-2.496734125778064998e-05,-1.862797079562540279e-06
3.130952380952380931e+00,-4.177704609000591323e-05,6.246422113988695066e-06
3.131746031746031722e+00,-5.286553624685167487e-05,1.370233663087491068e-05
3.132539682539682513e+00,-5.789536858183968489e-05,1.999292915554304429e-05
3.133333333333333304e+00,-5.712864483066385347e-05,2.471319148020168489e-05
3.134126984126984095e+00,-5.121601965583357993e-05,2.755742366099586644e-05
3.134920634920634885e+00,-4.104919297372139315e-05,2.829892621164831787e-05
3.135714285714285676e+00,-2.770568306573582980e-05,2.675712270280094121e-05
3.136507936507936467e+00,-1.245685250104577670e-05,2.277419446864098482e-05
3.137301587301587258e+00,3.229439429381825656e-06,1.623439677870389106e-05
3.138095238095238049e+00,1.776220200394235181e-05,7.149150331370886524e-06
3.138888888888888840e+00,2.960829666558112389e-05,-4.197933971343917144e-06
3.139682539682539630e+00,3.755102866148421042e-05,-1.709021158055160262e-05
3.140476190476190421e+00,4.094462669170991913e-05,-3.027827435188486916e-05
3.141269841269841212e+00,3.986832497854905409e-05,-4.202398936776536751e-05
3.142063492063492003e+00,3.511227718350531360e-05,-5.033294920838054170e-05
3.142857142857142794e+00,2.798299868945439104e-05,-5.334827535337586781e-05
3.143650793650793585e+00,1.997394742594823462e-05,-4.980987905258246518e-05
3.144444444444444375e+00,1.238886846441298112e-05,-3.945102704613287638e-05
3.145238095238095166e+00,6.022497018463379881e-06,-2.321548028622546044e-05
3.146031746031745957e+00,9.912020263392259741e-07,-3.220138643328791914e-06
3.146825396825396748e+00,-3.233257367106816850e-06,1.755495161669499507e-05
3.147619047619047539e+00,-7.590892597152341169e-06,3.580494224880514205e-05
3.148412698412698330e+00,-1.306516034380614551e-05,4.856444357608636188e-05
3.149206349206349120e+00,-2.028732653165181592e-05,5.385408627247178137e-05
3.149999999999999911e+00,-2.923537149788078796e-05,5.115335248822086567e-05
3.150793650793650702e+00,-3.912415875053956954e-05,4.156697464954624575e-05
3.151587301587301493e+00,-4.852623536600021118e-05,2.761273152380247988e-05
3.152380952380952284e+00,-5.569231540613628226e-05,1.265018359426749726e-05
3.153174603174603075e+00,-5.898048709317974312e-05,7.353774713638714268e-08
3.153968253968253865e+00,-5.727257722396352917e-05,-7.526437658455643239e-06
3.154761904761904656e+00,-5.026419034584936465e-05,-9.001801087999467715e-06
3.155555555555555447e+00,-3.855717188720910035e-05,-4.905806823913341628e-06
3.156349206349206238e+00,-2.354198006853406379e-05,2.706769241297658585e-06
3.157142857142857029e+00,-7.111095953033641204e-06,1.088477500079168051e-05
3.157936507936507819e+00,8.720425690111364706e-06,1.662317805564686641e-05
3.158730158730158610e+00,2.219709184334630074e-05,1.770642842251086968e-05
3.159523809523809401e+00,3.212198664692029213e-05,1.331606441384007865e-05
3.160317460317460192e+00,3.800876873521282802e-05,4.236455248367373740e-06
3.161111111111110983e+00,4.006123144434943874e-05,-7.385953074837209820e-06
3.161904761904761774e+00,3.900244781946365761e-05,-1.864147560626062608e-05
3.162698412698412564e+00,3.581567284785411526e-05,-2.662826763671458875e-05
3.163492063492063355e+00,3.147562139510390344e-05,-2.918160574293660850e-05
3.164285714285714146e+00,2.673742774176852036e-05,-2.538959288630946836e-05
3.165079365079364937e+00,2.202273387048980560e-05,-1.580545552146723484e-05
3.165873015873015728e+00,1.741361615476466192e-05,-2.346790077711092657e-06
3.166666666666666519e+00,1.274285448452115911e-05,1.207545374631582849e-05
3.167460317460317309e+00,7.751452951119791986e-06,2.412928802039340583e-05
3.168253968253968100e+00,2.269095475494974085e-06,3.074749997939774294e-05
3.169047619047618891e+00,-3.635989371223341079e-06,2.981452512307959857e-05
3.169841269841269682e+00,-9.587712147458093029e-06,2.071750066928172067e-05
3.170634920634920473e+00,-1.494318304720752090e-05,4.618687855386976341e-06
3.171428571428571264e+00,-1.893998223372917272e-05,-1.566213649769181170e-05
3.172222222222222054e+00,-2.090770346662897811e-05,-3.618630664486645652e-05
3.173015873015872845e+00,-2.047573250040058565e-05,-5.276603555279001697e-05
3.173809523809523636e+00,-1.770797396177386666e-05,-6.195398767363121631e-05
3.174603174603174427e+00,-1.312011763307958539e-05,-6.187713191851680443e-05
3.175396825396825218e+00,-7.574127087725402128e-06,-5.267281502209945139e-05
3.176190476190476009e+00,-2.082224444569798528e-06,-3.640902776147768348e-05
3.176984126984126799e+00,2.422275632216515802e-06,-1.653189751565572679e-05
3.177777777777777590e+00,5.282947042214519595e-06,2.983848919216143562e-06
3.178571428571428381e+00,6.234934339945460250e-06,1.854119627726645071e-05
3.179365079365079172e+00,5.411578215055768920e-06,2.765410639116052974e-05
3.180158730158729963e+00,3.252558312668564767e-06,2.934958487314842711e-05
3.180952380952380754e+00,3.537340594382103630e-07,2.418598936952550099e-05
3.181746031746031544e+00,-2.686565578169820896e-06,1.393906627783718666e-05
3.182539682539682335e+00,-5.379513960436580837e-06,1.080553963382126262e-06
3.183333333333333126e+00,-7.399003297957842018e-06,-1.179685466160411262e-05
3.184126984126983917e+00,-8.588463057516138835e-06,-2.247168185858231776e-05
3.184920634920634708e+00,-8.946659571484123609e-06,-2.941965043538723596e-05
3.185714285714285499e+00,-8.609474659446523568e-06,-3.195306905023093005e-05
3.186507936507936289e+00,-7.824292516542148679e-06,-3.019687150818759077e-05
3.187301587301587080e+00,-6.898739524719520951e-06,-2.493966489713632433e-05
3.188095238095238315e+00,-6.111032310662865238e-06,-1.739792352327537359e-05
3.188888888888889106e+00,-5.596093362850482851e-06,-8.933670901333537768e-06
3.189682539682539897e+00,-5.252779420933209461e-06,-7.758138742364673334e-07
3.190476190476190688e+00,-4.728407317182376022e-06,6.197475572115364475e-06
3.191269841269841478e+00,-3.513970206538977935e-06,1.156782238137582026e-05
3.192063492063492269e+00,-1.135104659419402441e-06,1.535917049558338681e-05
3.192857142857143060e+00,2.626225309823519480e-06,1.791128127608246478e-05
3.193650793650793851e+00,7.569777059484934658e-06,1.968789258839736921e-05
3.194444444444444642e+00,1.304968898297923851e-05,2.107629992998112268e-05
3.195238095238095433e+00,1.810438102247191659e-05,2.223753309925442499e-05
3.196031746031746223e+00,2.170302689768165827e-05,2.305591087203450498e-05
3.196825396825397014e+00,2.302509089005305622e-05,2.320872529980086267e-05
3.197619047619047805e+00,2.168406577359508118e-05,2.233365816840743049e-05
3.198412698412698596e+00,1.783375438001481920e-05,2.022846526547317553e-05
3.199206349206349387e+00,1.213694245840543260e-05,1.699734414397883087e-05
3.200000000000000178e+00,5.614477542190930805e-06,1.307721224207018352e-05
3.200793650793650968e+00,-5.812855010584955372e-07,9.129147307344856921e-06
3.201587301587301759e+00,-5.412304582038113666e-06,5.837921348073481359e-06
3.202380952380952550e+00,-8.163695307224353082e-06,3.695503082076623852e-06
3.203174603174603341e+00,-8.571010702725357343e-06,2.842052065774919039e-06
3.203968253968254132e+00,-6.842177656336449694e-06,3.012973136877206120e-06
3.204761904761904923e+00,-3.575580815641602561e-06,3.609867511553132355e-06
3.205555555555555713e+00,4.003731141716617066e-07,3.881205084185206737e-06
3.206349206349206504e+00,4.223846926396670062e-06,3.164481537728477757e-06
3.207142857142857295e+00,7.183473324384728429e-06,1.114882027046148296e-06
3.207936507936508086e+00,8.846236641887679874e-06,-2.157165700585573734e-06
3.208730158730158877e+00,9.102766946783710103e-06,-6.088679335894780976e-06
3.209523809523809668e+00,8.128144596697719395e-06,-9.807743984302864698e-06
3.210317460317460458e+00,6.281633609889279956e-06,-1.237199177821875040e-05
3.211111111111111249e+00,3.984650807658463195e-06,-1.302916936820314938e-05
3.211904761904762040e+00,1.615745269269108339e-06,-1.142681480407237000e-05
3.212698412698412831e+00,-5.537324542141926929e-07,-7.718998690257638021e-06
3.213492063492063622e+00,-2.379534339984900679e-06,-2.549145089140103755e-06
3.214285714285714413e+00,-3.830664323925764537e-06,3.081549795581628256e-06
3.215079365079365203e+00,-4.957062128971453818e-06,8.027465719636664332e-06
3.215873015873015994e+00,-5.851561942829092180e-06,1.124768585120039649e-05
3.216666666666666785e+00,-6.614169910058017982e-06,1.204099201224501342e-05
3.217460317460317576e+00,-7.323061265265457392e-06,1.022041231680331991e-05
3.218253968253968367e+00,-8.014797529490071815e-06,6.189276884691243025e-06
3.219047619047619158e+00,-8.675450364490596542e-06,8.929375993005271569e-07
3.219841269841269948e+00,-9.243491688673965498e-06,-4.359828975191759715e-06
3.220634920634920739e+00,-9.623593758909954873e-06,-8.180673079590343580e-06
3.221428571428571530e+00,-9.707974767788881280e-06,-9.429056211654423308e-06
3.222222222222222321e+00,-9.399823438467920359e-06,-7.495847139844688660e-06
3.223015873015873112e+00,-8.632999218698661251e-06,-2.459221072143168783e-06
3.223809523809523903e+00,-7.383991704924882396e-06,4.934080107447014709e-06
3.224603174603174693e+00,-5.675171027279942201e-06,1.345370671125907427e-05
3.225396825396825484e+00,-3.571301137562544020e-06,2.167980266322700860e-05
3.226190476190476275e+00,-1.172962350305423819e-06,2.832476161774895865e-05
3.226984126984127066e+00,1.389741821901019641e-06,3.250248382996886147e-05
3.227777777777777857e+00,3.962029320061525916e-06,3.388365809138692742e-05
3.228571428571428648e+00,6.369772723193859404e-06,3.270378101278372435e-05
3.229365079365079438e+00,8.429316274638542009e-06,2.962455466237741517e-05
3.230158730158730229e+00,9.965229603777798830e-06,2.548617180211955788e-05
3.230952380952381020e+00,1.083638150804345148e-05,2.102190455802391012e-05
3.231746031746031811e+00,1.096636079966583602e-05,1.662498563724147676e-05
3.232539682539682602e+00,1.036983458020699779e-05,1.224553566281781358e-05
3.233333333333333393e+00,9.163547556014576322e-06,7.449968655380961688e-06
3.234126984126984183e+00,7.552154849039000248e-06,1.618825966377296667e-06
3.234920634920634974e+00,5.786766788484963239e-06,-5.780062770976978164e-06
