Timestamp,Flexor carpi radialis,Extensor digitorum
2.000000000000000000e+00,-7.411447752768956642e-05,4.011709921533606309e-05
2.000793650793650791e+00,-6.386617983872168826e-05,5.035996950460022123e-05
2.001587301587301582e+00,-4.278264873659238425e-05,5.930935314546257719e-05
2.002380952380952372e+00,-1.291167192427809425e-05,6.508400023570609671e-05
2.003174603174603163e+00,2.175147224301413553e-05,6.588655003166997599e-05
2.003968253968253954e+00,5.618727831664846429e-05,6.043889120219967027e-05
2.004761904761904745e+00,8.537307261718605177e-05,4.836362317313802893e-05
2.005555555555555536e+00,1.051724573519518852e-04,3.041647239158352733e-05
2.006349206349206327e+00,1.129474074067044024e-04,8.499521681034589312e-06
2.007142857142857117e+00,1.078387301166553055e-04,-1.457106531672703304e-05
2.007936507936507908e+00,9.073650275803559514e-05,-3.551660790742431327e-05
2.008730158730158699e+00,6.401276691151393185e-05,-5.119188325048554581e-05
2.009523809523809490e+00,3.111218381818218196e-05,-5.921476125479560913e-05
2.010317460317460281e+00,-3.908043877493771426e-06,-5.849840905353555882e-05
2.011111111111111072e+00,-3.682827884410246489e-05,-4.955327538029445959e-05
2.011904761904761862e+00,-6.368975388858832206e-05,-3.445393835810327298e-05
2.012698412698412653e+00,-8.120311458332301539e-05,-1.643627704232736555e-05
2.013492063492063444e+00,-8.714248229742126595e-05,8.021453370407723995e-07
2.014285714285714235e+00,-8.068067071231284435e-05,1.391942903211726192e-05
2.015079365079365026e+00,-6.258718972135479891e-05,2.063517021714705009e-05
2.015873015873015817e+00,-3.522262717360886665e-05,2.013267297872991580e-05
2.016666666666666607e+00,-2.307695422081271184e-06,1.307457042061279869e-05
2.017460317460317398e+00,3.151815339450313944e-05,1.280345803155325589e-06
2.018253968253968189e+00,6.131950902377480462e-05,-1.278782872346163284e-05
2.019047619047618980e+00,8.262330048411505945e-05,-2.655678126781172387e-05
2.019841269841269771e+00,9.221937955168903428e-05,-3.775893795166576492e-05
2.020634920634920562e+00,8.883736845533875270e-05,-4.467590255421124073e-05
2.021428571428571352e+00,7.347752176874687569e-05,-4.621785189316456662e-05
2.022222222222222143e+00,4.919531291059509845e-05,-4.188871725053129613e-05
2.023015873015872934e+00,2.028796807278388981e-05,-3.170470233497614711e-05
2.023809523809523725e+00,-8.912103921119665333e-06,-1.613041009400276572e-05
2.024603174603174516e+00,-3.519145853911396208e-05,3.927572145832942087e-06
2.025396825396825307e+00,-5.706603998817161337e-05,2.706974135876519399e-05
2.026190476190476097e+00,-7.459260744349329895e-05,5.133770489783678984e-05
2.026984126984126888e+00,-8.853424841876701907e-05,7.420540009834417018e-05
2.027777777777777679e+00,-9.936848047623197673e-05,9.270622791313059142e-05
2.028571428571428470e+00,-1.066836954080192633e-04,1.037505245631270675e-04
2.029365079365079261e+00,-1.092606390830963466e-04,1.046316238866440288e-04
2.030158730158730052e+00,-1.057380875672663955e-04,9.364194324361333637e-05
2.030952380952380842e+00,-9.545538412426868866e-05,7.064941805027180263e-05
2.031746031746031633e+00,-7.901744386646238994e-05,3.745177669227356371e-05
2.032539682539682424e+00,-5.832965235328966343e-05,-2.246484493261203761e-06
2.033333333333333215e+00,-3.613770240713188512e-05,-4.330188185232167962e-05
2.034126984126984006e+00,-1.530728490577199318e-05,-7.998636407148852225e-05
2.034920634920634797e+00,1.875999289043218353e-06,-1.070467400913127561e-04
2.035714285714285587e+00,1.417704166839083786e-05,-1.207125387471365621e-04
2.036507936507936378e+00,2.155830433766139792e-05,-1.194025341230438281e-04
2.037301587301587169e+00,2.501763678800797907e-05,-1.039676198026599633e-04
2.038095238095237960e+00,2.620544121784733341e-05,-7.743794504217262097e-05
2.038888888888888751e+00,2.694491355505429934e-05,-4.436511654825483846e-05
2.039682539682539542e+00,2.877852272299639608e-05,-9.932029485672647567e-06
2.040476190476190332e+00,3.263708433506947880e-05,2.096757459665412582e-05
2.041269841269841123e+00,3.868639755667491957e-05,4.449776821685426338e-05
2.042063492063491914e+00,4.636085499827406753e-05,5.837308701355781567e-05
2.042857142857142705e+00,5.455223095977813300e-05,6.202640971449149246e-05
2.043650793650793496e+00,6.189287538611264715e-05,5.647398796895120320e-05
2.044444444444444287e+00,6.706173064687359750e-05,4.395011405036510372e-05
2.045238095238095077e+00,6.904928068741436056e-05,2.741054962298106255e-05
2.046031746031745868e+00,6.733708370573683643e-05,1.000893224827760752e-05
2.046825396825396659e+00,6.196951474588899560e-05,-5.365677677556980443e-06
2.047619047619047450e+00,5.351463142875885780e-05,-1.643865270164943297e-05
2.048412698412698241e+00,4.292921258749752742e-05,-2.178013460036105732e-05
2.049206349206349032e+00,3.136279081946120824e-05,-2.093466650570846981e-05
2.049999999999999822e+00,1.995295381954771913e-05,-1.445848180059681071e-05
2.050793650793650613e+00,9.667057919170643764e-06,-3.842515024146540434e-06
2.051587301587301404e+00,1.224186984391396002e-06,8.711619927960597749e-06
2.052380952380952195e+00,-4.906386151557923235e-06,2.066510664862901441e-05
2.053174603174602986e+00,-8.464521017408057618e-06,2.961418161662036816e-05
2.053968253968253777e+00,-9.356650695455642002e-06,3.377107515877097701e-05
2.054761904761904567e+00,-7.636640665138188654e-06,3.235464239743710008e-05
2.055555555555555358e+00,-3.515523610361527998e-06,2.580196700375276357e-05
2.056349206349206149e+00,2.607499494861580407e-06,1.572956071594647719e-05
2.057142857142856940e+00,1.010692596506182643e-05,4.607584225093027507e-06
2.057936507936507731e+00,1.810521329326323639e-05,-4.820303148305592780e-06
2.058730158730158522e+00,2.548408249779667855e-05,-1.024615487397670049e-05
2.059523809523809312e+00,3.095695335722497822e-05,-1.043873824410661257e-05
2.060317460317460103e+00,3.321604357611763743e-05,-5.615311476027999483e-06
2.061111111111110894e+00,3.114901967769142491e-05,2.577888255271341691e-06
2.061904761904761685e+00,2.409738149423571051e-05,1.147026117354164430e-05
2.062698412698412920e+00,1.210425977767038632e-05,1.803375879157845420e-05
2.063492063492063711e+00,-3.921252661560890985e-06,1.962965607319822823e-05
2.064285714285714501e+00,-2.219953176366271089e-05,1.465440397796593113e-05
2.065079365079365292e+00,-4.028579786931143662e-05,2.943755295449417282e-06
2.065873015873016083e+00,-5.547969549173772328e-05,-1.414849087963265970e-05
2.066666666666666874e+00,-6.536218416790273190e-05,-3.401394632466010087e-05
2.067460317460317665e+00,-6.832316599990775170e-05,-5.333940438074275708e-05
2.068253968253968456e+00,-6.392662593288834963e-05,-6.881963178179541056e-05
2.069047619047619246e+00,-5.300471205717938302e-05,-7.786475778673056702e-05
2.069841269841270037e+00,-3.746247041295284162e-05,-7.912769625589950934e-05
2.070634920634920828e+00,-1.986456803832134125e-05,-7.272059508602156527e-05
2.071428571428571619e+00,-2.922834092820942845e-06,-6.007677703486957927e-05
2.072222222222222410e+00,1.099635277351597178e-05,-4.351837114169394887e-05
2.073015873015873201e+00,2.025141492308166479e-05,-2.567187708913274278e-05
2.073809523809523991e+00,2.413230525344940822e-05,-8.904538583795461269e-06
2.074603174603174782e+00,2.287392760595286775e-05,5.075241491580882462e-06
2.075396825396825573e+00,1.749644657720123361e-05,1.538409001229258593e-05
2.076190476190476364e+00,9.527121652735472777e-06,2.191122836246205873e-05
2.076984126984127155e+00,6.758947001297230978e-07,2.512226751930188808e-05
2.077777777777777946e+00,-7.466062416294451108e-06,2.581335871210368974e-05
2.078571428571428736e+00,-1.365370427356977531e-05,2.489354448159725359e-05
2.079365079365079527e+00,-1.711443947545195998e-05,2.323789315910742512e-05
2.080158730158730318e+00,-1.757118539908976228e-05,2.161536353481091613e-05
2.080952380952381109e+00,-1.518209804431082041e-05,2.066510005918083988e-05
2.081746031746031900e+00,-1.043242834420088971e-05,2.088220057402628800e-05
2.082539682539682691e+00,-4.017108194965533614e-06,2.258314277526676507e-05
2.083333333333333481e+00,3.258719953147118706e-06,2.584664472221062260e-05
2.084126984126984272e+00,1.055352809571735708e-05,3.045285988294189832e-05
2.084920634920635063e+00,1.704611659056583112e-05,3.585703435358380593e-05
2.085714285714285854e+00,2.198994434734709481e-05,4.122814818054980644e-05
2.086507936507936645e+00,2.477609604902108033e-05,4.556425677310501591e-05
2.087301587301587436e+00,2.500510774228594055e-05,4.787207580240508882e-05
2.088095238095238226e+00,2.255459418714821912e-05,4.737565595772932295e-05
2.088888888888889017e+00,1.761988259337249324e-05,4.370510711322463066e-05
2.089682539682539808e+00,1.070225310159417077e-05,3.701626267166543732e-05
2.090476190476190599e+00,2.525278095224706872e-06,2.800504996317048956e-05
2.091269841269841390e+00,-6.122673012207604162e-06,1.780220563571035042e-05
2.092063492063492181e+00,-1.459126698910208098e-05,7.761709791219598579e-06
2.092857142857142971e+00,-2.255523394974501023e-05,-8.142529687968525402e-07
2.093650793650793762e+00,-3.011028765784535662e-05,-6.948325296898229628e-06
2.094444444444444553e+00,-3.772171606692439720e-05,-1.018835846587157587e-05
2.095238095238095344e+00,-4.601753629839125853e-05,-1.068260678263873933e-05
2.096031746031746135e+00,-5.547363744462088716e-05,-9.112885817533504691e-06
2.096825396825396925e+00,-6.607600760336197309e-05,-6.507672385999386707e-06
2.097619047619047716e+00,-7.705400274120760866e-05,-3.986779475429216023e-06
2.098412698412698507e+00,-8.676806241533512769e-05,-2.504741519491599578e-06
2.099206349206349298e+00,-9.281825968081670387e-05,-2.658607405162690377e-06
2.100000000000000089e+00,-9.241208481526727234e-05,-4.604655939701507267e-06
2.100793650793650880e+00,-8.297426116983336807e-05,-8.091414470587492225e-06
2.101587301587301670e+00,-6.289746294670960406e-05,-1.257777675582374436e-05
2.102380952380952461e+00,-3.224990921188444027e-05,-1.738337483535394093e-05
2.103174603174603252e+00,6.784372084310460191e-06,-2.182308435785208827e-05
2.103968253968254043e+00,4.992671873529736187e-05,-2.530153236660529463e-05
2.104761904761904834e+00,9.137740061320275670e-05,-2.736896882361240918e-05
2.105555555555555625e+00,1.248780272970057264e-04,-2.775287053351324396e-05
2.106349206349206415e+00,1.450377417169672377e-04,-2.637830864260962247e-05
2.107142857142857206e+00,1.485866946199565009e-04,-2.338081201880777468e-05
2.107936507936507997e+00,1.352064943399361658e-04,-1.910542836635740455e-05
2.108730158730158788e+00,1.076860879198103874e-04,-1.408031444919912040e-05
2.109523809523809579e+00,7.133656029025461768e-05,-8.955653809431200882e-06
2.110317460317460370e+00,3.281256240687418130e-05,-4.408444391776310561e-06
2.111111111111111160e+00,-1.338130698267074699e-06,-1.026473286392533399e-06
2.111904761904761951e+00,-2.600514872954639840e-05,8.045553127020331759e-07
2.112698412698412742e+00,-3.839750290596052629e-05,9.823583006625324861e-07
2.113492063492063533e+00,-3.831677837609382157e-05,-2.862248259692863350e-07
2.114285714285714324e+00,-2.785718440458429565e-05,-2.526794314098661989e-06
2.115079365079365115e+00,-1.071189381874771929e-05,-5.100858793927381294e-06
2.115873015873015905e+00,8.679340020078913794e-06,-7.348940025600494570e-06
2.116666666666666696e+00,2.593034232161907376e-05,-8.738252971098302855e-06
2.117460317460317487e+00,3.732438315083028087e-05,-8.975540375507949040e-06
2.118253968253968278e+00,4.021859412408003198e-05,-8.053465292754599569e-06
2.119047619047619069e+00,3.329726630280008661e-05,-6.218745551409297356e-06
2.119841269841269860e+00,1.675451566515082080e-05,-3.875646427812417002e-06
2.120634920634920650e+00,-7.576310526132248161e-06,-1.459179119716402574e-06
2.121428571428571441e+00,-3.622933174038220930e-05,6.805168907758154258e-07
2.122222222222222232e+00,-6.438644608786837551e-05,2.349614421576760011e-06
2.123015873015873023e+00,-8.652308832167839242e-05,3.523473002113953376e-06
2.123809523809523814e+00,-9.738356892499078969e-05,4.306688022684663247e-06
2.124603174603174605e+00,-9.311312373456175518e-05,4.860567786739142472e-06
2.125396825396825395e+00,-7.229197964218608689e-05,5.323637391794102655e-06
2.126190476190476186e+00,-3.660817277246882970e-05,5.748015818458257801e-06
2.126984126984126977e+00,9.041375613903292771e-06,6.068366212736284276e-06
2.127777777777777768e+00,5.713015174023787106e-05,6.114000233743715819e-06
2.128571428571428559e+00,9.872984000107639659e-05,5.666373008999843616e-06
2.129365079365079350e+00,1.251982873846153486e-04,4.549763561405063330e-06
2.130158730158730140e+00,1.300050487056171079e-04,2.726085806994572965e-06
2.130952380952380931e+00,1.103010366286611907e-04,3.566932682276775288e-07
2.131746031746031722e+00,6.785623324197302643e-05,-2.197967449465727029e-06
2.132539682539682513e+00,9.093183333367607245e-06,-4.449257410242315156e-06
2.133333333333333304e+00,-5.588320689957320525e-05,-5.905529721815790311e-06
2.134126984126984095e+00,-1.151350129240591495e-04,-6.214322379067947206e-06
2.134920634920634885e+00,-1.572562122621158295e-04,-5.272892979627974976e-06
2.135714285714285676e+00,-1.737163822066444278e-04,-3.263364119770451355e-06
2.136507936507936467e+00,-1.606275908259109197e-04,-5.950241234226412416e-07
2.137301587301587258e+00,-1.195296270994437437e-04,2.222567191010623703e-06
2.138095238095238049e+00,-5.703677099199382067e-05,4.718638565911020405e-06
2.138888888888888840e+00,1.654928820131851654e-05,6.553093124108283032e-06
2.139682539682539630e+00,8.932773680951538509e-05,7.532062581749372544e-06
2.140476190476190421e+00,1.500992546304418408e-04,7.558540652182531584e-06
2.141269841269841212e+00,1.903557480861905852e-04,6.557278207487204165e-06
2.142063492063492003e+00,2.055462424026688740e-04,4.422075672850309515e-06
2.142857142857142794e+00,1.954245588180618701e-04,1.028213161290733205e-06
2.143650793650793585e+00,1.635368915809639386e-04,-3.668464739290238169e-06
2.144444444444444375e+00,1.161149226656103031e-04,-9.465663019984282419e-06
2.145238095238095166e+00,6.073768488532318256e-05,-1.575041787802758771e-05
2.146031746031745957e+00,5.086529545619370235e-06,-2.142913442415042108e-05
2.146825396825396748e+00,-4.402009523864600538e-05,-2.502217901736831398e-05
2.147619047619047539e+00,-8.127693854701190373e-05,-2.493547007719719365e-05
2.148412698412698330e+00,-1.032837903777005238e-04,-1.985897736155495426e-05
2.149206349206349120e+00,-1.087468333346004951e-04,-9.197513667491901841e-06
2.149999999999999911e+00,-9.851786802719896647e-05,6.581545703742496256e-06
2.150793650793650702e+00,-7.545398675656673983e-05,2.579524629455498823e-05
2.151587301587301493e+00,-4.405904168212899349e-05,4.566624427395336600e-05
2.152380952380952284e+00,-9.882005157704546301e-06,6.273696019591448194e-05
2.153174603174603075e+00,2.130270917856387939e-05,7.351899495621146456e-05
2.153968253968253865e+00,4.442934332294769880e-05,7.525068167876573474e-05
2.154761904761904656e+00,5.600871784858598329e-05,6.659351107661084569e-05
2.155555555555555447e+00,5.472122170865320644e-05,4.809417069939896940e-05
2.156349206349206238e+00,4.157662783569749651e-05,2.227577686247451247e-05
2.157142857142857029e+00,1.959745111443709812e-05,-6.704740663325849511e-06
2.157936507936507819e+00,-6.887294925308837759e-06,-3.379875382402771245e-05
2.158730158730158610e+00,-3.315897049400096179e-05,-5.407181717077172136e-05
2.159523809523809401e+00,-5.503348635083228765e-05,-6.375614096850469581e-05
2.160317460317460192e+00,-6.962673663512609391e-05,-6.109586340306911631e-05
2.161111111111110983e+00,-7.585875553268557278e-05,-4.676118579345025399e-05
2.161904761904761774e+00,-7.464240934863582025e-05,-2.371039028060325043e-05
2.162698412698412564e+00,-6.871655919398878649e-05,3.468808230044717128e-06
2.163492063492063355e+00,-6.208594614926174764e-05,2.955834435571116933e-05
2.164285714285714146e+00,-5.907330345920699011e-05,4.978106253642671040e-05
2.165079365079364937e+00,-6.310521609648922687e-05,6.067798889209923826e-05
2.165873015873015728e+00,-7.550519456761209261e-05,6.060740572371995158e-05
2.166666666666666519e+00,-9.466692500295196568e-05,4.980710287323643158e-05
2.167460317460317309e+00,-1.159542960615311206e-04,3.008833106608928089e-05
2.168253968253968100e+00,-1.325071100002399522e-04,4.319484675539123231e-06
2.169047619047618891e+00,-1.368616066633646751e-04,-2.412096585288738408e-05
2.169841269841269682e+00,-1.230031810614809137e-04,-5.179328103719478099e-05
2.170634920634920473e+00,-8.826397734398115495e-05,-7.550700680050953083e-05
2.171428571428571264e+00,-3.446260668234827588e-05,-9.252908462646816754e-05
2.172222222222222054e+00,3.210890150267266095e-05,-1.007529399423935722e-04
2.173015873015872845e+00,1.018862744659730001e-04,-9.887158074535246522e-05
2.173809523809523636e+00,1.640901817118574845e-04,-8.655580420236518339e-05
2.174603174603174427e+00,2.090650893043522211e-04,-6.460279887762366961e-05
2.175396825396825218e+00,2.302729500126317742e-04,-3.500045164799259575e-05
2.176190476190476009e+00,2.254487647836772243e-04,-8.455773270873911655e-07
2.176984126984126799e+00,1.966964440932576395e-04,3.393618367851600898e-05
2.177777777777777590e+00,1.496251464075722278e-04,6.508255969473371327e-05
2.178571428571428381e+00,9.188533874870442614e-05,8.864548027658937512e-05
2.179365079365079172e+00,3.156898111392438997e-05,1.016767764931015682e-04
2.180158730158729963e+00,-2.412651379547910250e-05,1.027861094440449740e-04
2.180952380952380754e+00,-6.974469802646670767e-05,9.242018782924967110e-05
2.181746031746031544e+00,-1.018958864664980523e-04,7.277286054703541879e-05
2.182539682539682335e+00,-1.191784921924081983e-04,4.732979468296248139e-05
2.183333333333333126e+00,-1.218769304536494546e-04,2.015326675920433742e-05
2.184126984126983917e+00,-1.115979653690276323e-04,-4.912730712722224351e-06
2.184920634920634708e+00,-9.093150373287075118e-05,-2.492066799213502726e-05
2.185714285714285499e+00,-6.313772943469151105e-05,-3.823537231230629243e-05
2.186507936507936289e+00,-3.182075799715637193e-05,-4.463542794483798848e-05
2.187301587301587080e+00,-5.709800929868741803e-07,-4.513780546810796789e-05
2.188095238095238315e+00,2.738469068163499362e-05,-4.163263840807345949e-05
2.188888888888889106e+00,4.945049394670395567e-05,-3.641981591109954549e-05
2.189682539682539897e+00,6.379618674950787683e-05,-3.172531684749599958e-05
2.190476190476190688e+00,6.937340492839310442e-05,-2.926827500897077067e-05
2.191269841269841478e+00,6.588946719886473822e-05,-2.994780254680238027e-05
2.192063492063492269e+00,5.382096743185088643e-05,-3.370043627581981828e-05
2.192857142857143060e+00,3.449442324551826893e-05,-3.953786394847796183e-05
2.193650793650793851e+00,1.017969119536471593e-05,-4.573243998466268516e-05
2.194444444444444642e+00,-1.591520751747900958e-05,-5.010180660428282357e-05
2.195238095238095433e+00,-3.986117957520909661e-05,-5.035625361667973084e-05
2.196031746031746223e+00,-5.749661309430004582e-05,-4.449153380299351163e-05
2.196825396825397014e+00,-6.515344263992795730e-05,-3.121068741143209882e-05
2.197619047619047805e+00,-6.047902117923038839e-05,-1.033106467403288652e-05
2.198412698412698596e+00,-4.312995105055824604e-05,1.690999427686245898e-05
2.199206349206349387e+00,-1.510380215673993147e-05,4.776478906345542959e-05
2.200000000000000178e+00,1.944280600294090450e-05,7.819754628103621843e-05
2.200793650793650968e+00,5.489331071338593985e-05,1.034498330223516244e-04
2.201587301587301759e+00,8.523685294942478943e-05,1.188810521928202585e-04
2.202380952380952550e+00,1.052448156092488778e-04,1.209175460338575008e-04
2.203174603174603341e+00,1.114771925210983913e-04,1.078805718193198444e-04
2.203968253968254132e+00,1.028930965304697805e-04,8.046574362323539954e-05
2.204761904761904923e+00,8.095121444125468867e-05,4.172609326884076396e-05
2.205555555555555713e+00,4.921415028841443775e-05,-3.452734135926811426e-06
2.206349206349206504e+00,1.257805562078372598e-05,-4.925212487851244692e-05
2.207142857142857295e+00,-2.368584540376480631e-05,-8.996183974720603157e-05
2.207936507936508086e+00,-5.487192632466460825e-05,-1.209047381918081158e-04
2.208730158730158877e+00,-7.757771826666271951e-05,-1.390388339580250255e-04
2.209523809523809668e+00,-9.010688194893668682e-05,-1.431425938850553565e-04
2.210317460317460458e+00,-9.248584193564600398e-05,-1.336252304246553853e-04
2.211111111111111249e+00,-8.613336756200208545e-05,-1.121128536463919637e-04
2.211904761904762040e+00,-7.330185452842796648e-05,-8.099998869226052319e-05
2.212698412698412831e+00,-5.645532611058904764e-05,-4.311329886767137993e-05
2.213492063492063622e+00,-3.775141427899844035e-05,-1.537625574635745790e-06
2.214285714285714413e+00,-1.875247086252658767e-05,4.044623839355524088e-05
2.215079365079365203e+00,-4.113764933289940079e-07,7.941850112593519984e-05
2.215873015873015994e+00,1.671990122994334812e-05,1.119686444931318459e-04
2.216666666666666785e+00,3.218930477056130630e-05,1.349744755104849089e-04
2.217460317460317576e+00,4.540271736999686424e-05,1.459858221628600964e-04
2.218253968253968367e+00,5.554826172023400366e-05,1.436407945557070906e-04
2.219047619047619158e+00,6.171401278462864716e-05,1.280222363401797012e-04
2.219841269841269948e+00,6.314964850043296119e-05,1.008617844607463432e-04
2.220634920634920739e+00,5.956947713150965426e-05,6.551416992129099643e-05
2.221428571428571530e+00,5.137080626847448817e-05,2.665428204464172359e-05
2.222222222222222321e+00,3.966019152886969188e-05,-1.030612305748243988e-05
2.223015873015873112e+00,2.605080973124769989e-05,-4.002922369711307154e-05
2.223809523809523903e+00,1.229393573651920512e-05,-5.817519729984527578e-05
2.224603174603174693e+00,-1.192086527093278369e-07,-6.226876266762738314e-05
2.225396825396825484e+00,-1.024500486108343350e-05,-5.230342882264634146e-05
2.226190476190476275e+00,-1.778372207670335722e-05,-3.089283884364939014e-05
2.226984126984127066e+00,-2.298446806868427442e-05,-2.861632826103822645e-06
2.227777777777777857e+00,-2.641927141163889683e-05,2.568730280158997115e-05
2.228571428571428648e+00,-2.871150648668976043e-05,4.863243735930352252e-05
2.229365079365079438e+00,-3.029977702774143481e-05,6.111241626453750857e-05
2.230158730158730229e+00,-3.129837980375265458e-05,6.050180418409023927e-05
2.230952380952381020e+00,-3.148629856774943185e-05,4.684982675109233515e-05
2.231746031746031811e+00,-3.042024670629246984e-05,2.270711138429654924e-05
2.232539682539682602e+00,-2.762980789061631617e-05,-7.561665854025023864e-06
2.233333333333333393e+00,-2.282825095506107923e-05,-3.875643938138212798e-05
2.234126984126984183e+00,-1.607410881677686027e-05,-6.585510665951121870e-05
2.234920634920634974e+00,-7.844576063618239524e-06,-8.485912454782884606e-05
2.235714285714285765e+00,9.856045632912927974e-07,-9.336060672458871548e-05
2.236507936507936556e+00,9.245451421791337673e-06,-9.079404160564339451e-05
2.237301587301587347e+00,1.562980534838704426e-05,-7.837662246203982129e-05
2.238095238095238138e+00,1.890364352109596751e-05,-5.876912215454927206e-05
2.238888888888888928e+00,1.812818983925363768e-05,-3.552147825528964705e-05
2.239682539682539719e+00,1.288091160208006425e-05,-1.240144499057069470e-05
2.240476190476190510e+00,3.429883876147794898e-06,7.270775942045735641e-06
2.241269841269841301e+00,-9.187143924547940720e-06,2.115558518832112670e-05
2.242063492063492092e+00,-2.322607419799167797e-05,2.819397431378078741e-05
2.242857142857142883e+00,-3.646376545081246850e-05,2.862693151134900632e-05
2.243650793650793673e+00,-4.656476307698771623e-05,2.375359064524590271e-05
2.244444444444444464e+00,-5.151428924902843085e-05,1.550670961606402665e-05
2.245238095238095255e+00,-5.001643459292993158e-05,5.957851980691547383e-06
2.246031746031746046e+00,-4.176175477332777025e-05,-3.133433413438238237e-06
2.246825396825396837e+00,-2.750258288300705384e-05,-1.063610842164665170e-05
2.247619047619047628e+00,-8.923696048119182471e-06,-1.617666195972075751e-05
2.248412698412698418e+00,1.165390126277825986e-05,-2.006703040233865252e-05
2.249206349206349209e+00,3.166185752488249707e-05,-2.305695544346206654e-05
2.250000000000000000e+00,4.868183645259334321e-05,-2.597690207999058711e-05
2.250793650793650791e+00,6.078497262029310827e-05,-2.937422233021092668e-05
2.251587301587301582e+00,6.677711839268199825e-05,-3.325993804145396229e-05
2.252380952380952372e+00,6.633500271998021402e-05,-3.705736017299281096e-05
2.253174603174603163e+00,6.002180017924758275e-05,-3.977524534036960672e-05
2.253968253968253954e+00,4.916663310984917685e-05,-4.034255334295641724e-05
2.254761904761904745e+00,3.560523101697929789e-05,-3.798015357203518057e-05
2.255555555555555536e+00,2.132124654538234036e-05,-3.247699698901930141e-05
2.256349206349206327e+00,8.077844700383911674e-06,-2.428284848352632049e-05
2.257142857142857117e+00,-2.856428404502506951e-06,-1.439929639288491477e-05
2.257936507936507908e+00,-1.082449638940709738e-05,-4.115088236073250448e-06
2.258730158730158699e+00,-1.574531188523816159e-05,5.326982770256379888e-06
2.259523809523809490e+00,-1.797896299924942439e-05,1.303219597345387332e-05
2.260317460317460281e+00,-1.815276154636608354e-05,1.864092331451120660e-05
2.261111111111111072e+00,-1.699213945515351624e-05,2.235300686673090921e-05
2.261904761904761862e+00,-1.518282787092389464e-05,2.479057972768455690e-05
2.262698412698412653e+00,-1.327894654008468369e-05,2.675011313828093280e-05
2.263492063492063444e+00,-1.166000005450061399e-05,2.893021263381063000e-05
2.264285714285714235e+00,-1.052857550645708371e-05,3.172677002438290775e-05
2.265079365079365026e+00,-9.935948111967517196e-06,3.515529776306923135e-05
2.265873015873015817e+00,-9.825582561399434639e-06,3.890583904383023767e-05
2.266666666666666607e+00,-1.008781891452788110e-05,4.248614604672164502e-05
2.267460317460317398e+00,-1.061732020291798825e-05,4.538562948020080678e-05
2.268253968253968189e+00,-1.135991980570023284e-05,4.720075684229693881e-05
2.269047619047618980e+00,-1.233320218312004904e-05,4.769275566011479397e-05
2.269841269841269771e+00,-1.360939755880369230e-05,4.678468829002511113e-05
2.270634920634920562e+00,-1.525993169831651737e-05,4.453025794981584030e-05
2.271428571428571352e+00,-1.727522655172434411e-05,4.108926878745343468e-05
2.272222222222222143e+00,-1.948602079132834470e-05,3.672534181419716384e-05
2.273015873015872934e+00,-2.151824386166197302e-05,3.181474089997538799e-05
2.273809523809523725e+00,-2.280943322183947298e-05,2.683811868681156850e-05
2.274603174603174516e+00,-2.270058608993700882e-05,2.232780549272869136e-05
2.275396825396825307e+00,-2.059432530702783935e-05,1.876151875886723165e-05
2.276190476190476097e+00,-1.614314069259882803e-05,1.642442022300371680e-05
2.276984126984126888e+00,-9.411465871649456568e-06,1.529250440050274835e-05
2.277777777777777679e+00,-9.543709159227256901e-07,1.499935758552779946e-05
2.278571428571428470e+00,8.223955477313326501e-06,1.492077775547463007e-05
2.279365079365079261e+00,1.683476845128808794e-05,1.435903931443068424e-05
2.280158730158730052e+00,2.355764897703059788e-05,1.276150427943503324e-05
2.280952380952380842e+00,2.731641192262917241e-05,9.891294027540933976e-06
2.281746031746031633e+00,2.750293104317563968e-05,5.885699860231536619e-06
2.282539682539682424e+00,2.409368712148055779e-05,1.182181559608241236e-06
2.283333333333333215e+00,1.764432400365116137e-05,-3.654236279855187848e-06
2.284126984126984006e+00,9.184633495657717876e-06,-8.128026851168994120e-06
2.284920634920634797e+00,5.194287271116169206e-08,-1.195536063001036815e-05
2.285714285714285587e+00,-8.304588232813199649e-06,-1.510499286269442890e-05
2.286507936507936378e+00,-1.452938261575762047e-05,-1.774156537859383116e-05
2.287301587301587169e+00,-1.756371298512455795e-05,-2.011358392778413211e-05
2.288095238095237960e+00,-1.683056332555036739e-05,-2.243854283260331438e-05
2.288888888888888751e+00,-1.237054317036773690e-05,-2.482291145379285916e-05
2.289682539682539542e+00,-4.884858324619613531e-06,-2.723121063268387564e-05
2.290476190476190332e+00,4.355017499639086223e-06,-2.950102369476563974e-05
2.291269841269841123e+00,1.373989397345513155e-05,-3.139302690863320853e-05
2.292063492063491914e+00,2.165527612474339952e-05,-3.266186367966287428e-05
2.292857142857142705e+00,2.682624671726077759e-05,-3.313068599838804156e-05
2.293650793650793496e+00,2.857516000068498980e-05,-3.275031908988970030e-05
2.294444444444444287e+00,2.692101128291935039e-05,-3.162632845409995582e-05
2.295238095238095077e+00,2.250434201681745180e-05,-3.000512963390403943e-05
2.296031746031745868e+00,1.637698327169430449e-05,-2.822179823593152300e-05
2.296825396825396659e+00,9.729503505111347655e-06,-2.662320576232852750e-05
2.297619047619047450e+00,3.632939057381723543e-06,-2.548661737530526653e-05
2.298412698412698241e+00,-1.148124044188292928e-06,-2.495454804375486687e-05
2.299206349206349032e+00,-4.243653774540178266e-06,-2.500224222649437137e-05
2.299999999999999822e+00,-5.668471333065599426e-06,-2.544568615374623202e-05
2.300793650793650613e+00,-5.736943538455087339e-06,-2.598693868654712664e-05
2.301587301587301404e+00,-4.935824160035246528e-06,-2.628305202506657246e-05
2.302380952380952195e+00,-3.790539304284879014e-06,-2.601951312698163923e-05
2.303174603174602986e+00,-2.753192202241483633e-06,-2.497125514141898051e-05
2.303968253968253777e+00,-2.128743238283845805e-06,-2.304150955569296062e-05
2.304761904761904567e+00,-2.044030157513226005e-06,-2.027592440427262278e-05
2.305555555555555358e+00,-2.455850503094998751e-06,-1.685284665405535685e-05
2.306349206349206149e+00,-3.189534512791344299e-06,-1.305112690332788237e-05
2.307142857142856940e+00,-3.996637342526208338e-06,-9.197711796773361471e-06
2.307936507936507731e+00,-4.618549127899055094e-06,-5.601070197386127414e-06
2.308730158730158522e+00,-4.842827001629091835e-06,-2.482338018442012274e-06
2.309523809523809312e+00,-4.542171857245468647e-06,7.934149547422418490e-08
2.310317460317460103e+00,-3.691730588551094193e-06,2.170854624922706002e-06
2.311111111111110894e+00,-2.366430847874210949e-06,4.028090140878098560e-06
2.311904761904761685e+00,-7.238113294947574214e-07,5.978016687299844002e-06
2.312698412698412920e+00,1.021723253946429790e-06,8.352172562244481284e-06
2.313492063492063711e+00,2.629156160095848090e-06,1.139353272832913454e-05
2.314285714285714501e+00,3.863610209433036941e-06,1.518205531885189047e-05
2.315079365079365292e+00,4.529988108874770199e-06,1.959931183217949671e-05
2.315873015873016083e+00,4.504320683247388650e-06,2.434067998576801438e-05
2.316666666666666874e+00,3.757466026700700620e-06,2.896877049818727377e-05
2.317460317460317665e+00,2.365050085202309699e-06,3.298984500066094006e-05
2.318253968253968456e+00,4.995149306755278277e-07,3.593099178547427293e-05
2.319047619047619246e+00,-1.595429913105081837e-06,3.740114232540291090e-05
2.319841269841270037e+00,-3.642747412261160494e-06,3.713008799613817958e-05
2.320634920634920828e+00,-5.374431409481573448e-06,3.499010064077911911e-05
2.321428571428571619e+00,-6.570871289581295405e-06,3.100952461909412547e-05
2.322222222222222410e+00,-7.092398364295714927e-06,2.538568159110432876e-05
2.323015873015873201e+00,-6.900432840268386355e-06,1.849756302918792461e-05
2.323809523809523991e+00,-6.066233779616314164e-06,1.091031386121963623e-05
2.324603174603174782e+00,-4.764748897136558773e-06,3.357467666774446311e-06
2.325396825396825573e+00,-3.251342420435527229e-06,-3.313109294735283182e-06
2.326190476190476364e+00,-1.821833831625849433e-06,-8.236822650921557724e-06
2.326984126984127155e+00,-7.610820206073386160e-07,-1.066942054186395216e-05
2.327777777777777946e+00,-2.902047263752961409e-07,-1.014630465078111630e-05
2.328571428571428736e+00,-5.245374162677279579e-07,-6.633920893211156424e-06
2.329365079365079527e+00,-1.451578894633861320e-06,-6.326683255069895312e-07
2.330158730158730318e+00,-2.931567770320215508e-06,6.812791972717944611e-06
2.330952380952381109e+00,-4.717489607697453952e-06,1.423017907329741734e-05
2.331746031746031900e+00,-6.489935224131717208e-06,1.996961625625249108e-05
2.332539682539682691e+00,-7.904047909194597440e-06,2.255080762521980269e-05
2.333333333333333481e+00,-8.646195484381847152e-06,2.102796858815813181e-05
2.334126984126984272e+00,-8.494317773365870930e-06,1.526891948457203903e-05
2.334920634920635063e+00,-7.370060466877353673e-06,6.054316384186762220e-06
2.335714285714285854e+00,-5.367597814465011750e-06,-5.051562564674586557e-06
2.336507936507936645e+00,-2.747399253074317706e-06,-1.603842280324558139e-05
2.337301587301587436e+00,1.071625606259324500e-07,-2.490748095756505846e-05
2.338095238095238226e+00,2.761433176914817187e-06,-3.011818126079058593e-05
2.338888888888889017e+00,4.813393876748994563e-06,-3.089611462070002677e-05
2.339682539682539808e+00,5.972177774258867904e-06,-2.732435700480035376e-05
2.340476190476190599e+00,6.114719631039857812e-06,-2.021895531901819946e-05
2.341269841269841390e+00,5.307274902728396458e-06,-1.086135121289537518e-05
2.342063492063492181e+00,3.785265795515656830e-06,-6.944193207148430420e-07
2.342857142857142971e+00,1.895753519704541437e-06,8.925291308265494150e-06
2.343650793650793762e+00,1.837635214993727406e-08,1.687384482569674092e-05
2.344444444444444553e+00,-1.513044183398979869e-06,2.231421010737904564e-05
2.345238095238095344e+00,-2.468494644811552651e-06,2.470632803438345344e-05
2.346031746031746135e+00,-2.749239508346826992e-06,2.382583723204028761e-05
2.346825396825396925e+00,-2.385813069744379717e-06,1.981285518485788823e-05
2.347619047619047716e+00,-1.515006097501568748e-06,1.322205081264805123e-05
2.348412698412698507e+00,-3.460597239923270143e-07,5.010684251649367526e-06
2.349206349206349298e+00,8.762637685088805032e-07,-3.589179816230723228e-06
2.350000000000000089e+00,1.907931425402189818e-06,-1.131323857893754554e-05
2.350793650793650880e+00,2.540160879170239979e-06,-1.715039692784644650e-05
2.351587301587301670e+00,2.631908624206617699e-06,-2.055616505209565594e-05
2.352380952380952461e+00,2.138922150276414864e-06,-2.149626765954256951e-05
2.353174603174603252e+00,1.135387516455344365e-06,-2.029823790205538363e-05
2.353968253968254043e+00,-1.788105676824682527e-07,-1.738313619692002015e-05
2.354761904761904834e+00,-1.493184806194658651e-06,-1.300941078669592594e-05
2.355555555555555625e+00,-2.428346672977252835e-06,-7.154127755034742566e-06
2.356349206349206415e+00,-2.600519294443000166e-06,4.092847028651269800e-07
2.357142857142857206e+00,-1.697214136354748261e-06,9.866452867174275884e-06
2.357936507936507997e+00,4.504797196661206139e-07,2.105190871606000280e-05
2.358730158730158788e+00,3.811266734184876871e-06,3.320503253250449324e-05
2.359523809523809579e+00,8.121401096291165487e-06,4.490763512492807543e-05
2.360317460317460370e+00,1.288407583241815689e-05,5.426278233653311769e-05
2.361111111111111160e+00,1.740804331782524507e-05,5.929363930981325527e-05
2.361904761904761951e+00,2.089240112830026294e-05,5.845951050794628406e-05
2.362698412698412742e+00,2.255970389851110871e-05,5.113235878912535381e-05
2.363492063492063533e+00,2.182900959082335497e-05,3.787150005429256713e-05
2.364285714285714324e+00,1.850482912548252919e-05,2.038204342897895519e-05
2.365079365079365115e+00,1.293998770739547732e-05,1.135859133834380273e-06
2.365873015873015905e+00,6.113945592776327959e-06,-1.724855934682758510e-05
2.366666666666666696e+00,-4.403304959770879429e-07,-3.266884696850857870e-05
2.367460317460317487e+00,-4.914596223458064286e-06,-4.401221357276306306e-05
2.368253968253968278e+00,-5.708935293926488560e-06,-5.127671844578635124e-05
2.369047619047619069e+00,-2.024255793891037455e-06,-5.532528227001202764e-05
2.369841269841269860e+00,5.636799731363517689e-06,-5.740613267104613832e-05
2.370634920634920650e+00,1.530328759192017347e-05,-5.864556702910605389e-05
2.371428571428571441e+00,2.387528737998053464e-05,-5.969060213151179857e-05
2.372222222222222232e+00,2.796865306024342961e-05,-6.058510291413743420e-05
2.373015873015873023e+00,2.506039855055128276e-05,-6.086214438445827497e-05
2.373809523809523814e+00,1.457156174802211021e-05,-5.977309808663467880e-05
2.374603174603174605e+00,-1.525491973319412571e-06,-5.656199600818567958e-05
2.375396825396825395e+00,-1.888827499588902894e-05,-5.071199705986726222e-05
2.376190476190476186e+00,-3.184059033576695097e-05,-4.211217704858109036e-05
2.376984126984126977e+00,-3.501657319145125779e-05,-3.111058180338441243e-05
2.377777777777777768e+00,-2.511395094731029830e-05,-1.844464583453130947e-05
2.378571428571428559e+00,-2.182081472649437903e-06,-5.074996743761866590e-06
2.379365079365079350e+00,3.000172550767699588e-05,8.023167911625598910e-06
2.380158730158730140e+00,6.463717843390691658e-05,2.005073655208331477e-05
2.380952380952380931e+00,9.352830511691602954e-05,3.050962921220340285e-05
2.381746031746031722e+00,1.091893778642512151e-04,3.923417632438761714e-05
2.382539682539682513e+00,1.068170932576661877e-04,4.632442465006368090e-05
2.383333333333333304e+00,8.551927825339838269e-05,5.200493297336868548e-05
2.384126984126984095e+00,4.840247620518415374e-05,5.645867317076641090e-05
2.384920634920634885e+00,1.516813779328768359e-06,5.969560669944001211e-05
2.385714285714285676e+00,-4.790691971610591161e-05,6.150186006353920622e-05
2.386507936507936467e+00,-9.323863302430401357e-05,6.148507623545367137e-05
2.387301587301587258e+00,-1.296381329282726182e-04,5.919970834443485892e-05
2.388095238095238049e+00,-1.543991843430063513e-04,5.431482602250618200e-05
2.388888888888888840e+00,-1.666030150723556125e-04,4.677810613668183237e-05
2.389682539682539630e+00,-1.664702972633857244e-04,3.692725297900142922e-05
2.390476190476190421e+00,-1.547964593952519960e-04,2.550234389463524925e-05
2.391269841269841212e+00,-1.326955712706540482e-04,1.352795920109080662e-05
2.392063492063492003e+00,-1.016828953825901132e-04,2.071325649937899412e-06
2.392857142857142794e+00,-6.397083188236614632e-05,-8.063403519155190320e-06
2.393650793650793585e+00,-2.276441920042451288e-05,-1.659676157514705351e-05
2.394444444444444375e+00,1.767170915493516386e-05,-2.387062375633600440e-05
2.395238095238095166e+00,5.234195968011218518e-05,-3.070081290199733740e-05
2.396031746031745957e+00,7.628605296675758829e-05,-3.799833543618731484e-05
2.396825396825396748e+00,8.566361785633211953e-05,-4.627789786696810280e-05
2.397619047619047539e+00,7.887960399175991482e-05,-5.523999446687948164e-05
2.398412698412698330e+00,5.736898660315453073e-05,-6.360603578289087887e-05
2.399206349206349120e+00,2.567285974414405570e-05,-6.930709805446161006e-05
2.399999999999999911e+00,-9.380862567679432756e-06,-7.000800494044777476e-05
2.400793650793650702e+00,-4.025501614940275825e-05,-6.382958340362689630e-05
2.401587301587301493e+00,-6.057107898283176301e-05,-5.005014087591791580e-05
2.402380952380952284e+00,-6.664877257232077693e-05,-2.955272765260538029e-05
2.403174603174603075e+00,-5.822888368941427914e-05,-4.849954691790857098e-06
2.403968253968253865e+00,-3.822466096243666388e-05,2.035496143935830460e-05
2.404761904761904656e+00,-1.169069426216212833e-05,4.196858666699513040e-05
2.405555555555555447e+00,1.560307160933206697e-05,5.645648151157968918e-05
2.406349206349206238e+00,3.857797899173833015e-05,6.168493376357735223e-05
2.407142857142857029e+00,5.390712881617833646e-05,5.743033337963384635e-05
2.407936507936507819e+00,6.053883687777479746e-05,4.542503815750079961e-05
2.408730158730158610e+00,5.963559681851100108e-05,2.893497796151840189e-05
2.409523809523809401e+00,5.400776830369340462e-05,1.198436302756482762e-05
2.410317460317460192e+00,4.721570738010477647e-05,-1.576804887520851495e-06
2.411111111111110983e+00,4.256729033860035764e-05,-8.940673352841440528e-06
2.411904761904761774e+00,4.224531983447514055e-05,-8.946767780806798938e-06
2.412698412698412564e+00,4.676051873532528319e-05,-2.287265241632380519e-06
2.413492063492063355e+00,5.484732445380440484e-05,8.736584751931262519e-06
2.414285714285714146e+00,6.381829393216440632e-05,2.084958254584464509e-05
2.415079365079364937e+00,7.029120234068761636e-05,3.066767294657859826e-05
2.415873015873015728e+00,7.112004499166842792e-05,3.556198948467736098e-05
2.416666666666666519e+00,6.430834942355331916e-05,3.428692714239403707e-05
2.417460317460317309e+00,4.966792515506184355e-05,2.720673755268357991e-05
2.418253968253968100e+00,2.901964963739351236e-05,1.607591317314360590e-05
2.419047619047618891e+00,5.830112364891697681e-06,3.460018645433921099e-06
2.419841269841269682e+00,-1.566019762564721678e-05,-8.016055265208598841e-06
2.420634920634920473e+00,-3.157709255691098067e-05,-1.636458654409963425e-05
2.421428571428571264e+00,-3.946161838062866559e-05,-2.067659792131863085e-05
2.422222222222222054e+00,-3.889092171572066991e-05,-2.119749873262851282e-05
2.423015873015872845e+00,-3.149703561892828498e-05,-1.904843866624669654e-05
2.423809523809523636e+00,-2.042537610111280674e-05,-1.571959895837832393e-05
2.424603174603174427e+00,-9.441375144243877279e-06,-1.252546478437780541e-05
2.425396825396825218e+00,-1.957749507757821772e-06,-1.020442549744186716e-05
2.426190476190476009e+00,-2.223836623378131832e-07,-8.777101780051225479e-06
2.426984126984126799e+00,-4.820487127919276647e-06,-7.682141183983160138e-06
2.427777777777777590e+00,-1.455434997357039076e-05,-6.118467513037445791e-06
2.428571428571428381e+00,-2.669818515493959561e-05,-3.461681954111035226e-06
2.429365079365079172e+00,-3.758052026888305202e-05,3.966121132861822485e-07
2.430158730158729963e+00,-4.340321504369386844e-05,4.906171648457104924e-06
2.430952380952380754e+00,-4.115649051070260222e-05,8.957116922265078481e-06
2.431746031746031544e+00,-2.944600620473922245e-05,1.117865606439534594e-05
2.432539682539682335e+00,-9.032931946310815351e-06,1.033447940690549850e-05
2.433333333333333126e+00,1.708146352488019607e-05,5.695341900905483594e-06
2.434126984126983917e+00,4.411243189030573226e-05,-2.708541036944289037e-06
2.434920634920634708e+00,6.644881008672106325e-05,-1.400932941703779900e-05
2.435714285714285499e+00,7.892597126150535279e-05,-2.660342686713372475e-05
2.436507936507936289e+00,7.811063532231860777e-05,-3.839929528048624936e-05
2.437301587301587080e+00,6.324535849140807634e-05,-4.715513902075273942e-05
2.438095238095238315e+00,3.655818811013844619e-05,-5.084776760378877564e-05
2.438888888888889106e+00,2.806165688023850293e-06,-4.802263438071798212e-05
2.439682539682539897e+00,-3.185431672177194102e-05,-3.808374240483658246e-05
2.440476190476190688e+00,-6.136399026316977903e-05,-2.148494791239624716e-05
2.441269841269841478e+00,-8.118873497949127219e-05,2.159840765191848957e-07
2.442063492063492269e+00,-8.925429907405356389e-05,2.447382943942750171e-05
2.442857142857143060e+00,-8.612585184130005969e-05,4.805697122519964493e-05
2.443650793650793851e+00,-7.443309494957632880e-05,6.751286979135828195e-05
2.444444444444444642e+00,-5.779980969037507076e-05,7.973592649630001697e-05
2.445238095238095433e+00,-3.969162726696282830e-05,8.253912242345633166e-05
2.446031746031746223e+00,-2.259456533715224527e-05,7.511095795068205359e-05
2.446825396825397014e+00,-7.777776811201488115e-06,5.824402011215212388e-05
2.447619047619047805e+00,4.369473218919368175e-06,3.425501890283347110e-05
2.448412698412698596e+00,1.369280342746422852e-05,6.577960304523691202e-06
2.449206349206349387e+00,1.970776380760656211e-05,-2.090508720474005579e-05
2.450000000000000178e+00,2.143089991782207819e-05,-4.464679641811283362e-05
2.450793650793650968e+00,1.770725194235963940e-05,-6.212847130852948831e-05
2.451587301587301759e+00,7.890786339379715983e-06,-7.227140978668253270e-05
2.452380952380952550e+00,-7.433702841449599274e-06,-7.545206062267328549e-05
2.453174603174603341e+00,-2.603115508898520142e-05,-7.313259673027623935e-05
2.453968253968254132e+00,-4.413013608811623917e-05,-6.724175571895075825e-05
2.454761904761904923e+00,-5.708952851004139004e-05,-5.951704113288812430e-05
2.455555555555555713e+00,-6.042484800232054759e-05,-5.102296169787022420e-05
2.456349206349206504e+00,-5.088586582935899941e-05,-4.198957072866680125e-05
2.457142857142857295e+00,-2.729668688650021104e-05,-3.199521357877062360e-05
2.457936507936508086e+00,9.019137797813718682e-06,-2.039295055952678265e-05
2.458730158730158877e+00,5.427814512928065435e-05,-6.801828732201251084e-06
2.459523809523809668e+00,1.026969073561218856e-04,8.521321246409102766e-06
2.460317460317460458e+00,1.472781134914880258e-04,2.455774126659396314e-05
2.461111111111111249e+00,1.808112650510435460e-04,3.969259244199516639e-05
2.461904761904762040e+00,1.969749066674736989e-04,5.212329203369458537e-05
2.462698412698412831e+00,1.914227853831726792e-04,6.038483373124756360e-05
2.463492063492063622e+00,1.627138802393388690e-04,6.381967458649623489e-05
2.464285714285714413e+00,1.129045463734781873e-04,6.282551374744287131e-05
2.465079365079365203e+00,4.758744864668225448e-05,5.877855127733553362e-05
2.465873015873015994e+00,-2.480146949925222529e-05,5.363275691975349609e-05
2.466666666666666785e+00,-9.441999237536770437e-05,4.930174209636356807e-05
2.467460317460317576e+00,-1.519345211782950459e-04,4.700650744304804080e-05
2.468253968253968367e+00,-1.903939778770820076e-04,4.679959380856877368e-05
2.469047619047619158e+00,-2.064938523273683276e-04,4.744182289427039979e-05
2.469841269841269948e+00,-2.008800496823526748e-04,4.670769712282102945e-05
2.470634920634920739e+00,-1.775094666003312460e-04,4.205183382983291299e-05
2.471428571428571530e+00,-1.423917821624587289e-04,3.143896848750396571e-05
2.472222222222222321e+00,-1.021518695450554038e-04,1.408423313608922444e-05
2.473015873015873112e+00,-6.278117985838317227e-05,-9.115014575381098769e-06
2.473809523809523903e+00,-2.878070852686868503e-05,-3.558171411454479077e-05
2.474603174603174693e+00,-2.736952501205087191e-06,-6.151244009392913036e-05
2.475396825396825484e+00,1.472281402658397050e-05,-8.269208554025271087e-05
2.476190476190476275e+00,2.467308474615005154e-05,-9.548511177659912367e-05
2.476984126984127066e+00,2.939813911305824338e-05,-9.775218455771659794e-05
2.477777777777777857e+00,3.173480925472087726e-05,-8.943483510006829151e-05
2.478571428571428648e+00,3.434784604703295708e-05,-7.262527885577513081e-05
2.479365079365079438e+00,3.907363573604424200e-05,-5.108148780860592188e-05
2.480158730158730229e+00,4.648186427353519007e-05,-2.931404353449654489e-05
2.480952380952381020e+00,5.577100069105224184e-05,-1.150009101328912932e-05
2.481746031746031811e+00,6.503502113726010415e-05,-5.205127671940130807e-07
2.482539682539682602e+00,7.184018450923974506e-05,2.640888926615536567e-06
2.483333333333333393e+00,7.396188461767428432e-05,-9.831249551286318588e-07
2.484126984126984183e+00,7.007789231759990972e-05,-8.695079462686600900e-06
2.484920634920634974e+00,6.021401129673136226e-05,-1.684215131967137143e-05
2.485714285714285765e+00,4.580030919479816440e-05,-2.170477527955939995e-05
2.486507936507936556e+00,2.931298611694493683e-05,-2.036541773078612833e-05
2.487301587301587347e+00,1.361498754113020389e-05,-1.137974267401660023e-05
2.488095238095238138e+00,1.210889773424365607e-06,4.876139062162439133e-06
2.488888888888888928e+00,-6.352356261309704040e-06,2.624534701450160335e-05
2.489682539682539719e+00,-8.781854909531907420e-06,4.921519080319715789e-05
2.490476190476190510e+00,-6.991673088699944945e-06,6.965782626267287927e-05
2.491269841269841301e+00,-2.769610733516092935e-06,8.374675773810717153e-05
2.492063492063492092e+00,1.730781020521881548e-06,8.885421167333623475e-05
2.492857142857142883e+00,4.543330541352762875e-06,8.421856244340319758e-05
2.493650793650793673e+00,4.361599400463243411e-06,7.120511821471055616e-05
2.494444444444444464e+00,8.273221489915079515e-07,5.306124226308529704e-05
2.495238095238095255e+00,-5.423985339403537870e-06,3.417724148393621550e-05
2.496031746031746046e+00,-1.295912761407481900e-05,1.899666616758951157e-05
2.496825396825396837e+00,-1.992469641891633753e-05,1.084625780843545209e-05
2.497619047619047628e+00,-2.450555051862958426e-05,1.102245281169668624e-05
2.498412698412698418e+00,-2.535378819771819976e-05,1.842399702481311555e-05
2.499206349206349209e+00,-2.189726307680365540e-05,2.985630775987882697e-05
2.500000000000000000e+00,-1.447520937649131812e-05,4.091937850554945946e-05
2.500793650793650791e+00,-4.289172546678881333e-06,4.721740313221481046e-05
2.501587301587301582e+00,6.811560236188502416e-06,4.554776870302480708e-05
2.502380952380952372e+00,1.666961084522005734e-05,3.474354877218297839e-05
2.503174603174603163e+00,2.322666297534647369e-05,1.594193293314908767e-05
2.503968253968253954e+00,2.492565116373186192e-05,-7.787036585696017335e-06
2.504761904761904745e+00,2.102884406887029536e-05,-3.232611679853753190e-05
2.505555555555555536e+00,1.178321294027251341e-05,-5.362532909863854087e-05
2.506349206349206327e+00,-1.604759753629028354e-06,-6.869363327532321381e-05
2.507142857142857117e+00,-1.717881609849539263e-05,-7.617608813332909590e-05
2.507936507936507908e+00,-3.257739241423473635e-05,-7.638929851128962425e-05
2.508730158730158699e+00,-4.543339268797459576e-05,-7.089005890754363176e-05
2.509523809523809490e+00,-5.374581765582613817e-05,-6.180826876624301411e-05
2.510317460317460281e+00,-5.616219766533002883e-05,-5.122259166793028545e-05
2.511111111111111072e+00,-5.214418302464638339e-05,-4.078314712059469071e-05
2.511904761904761862e+00,-4.201263321584252990e-05,-3.163375125998768421e-05
2.512698412698412653e+00,-2.687711816823033152e-05,-2.453629003947361932e-05
2.513492063492063444e+00,-8.459069831306352731e-06,-2.002596351435375716e-05
2.514285714285714235e+00,1.116988060652089111e-05,-1.845703964081339078e-05
2.515079365079365026e+00,2.989237606670322082e-05,-1.990198194867499838e-05
2.515873015873015817e+00,4.583278901524694127e-05,-2.397380388203491916e-05
2.516666666666666607e+00,5.756685209818738304e-05,-2.969549427000791751e-05
2.517460317460317398e+00,6.421709734684698549e-05,-3.552640745347950354e-05
2.518253968253968189e+00,6.544153530134121642e-05,-3.959272274662734703e-05
2.519047619047618980e+00,6.136448213272274700e-05,-4.008624357945662849e-05
2.519841269841269771e+00,5.251225908191548892e-05,-3.572089009767201098e-05
2.520634920634920562e+00,3.979068110534802170e-05,-2.609859510830507578e-05
2.521428571428571352e+00,2.448814857914711728e-05,-1.185805434121245734e-05
2.522222222222222143e+00,8.241483343320363982e-06,5.443953978931415658e-06
2.523015873015872934e+00,-7.102863795767443467e-06,2.367413537088821593e-05
2.523809523809523725e+00,-1.975055392841417370e-05,4.057434145819970907e-05
2.524603174603174516e+00,-2.828622021699326469e-05,5.419522010388294007e-05
2.525396825396825307e+00,-3.195510712799851734e-05,6.321642214594210332e-05
2.526190476190476097e+00,-3.079822542867199155e-05,6.711019399914220317e-05
2.526984126984126888e+00,-2.560337149254030779e-05,6.614661233367397325e-05
2.527777777777777679e+00,-1.770720876313860358e-05,6.125805046281960749e-05
2.528571428571428470e+00,-8.723245692245202399e-06,5.378859837043439927e-05
2.529365079365079261e+00,-2.680383318525878860e-07,4.516689062944661095e-05
2.530158730158730052e+00,6.267677376080321834e-06,3.656186358827199010e-05
2.530952380952380842e+00,9.881787490468045128e-06,2.860070520598712263e-05
2.531746031746031633e+00,1.005146764901131307e-05,2.123158752328627838e-05
2.532539682539682424e+00,6.754485763871150944e-06,1.378852245383334005e-05
2.533333333333333215e+00,4.349817336811996006e-07,5.261574340277685602e-06
2.534126984126984006e+00,-8.060104601502067118e-06,-5.290302303886632135e-06
2.534920634920634797e+00,-1.754624225393645897e-05,-1.829818458838315958e-05
2.535714285714285587e+00,-2.655830492673258501e-05,-3.334693454854356176e-05
2.536507936507936378e+00,-3.341890025376684887e-05,-4.905768408907630135e-05
2.537301587301587169e+00,-3.635927199201634795e-05,-6.324925770843273611e-05
2.538095238095237960e+00,-3.373284875806731629e-05,-7.336138983761493894e-05
2.538888888888888751e+00,-2.433446282408848989e-05,-7.704337487903128773e-05
2.539682539682539542e+00,-7.792490162835886871e-06,-7.275696047491537349e-05
2.540476190476190332e+00,1.505041634912716998e-05,-6.023007691910702027e-05
2.541269841269841123e+00,4.189372978838952347e-05,-4.063242378692619205e-05
2.542063492063491914e+00,6.901131492109317074e-05,-1.641599997439833434e-05
2.542857142857142705e+00,9.166508769667657810e-05,9.145209561320022997e-06
2.543650793650793496e+00,1.049174114236211359e-04,3.259779087444906001e-05
2.544444444444444287e+00,1.047271659008164427e-04,5.096658849894557215e-05
2.545238095238095077e+00,8.907335862601392824e-05,6.226723786178024517e-05
2.546031746031745868e+00,5.875792635343156465e-05,6.577001770529364072e-05
2.546825396825396659e+00,1.755969555042956507e-05,6.198993444004016252e-05
2.547619047619047450e+00,-2.842088030460118903e-05,5.244675657909691753e-05
2.548412698412698241e+00,-7.210671531979955895e-05,3.928030682841448585e-05
2.549206349206349032e+00,-1.070822796341638629e-04,2.481850360039242103e-05
2.549999999999999822e+00,-1.289996837243484354e-04,1.118479245336081707e-05
2.550793650793650613e+00,-1.363286176635332620e-04,6.947570204466016669e-09
2.551587301587301404e+00,-1.303050469743458203e-04,-7.740289893891803618e-06
2.552380952380952195e+00,-1.142321748516613887e-04,-1.175473174790925805e-05
2.553174603174602986e+00,-9.245798725797808632e-05,-1.230946131345683727e-05
2.553968253968253777e+00,-6.935520068961901921e-05,-1.007927728884441052e-05
2.554761904761904567e+00,-4.852006305913281539e-05,-5.941392516889770783e-06
2.555555555555555358e+00,-3.227409428997536671e-05,-7.981505971406434469e-07
2.556349206349206149e+00,-2.145948364644543883e-05,4.545803444803223511e-06
2.557142857142856940e+00,-1.548460208985918046e-05,9.442503186407868524e-06
2.557936507936507731e+00,-1.258456158325046833e-05,1.340817098112879929e-05
2.558730158730158522e+00,-1.027601471078748204e-05,1.610354181520242629e-05
2.559523809523809312e+00,-5.971415163917861169e-06,1.731095176234200572e-05
2.560317460317460103e+00,2.333896022048748417e-06,1.692349101641832783e-05
2.561111111111110894e+00,1.545423600792363443e-05,1.495008701546945131e-05
2.561904761904761685e+00,3.267005131448263533e-05,1.153050409331194815e-05
2.562698412698412920e+00,5.178956625422931917e-05,6.948748384595510143e-06
2.563492063492063711e+00,6.964035580413084549e-05,1.632890391269281562e-06
2.564285714285714501e+00,8.287295373047689280e-05,-3.868177910349070954e-06
2.565079365079365292e+00,8.884955847752726082e-05,-8.937391579769839682e-06
2.565873015873016083e+00,8.635543863448264033e-05,-1.297288510931405695e-05
2.566666666666666874e+00,7.592157605100884857e-05,-1.549298654004961032e-05
2.567460317460317665e+00,5.967025472540042998e-05,-1.623947145897507524e-05
2.568253968253968456e+00,4.074759888560281325e-05,-1.524674506456192934e-05
2.569047619047619246e+00,2.252908752326542006e-05,-1.284940649969066910e-05
2.569841269841270037e+00,7.831676159197136262e-06,-9.618705320929862333e-06
2.570634920634920828e+00,-1.666519909760082643e-06,-6.241587094693123323e-06
2.571428571428571619e+00,-5.684272247096741071e-06,-3.374631871523067774e-06
2.572222222222222410e+00,-5.258491794840420388e-06,-1.512155236046524912e-06
2.573015873015873201e+00,-2.392024627588940953e-06,-9.012937758396047081e-07
2.573809523809523991e+00,4.705055301908545559e-07,-1.521103554853499313e-06
2.574603174603174782e+00,1.029133705496928605e-06,-3.124060458421017519e-06
2.575396825396825573e+00,-2.331979976717973998e-06,-5.321926241799836728e-06
2.576190476190476364e+00,-1.015911165997308744e-05,-7.687577707554607966e-06
2.576984126984127155e+00,-2.178660295401667240e-05,-9.843933137013755101e-06
2.577777777777777946e+00,-3.547626915821103618e-05,-1.152123689317537289e-05
2.578571428571428736e+00,-4.879964312422469712e-05,-1.257870736508277194e-05
2.579365079365079527e+00,-5.915464379135429565e-05,-1.299742331464285474e-05
2.580158730158730318e+00,-6.429036249404398724e-05,-1.285507227499474530e-05
2.580952380952381109e+00,-6.275253167130622227e-05,-1.229234618465354167e-05
2.581746031746031900e+00,-5.420841614098602997e-05,-1.147822356094519515e-05
2.582539682539682691e+00,-3.960974793692635486e-05,-1.057820245630247146e-05
2.583333333333333481e+00,-2.111500301959481481e-05,-9.726736316219187988e-06
2.584126984126984272e+00,-1.688438871507740855e-06,-9.004257470827990386e-06
2.584920634920635063e+00,1.561849786253954360e-05,-8.421323292843806125e-06
2.585714285714285854e+00,2.853865119534564293e-05,-7.916377732976733421e-06
2.586507936507936645e+00,3.631371858200379215e-05,-7.375006407971971748e-06
2.587301587301587436e+00,3.995911965510170560e-05,-6.672737809122261490e-06
2.588095238095238226e+00,4.189709449572776641e-05,-5.730969806817046932e-06
2.588888888888889017e+00,4.502926306290019719e-05,-4.563873571897070989e-06
2.589682539682539808e+00,5.156361175463079272e-05,-3.292232738912715660e-06
2.590476190476190599e+00,6.204638211319100515e-05,-2.111648361821669204e-06
2.591269841269841390e+00,7.500192900442030272e-05,-1.222485582887898632e-06
2.592063492063492181e+00,8.735154956166673364e-05,-7.472641950469160495e-07
2.592857142857142971e+00,9.545833428117844169e-05,-6.685917230353374569e-07
2.593650793650793762e+00,9.638131807298895191e-05,-8.134121000073580398e-07
2.594444444444444553e+00,8.884152965949692444e-05,-8.911007755097283184e-07
2.595238095238095344e+00,7.353001777618029010e-05,-5.734342444135668109e-07
2.596031746031746135e+00,5.265727800489204349e-05,4.076932805219641549e-07
2.596825396825396925e+00,2.894856598294996499e-05,2.172529803895800194e-06
2.597619047619047716e+00,4.521456256908417810e-06,4.641519187439373549e-06
2.598412698412698507e+00,-1.985327797743935025e-05,7.537484907427585441e-06
2.599206349206349298e+00,-4.475397802419952658e-05,1.044545922128917829e-05
2.600000000000000089e+00,-7.133299007972747309e-05,1.291491789891659227e-05
2.600793650793650880e+00,-1.000683422890872427e-04,1.457464131450030246e-05
2.601587301587301670e+00,-1.295739995672210278e-04,1.522639215589784057e-05
2.602380952380952461e+00,-1.560187210349123688e-04,1.489091980591736016e-05
2.603174603174603252e+00,-1.735037997022004653e-04,1.379494262218903285e-05
2.603968253968254043e+00,-1.754012410280452838e-04,1.230516394361208010e-05
2.604761904761904834e+00,-1.562856617913656711e-04,1.082924530034917494e-05
2.605555555555555625e+00,-1.138536855716967659e-04,9.709699005207540081e-06
2.606349206349206415e+00,-5.021001154192578986e-05,9.134432704370958289e-06
2.607142857142857206e+00,2.790053851773836095e-05,9.081235762123634941e-06
2.607936507936507997e+00,1.100190668744808792e-04,9.307768333147209522e-06
2.608730158730158788e+00,1.838428019178464776e-04,9.394298428064319244e-06
2.609523809523809579e+00,2.375894377171322797e-04,8.839310976415128536e-06
2.610317460317460370e+00,2.623000538660309722e-04,7.194568318629666679e-06
2.611111111111111160e+00,2.535661724527098725e-04,4.209266432249504433e-06
2.611904761904761951e+00,2.123317527466643821e-04,-5.879835750266133249e-08
2.612698412698412742e+00,1.446574850739389096e-04,-5.206076319063717395e-06
2.613492063492063533e+00,6.057739334148420712e-05,-1.054440274452110399e-05
2.614285714285714324e+00,-2.764147826995085315e-05,-1.525447802206758594e-05
2.615079365079365115e+00,-1.074596778557670572e-04,-1.859101807859476547e-05
2.615873015873015905e+00,-1.679216105560112874e-04,-2.007488265709256539e-05
2.616666666666666696e+00,-2.011926998891365491e-04,-1.960784375388432391e-05
2.617460317460317487e+00,-2.036496849765330962e-04,-1.747269486869997874e-05
2.618253968253968278e+00,-1.764203384007248087e-04,-1.422285367766219957e-05
2.619047619047619069e+00,-1.252574180566405041e-04,-1.050163939819613762e-05
2.619841269841269860e+00,-5.965674934178208524e-05,-6.848091807713490741e-06
2.620634920634920650e+00,8.749791605979655013e-06,-3.543734685292197975e-06
2.621428571428571441e+00,6.829234041332383424e-05,-5.410255570703705951e-07
2.622222222222222232e+00,1.094257411545147173e-04,2.506270795132390066e-06
2.623015873015873023e+00,1.264562850839673347e-04,6.116994337006811144e-06
2.623809523809523814e+00,1.184212089627254970e-04,1.079401725065175883e-05
2.624603174603174605e+00,8.893066627045947590e-05,1.682435527322565389e-05
2.625396825396825395e+00,4.505825659552559030e-05,2.412208556539547786e-05
2.626190476190476186e+00,-4.390860119520730054e-06,3.215721926208933061e-05
2.626984126984126977e+00,-5.077231702055577683e-05,3.999289248021396499e-05
2.627777777777777768e+00,-8.720659548019013270e-05,4.642724972483406096e-05
2.628571428571428559e+00,-1.095841691278027049e-04,5.021160524703285530e-05
2.629365079365079350e+00,-1.168597020809757813e-04,5.030030724601793041e-05
2.630158730158730140e+00,-1.107092289575298017e-04,4.608379614601224744e-05
2.630952380952380931e+00,-9.474697923229188272e-05,3.756195552873339599e-05
2.631746031746031722e+00,-7.354236704122644086e-05,2.542467030129887093e-05
2.632539682539682513e+00,-5.165633314646150945e-05,1.101734537657488700e-05
2.633333333333333304e+00,-3.285675419206688351e-05,-3.818515307022887352e-06
2.634126984126984095e+00,-1.960132416987978322e-05,-1.702198853585246778e-05
2.634920634920634885e+00,-1.281274166523517108e-05,-2.667187778185499351e-05
2.635714285714285676e+00,-1.192544662072946087e-05,-3.135977702324459790e-05
2.636507936507936467e+00,-1.515581777353934379e-05,-3.048475102610508368e-05
2.637301587301587258e+00,-1.993389666601673253e-05,-2.438560772328329874e-05
2.638095238095238049e+00,-2.342903218731984518e-05,-1.427325597392907704e-05
2.638888888888888840e+00,-2.309822645176774273e-05,-1.990198329514284306e-06
2.639682539682539630e+00,-1.718090343389872416e-05,1.032614447240207010e-05
2.640476190476190421e+00,-5.063124563754700552e-06,2.058646549048397020e-05
2.641269841269841212e+00,1.255018247136073288e-05,2.702958225291739422e-05
2.642063492063492003e+00,3.368056974087099361e-05,2.840407979979952432e-05
2.642857142857142794e+00,5.532152249329184502e-05,2.404858931805393824e-05
2.643650793650793585e+00,7.383850283414525968e-05,1.389765862797709220e-05
2.644444444444444375e+00,8.547499318201558108e-05,-1.535240228465747586e-06
2.645238095238095166e+00,8.692415830193993948e-05,-2.114738980938806555e-05
2.646031746031745957e+00,7.592236646125651825e-05,-4.320456110777431361e-05
2.646825396825396748e+00,5.179717345406797507e-05,-6.533255939356876971e-05
2.647619047619047539e+00,1.587043925541047927e-05,-8.464857964634377478e-05
2.648412698412698330e+00,-2.840110353718842024e-05,-9.810575068915410523e-05
2.649206349206349120e+00,-7.565090205525668542e-05,-1.030309466811045552e-04
2.649999999999999911e+00,-1.192394026245263716e-04,-9.773836718028773964e-05
2.650793650793650702e+00,-1.522552081776045612e-04,-8.205083476358428132e-05
2.651587301587301493e+00,-1.687257112474165890e-04,-5.757053525050707650e-05
2.652380952380952284e+00,-1.647947513053231114e-04,-2.759490977269410384e-05
2.653174603174603075e+00,-1.395885397072964111e-04,3.349519137345073320e-06
2.653968253968253865e+00,-9.552772425878334019e-05,3.029776494757214773e-05
2.654761904761904656e+00,-3.796329566983173959e-05,4.882384257620768091e-05
2.655555555555555447e+00,2.579962623190029124e-05,5.600602231591486862e-05
2.656349206349206238e+00,8.783812422716267697e-05,5.115182755354107352e-05
2.657142857142857029e+00,1.409578719369184319e-04,3.607236664566111390e-05
2.657936507936507819e+00,1.797415317332216888e-04,1.477384203269361571e-05
2.658730158730158610e+00,2.011384810068202417e-04,-7.424810232833700118e-06
2.659523809523809401e+00,2.045971225460485783e-04,-2.516400073685374239e-05
2.660317460317460192e+00,1.918391665725451630e-04,-3.437344382706982696e-05
2.661111111111110983e+00,1.663919540452166342e-04,-3.327608996584548087e-05
2.661904761904761774e+00,1.329686151766223620e-04,-2.276316485801555684e-05
2.662698412698412564e+00,9.676506379337642381e-05,-6.032252401642107151e-06
2.663492063492063355e+00,6.274486686059858301e-05,1.238510898392439277e-05
2.664285714285714146e+00,3.499215768177142114e-05,2.789760807420877732e-05
2.665079365079364937e+00,1.620688291847451111e-05,3.705199630878458635e-05
2.665873015873015728e+00,7.393481099063056273e-06,3.832641236950270623e-05
2.666666666666666519e+00,7.773231011993259962e-06,3.232858251629614437e-05
2.667460317460317309e+00,1.494565844706063871e-05,2.138796954028457435e-05
2.668253968253968100e+00,2.531639653778460918e-05,8.704197657057996239e-06
2.669047619047618891e+00,3.476455249117488830e-05,-2.665664339922152989e-06
2.669841269841269682e+00,3.944422906305531816e-05,-1.066513157296694521e-05
2.670634920634920473e+00,3.655017493209166719e-05,-1.469000975996233732e-05
2.671428571428571264e+00,2.487151217024806600e-05,-1.552473994320120626e-05
2.672222222222222054e+00,5.011350053979131942e-06,-1.482812517593471432e-05
2.673015873015872845e+00,-2.076579256328223445e-05,-1.437676563465397953e-05
2.673809523809523636e+00,-4.901088675422263615e-05,-1.533805109826647827e-05
2.674603174603174427e+00,-7.577452683667343153e-05,-1.781141404426430728e-05
2.675396825396825218e+00,-9.734384755333622260e-05,-2.076658582037950481e-05
2.676190476190476009e+00,-1.108814336235947382e-04,-2.236558431817174257e-05
2.676984126984126799e+00,-1.148544436202926766e-04,-2.053402564275783518e-05
2.677777777777777590e+00,-1.091979051748184868e-04,-1.358742114102672903e-05
2.678571428571428381e+00,-9.521112801825905943e-05,-7.292148206853531156e-07
2.679365079365079172e+00,-7.523317009837812111e-05,1.769981504184706700e-05
2.680158730158729963e+00,-5.217948002458514082e-05,4.025593344941134032e-05
2.680952380952380754e+00,-2.904150201090654378e-05,6.466412995997598411e-05
2.681746031746031544e+00,-8.448683862076504235e-06,8.822435937029594649e-05
2.682539682539682335e+00,7.631652142433084939e-06,1.082339562660684381e-04
2.683333333333333126e+00,1.802168820277650046e-05,1.223339343532291418e-04
2.684126984126983917e+00,2.230225823364353870e-05,1.287395822141067887e-04
2.684920634920634708e+00,2.068263638348430669e-05,1.263704951111616754e-04
2.685714285714285499e+00,1.384917849869776206e-05,1.149271391505497450e-04
2.686507936507936289e+00,2.852428101578338611e-06,9.495475912589204258e-05
2.687301587301587080e+00,-1.095471188442411430e-05,6.789421198443682404e-05
2.688095238095238315e+00,-2.596130937466333634e-05,3.606752750960674113e-05
2.688888888888889106e+00,-4.037628710244111951e-05,2.518602209196810415e-06
2.689682539682539897e+00,-5.237235554322172145e-05,-2.934690306688603805e-05
2.690476190476190688e+00,-6.028940536186275413e-05,-5.630242488001302600e-05
2.691269841269841478e+00,-6.285718418655634500e-05,-7.590454718057202191e-05
2.692063492063492269e+00,-5.938766238601626168e-05,-8.697521392755302669e-05
2.692857142857143060e+00,-4.990099119204303421e-05,-8.978528516645184856e-05
2.693650793650793851e+00,-3.516700956338382093e-05,-8.585712866236219212e-05
2.694444444444444642e+00,-1.665023336029378760e-05,-7.744758514380579713e-05
2.695238095238095433e+00,3.655518870084459385e-06,-6.689555452384532853e-05
2.696031746031746223e+00,2.350479221378924948e-05,-5.605790604266866858e-05
2.696825396825397014e+00,4.075642270042320787e-05,-4.599807075078289994e-05
2.697619047619047805e+00,5.373235364903364140e-05,-3.697512404286195769e-05
2.698412698412698596e+00,6.148660180398434546e-05,-2.867437102649477565e-05
2.699206349206349387e+00,6.391004466770248255e-05,-2.056708521619259045e-05
2.700000000000000178e+00,6.164262327501089775e-05,-1.228425077737463835e-05
2.700793650793650968e+00,5.582280278473294457e-05,-3.907436717841053057e-06
2.701587301587301759e+00,4.775638586438956849e-05,3.900895708748718143e-06
2.702380952380952550e+00,3.861169351757709294e-05,9.980947184093706909e-06
2.703174603174603341e+00,2.923227007057121329e-05,1.298115815095298780e-05
2.703968253968254132e+00,2.010803010630912314e-05,1.182535756640254385e-05
2.704761904761904923e+00,1.148378980835378739e-05,6.209385724131442246e-06
2.705555555555555713e+00,3.534884836911622464e-06,-3.047661756430453070e-06
2.706349206349206504e+00,-3.480253972836565587e-06,-1.396077973143218043e-05
2.707142857142857295e+00,-9.164459288164138686e-06,-2.373183159304519523e-05
2.707936507936508086e+00,-1.304992010961095066e-05,-2.945485059285779552e-05
2.708730158730158877e+00,-1.475753770112686184e-05,-2.898815566363911804e-05
2.709523809523809668e+00,-1.417064305039035640e-05,-2.171252658718753908e-05
2.710317460317460458e+00,-1.153862827018904950e-05,-8.898594995622872002e-06
2.711111111111111249e+00,-7.458874919208514136e-06,6.479567632500321270e-06
2.711904761904762040e+00,-2.740782864795305249e-06,2.046282250353853590e-05
2.712698412698412831e+00,1.794126141241137961e-06,2.915255325400043478e-05
2.713492063492063622e+00,5.499090504721339893e-06,2.977106123998027036e-05
2.714285714285714413e+00,8.010164191286232971e-06,2.142930411894934762e-05
2.715079365079365203e+00,9.246838034724447623e-06,5.397906599999855827e-06
2.715873015873015994e+00,9.322278763538988902e-06,-1.517081346701599401e-05
2.716666666666666785e+00,8.414359395727434910e-06,-3.597589289706094287e-05
2.717460317460317576e+00,6.657298242224646649e-06,-5.255725582796123743e-05
2.718253968253968367e+00,4.095834402820720600e-06,-6.129563059567126333e-05
2.719047619047619158e+00,7.113172885940369133e-07,-6.019059623616236908e-05
2.719841269841269948e+00,-3.501136807953977667e-06,-4.925451144495654200e-05
2.720634920634920739e+00,-8.440997963771666149e-06,-3.046467974556469103e-05
2.721428571428571530e+00,-1.383196232216242047e-05,-7.319495425225609552e-06
2.722222222222222321e+00,-1.919753858655147224e-05,1.588351302353465479e-05
2.723015873015873112e+00,-2.389370868289658647e-05,3.489600266523749613e-05
2.723809523809523903e+00,-2.719802692630085249e-05,4.633577034718816198e-05
2.724603174603174693e+00,-2.844464565603996553e-05,4.832566990862203322e-05
2.725396825396825484e+00,-2.718548692379589853e-05,4.083446581994263237e-05
2.726190476190476275e+00,-2.334807501866106001e-05,2.564711647050246617e-05
2.726984126984127066e+00,-1.735018396186614124e-05,5.964148219812766968e-06
2.727777777777777857e+00,-1.012363607220396249e-05,-1.428141590203728433e-05
2.728571428571428648e+00,-3.004011719114447922e-06,-3.122320939308331246e-05
2.729365079365079438e+00,2.528449823132945850e-06,-4.178211878673760847e-05
2.730158730158730229e+00,5.218491615404623259e-06,-4.415572008937607341e-05
2.730952380952381020e+00,4.420563707859352439e-06,-3.801460263856191557e-05
2.731746031746031811e+00,3.730145433789212926e-07,-2.443116858983606838e-05
2.732539682539682602e+00,-5.746907789343635517e-06,-5.610233098615929834e-06
2.733333333333333393e+00,-1.203628156849875790e-05,1.551074739497759818e-05
2.734126984126984183e+00,-1.631747144586663892e-05,3.574159960420741293e-05
2.734920634920634974e+00,-1.672237776943918776e-05,5.215371735274552402e-05
2.735714285714285765e+00,-1.225658450558708500e-05,6.256698237316582988e-05
2.736507936507936556e+00,-3.179814944774298682e-06,6.592622160125150086e-05
2.737301587301587347e+00,8.924277173911145228e-06,6.247952460270012997e-05
2.738095238095238138e+00,2.143636761739872384e-05,5.369745043669152428e-05
2.738888888888888928e+00,3.129434177088247118e-05,4.192869655125558079e-05
2.739682539682539719e+00,3.574843166848304670e-05,2.985727228979983728e-05
2.740476190476190510e+00,3.308648084100090144e-05,1.988483996603230425e-05
2.741269841269841301e+00,2.313876049381753504e-05,1.359032444898204988e-05
2.742063492063492092e+00,7.425389194202308381e-06,1.140714561930435589e-05
2.742857142857142883e+00,-1.109635246096119784e-05,1.260431433343510978e-05
2.743650793650793673e+00,-2.862270480204732610e-05,1.557086687965431103e-05
2.744444444444444464e+00,-4.129196452308195607e-05,1.831320822208556539e-05
2.745238095238095255e+00,-4.599792499020446772e-05,1.902039916148687100e-05
2.746031746031746046e+00,-4.106027252378990152e-05,1.655123897264256549e-05
2.746825396825396837e+00,-2.661377740578097214e-05,1.073455824809817520e-05
2.747619047619047628e+00,-4.630296349369085866e-06,2.425006492947794624e-06
2.748412698412698418e+00,2.143759595478571527e-05,-6.691083007793985881e-06
2.749206349206349209e+00,4.731778078041834078e-05,-1.449253564523415736e-05
2.750000000000000000e+00,6.874093333854391192e-05,-1.893023241056446029e-05
2.750793650793650791e+00,8.224549069826551820e-05,-1.852852494213342186e-05
2.751587301587301582e+00,8.579364718185997945e-05,-1.277230863708102673e-05
2.752380952380952372e+00,7.907280417307665837e-05,-2.298457097976898987e-06
2.753174603174603163e+00,6.343420285891532404e-05,1.115293722066286458e-05
2.753968253968253954e+00,4.151172696531601829e-05,2.502911812370582788e-05
2.754761904761904745e+00,1.664096917207925008e-05,3.644949285763427816e-05
2.755555555555555536e+00,-7.765557615414921537e-06,4.278991206638333534e-05
2.756349206349206327e+00,-2.874687830410120018e-05,4.224107728667874983e-05
2.757142857142857117e+00,-4.414070093212632003e-05,3.421429699332639732e-05
2.757936507936507908e+00,-5.273336802845360338e-05,1.949821346463980937e-05
2.758730158730158699e+00,-5.425258055752262367e-05,1.253909055205531906e-07
2.759523809523809490e+00,-4.926589983727537434e-05,-2.102568961966843421e-05
2.760317460317460281e+00,-3.903448803630563552e-05,-4.080569944932099211e-05
2.761111111111111072e+00,-2.533785840281360118e-05,-5.641668939721171096e-05
2.761904761904761862e+00,-1.025979670196484189e-05,-6.593972751213035219e-05
2.762698412698412653e+00,4.071690279489606550e-06,-6.865028510121700973e-05
2.763492063492063444e+00,1.576991816528002329e-05,-6.506006365727315507e-05
2.764285714285714235e+00,2.345130232282369634e-05,-5.669554356577049750e-05
2.765079365079365026e+00,2.641706649194588210e-05,-4.568583469703439178e-05
2.765873015873015817e+00,2.471616071682552086e-05,-3.426869529006974541e-05
2.766666666666666607e+00,1.907935391271022900e-05,-2.433079290301574574e-05
2.767460317460317398e+00,1.074209595472602028e-05,-1.707956437838970893e-05
2.768253968253968189e+00,1.196142810296301169e-06,-1.290461574152792547e-05
2.769047619047618980e+00,-8.076045431480997401e-06,-1.143644392341087756e-05
2.769841269841269771e+00,-1.582953920075577840e-05,-1.176270024380034299e-05
2.770634920634920562e+00,-2.120785083507873120e-05,-1.272944367586838641e-05
2.771428571428571352e+00,-2.380169158390857748e-05,-1.324579543735885965e-05
2.772222222222222143e+00,-2.362672708918812326e-05,-1.252617770208419786e-05
2.773015873015872934e+00,-2.104789347148324440e-05,-1.023305339076873663e-05
2.773809523809523725e+00,-1.667940765970696659e-05,-6.508142166175273416e-06
2.774603174603174516e+00,-1.128009588476047264e-05,-1.896146306746881878e-06
2.775396825396825307e+00,-5.652344981558445095e-06,2.820521324649756637e-06
2.776190476190476097e+00,-5.469863112111192713e-07,6.839320303198307732e-06
2.776984126984126888e+00,3.423180084833797493e-06,9.554731913160612917e-06
2.777777777777777679e+00,5.854792107943796825e-06,1.071905520062901229e-05
2.778571428571428470e+00,6.600402585085011512e-06,1.050572958758591632e-05
2.779365079365079261e+00,5.779733661630017110e-06,9.462394119653400133e-06
2.780158730158730052e+00,3.749671730606193966e-06,8.371513079589407800e-06
2.780952380952380842e+00,1.035378072759317966e-06,8.057455541269527492e-06
2.781746031746031633e+00,-1.766083988674174126e-06,9.184907704882637903e-06
2.782539682539682424e+00,-4.092495685112939677e-06,1.208788568097726984e-05
2.783333333333333215e+00,-5.514935556383414694e-06,1.665896557863422221e-05
2.784126984126984006e+00,-5.810343360426950173e-06,2.231903216723631330e-05
2.784920634920634797e+00,-4.994009652796026136e-06,2.807783203213971138e-05
2.785714285714285587e+00,-3.304994362003631863e-06,3.268198843822019682e-05
2.786507936507936378e+00,-1.148242128847127398e-06,3.482992408272676268e-05
2.787301587301587169e+00,9.923607407948075538e-07,3.341714142262206894e-05
2.788095238095237960e+00,2.650405882335084135e-06,2.776689047042504919e-05
2.788888888888888751e+00,3.464579217674937594e-06,1.780315064055011545e-05
2.789682539682539542e+00,3.244251737004046016e-06,4.133037992230352124e-06
2.790476190476190332e+00,2.004543504200151219e-06,-1.197907738176916289e-05
2.791269841269841123e+00,-3.475010185363008909e-08,-2.874513700864314943e-05
2.792063492063491914e+00,-2.488989492923878541e-06,-4.407416095271152504e-05
2.792857142857142705e+00,-4.883944004873058785e-06,-5.584254913489096597e-05
2.793650793650793496e+00,-6.753914731662891381e-06,-6.216892292872986509e-05
2.794444444444444287e+00,-7.741402433488657483e-06,-6.165632070779543785e-05
2.795238095238095077e+00,-7.673885168202139228e-06,-5.358390619517565948e-05
2.796031746031745868e+00,-6.598134649408406457e-06,-3.804775902613356819e-05
2.796825396825396659e+00,-4.763277416019974748e-06,-1.605174619727905221e-05
2.797619047619047450e+00,-2.556527736605609740e-06,1.046727427461722041e-05
2.798412698412698241e+00,-4.067728323942804813e-07,3.871702613347768115e-05
2.799206349206349032e+00,1.321367234490562842e-06,6.527256783204865543e-05
2.799999999999999822e+00,2.418007590549526790e-06,8.646317804757584400e-05
2.800793650793650613e+00,2.880834521152666450e-06,9.889575085862712669e-05
2.801587301587301404e+00,2.915640085726352899e-06,1.000383069647454179e-04
2.802380952380952195e+00,2.881087381858998666e-06,8.875770194089797568e-05
2.803174603174602986e+00,3.187665100053522763e-06,6.570224527009361170e-05
2.803968253968253777e+00,4.173890515369512588e-06,3.343409859956902603e-05
2.804761904761904567e+00,5.991649613343137097e-06,-3.760163248779794306e-06
2.805555555555555358e+00,8.533010988149132775e-06,-4.041325467058373520e-05
2.806349206349206149e+00,1.142153824837628049e-05,-7.074161353807447729e-05
2.807142857142856940e+00,1.407507604248018578e-05,-8.971028732296329347e-05
2.807936507936507731e+00,1.582966661059347028e-05,-9.409590549956423186e-05
2.808730158730158522e+00,1.610012220043857871e-05,-8.329665065408164873e-05
2.809523809523809312e+00,1.454385701105293343e-05,-5.964740284495829894e-05
2.810317460317460103e+00,1.119119105940094089e-05,-2.808546479273052107e-05
2.811111111111110894e+00,6.507326009379520893e-06,4.824930927919276620e-06
2.811904761904761685e+00,1.359207770320471809e-06,3.230909156187055818e-05
2.812698412698412920e+00,-3.123810816042062293e-06,4.889380977035098742e-05
2.813492063492063711e+00,-5.783040752104662742e-06,5.162960735252077098e-05
2.814285714285714501e+00,-5.717814126837255981e-06,4.071348618527314704e-05
2.815079365079365292e+00,-2.565396722397301866e-06,1.936087962408099603e-05
2.815873015873016083e+00,3.298794489167542580e-06,-7.031163946230481891e-06
2.816666666666666874e+00,1.070849172821833768e-05,-3.220851918449247020e-05
2.817460317460317665e+00,1.784865003797089184e-05,-5.053124402687061116e-05
2.818253968253968456e+00,2.260136277523077698e-05,-5.822272136057299948e-05
2.819047619047619246e+00,2.304930078320585325e-05,-5.410136186260525165e-05
2.819841269841270037e+00,1.802596625841575265e-05,-3.965151668401040635e-05
2.820634920634920828e+00,7.549903616896239536e-06,-1.847119897503338290e-05
2.821428571428571619e+00,-7.026712557800711803e-06,4.712677138220135894e-06
2.822222222222222410e+00,-2.325656335703371041e-05,2.518705300624980167e-05
2.823015873015873201e+00,-3.818602146761909471e-05,3.927589618447104014e-05
2.823809523809523991e+00,-4.910856686232250153e-05,4.502715652345860370e-05
2.824603174603174782e+00,-5.422429911343284894e-05,4.244444267576389968e-05
2.825396825396825573e+00,-5.299803526981934908e-05,3.325529130681850352e-05
2.826190476190476364e+00,-4.614659773158414692e-05,2.031344224795735796e-05
2.826984126984127155e+00,-3.532424906774219559e-05,6.812313272354420452e-06
2.827777777777777946e+00,-2.265016890964035201e-05,-4.479483254279856806e-06
2.828571428571428736e+00,-1.022604927172089589e-05,-1.177290807035162648e-05
2.829365079365079527e+00,2.481930503113714294e-07,-1.448875018966250399e-05
2.830158730158730318e+00,7.707493822817453855e-06,-1.314689622141824287e-05
2.830952380952381109e+00,1.179944399548748237e-05,-8.990233160618162875e-06
2.831746031746031900e+00,1.283472883602135212e-05,-3.479193214856822345e-06
2.832539682539682691e+00,1.165059457550034089e-05,2.189106378770703403e-06
2.833333333333333481e+00,9.424843870669309405e-06,7.405291024389562848e-06
2.834126984126984272e+00,7.467163640888629550e-06,1.223672513823078388e-05
2.834920634920635063e+00,7.004209427544359484e-06,1.727218114839636250e-05
2.835714285714285854e+00,8.970892289307967873e-06,2.328309228409635028e-05
2.836507936507936645e+00,1.382464727414066498e-05,3.081286195296335285e-05
2.837301587301587436e+00,2.140890257128907564e-05,3.982316429855227652e-05
2.838095238095238226e+00,3.089920128331074189e-05,4.950711217487932205e-05
2.838888888888889017e+00,4.086270913848196769e-05,5.833071423079570756e-05
2.839682539682539808e+00,4.944566807677961903e-05,6.430042193744853998e-05
2.840476190476190599e+00,5.467624560646175294e-05,6.539304142365414123e-05
2.841269841269841390e+00,5.483885748735328459e-05,6.004070705703348131e-05
2.842063492063492181e+00,4.884856749804937758e-05,4.754872235939456958e-05
2.842857142857142971e+00,3.653890886175162735e-05,2.834202985128620125e-05
2.843650793650793762e+00,1.878213128375149971e-05,3.983010455589928952e-06
2.844444444444444553e+00,-2.605220734843974834e-06,-2.303522137631633181e-05
2.845238095238095344e+00,-2.515939367118622661e-05,-4.966272363419709239e-05
2.846031746031746135e+00,-4.619555924688214171e-05,-7.275117932803952785e-05
2.846825396825396925e+00,-6.325748251965184626e-05,-8.951876838443518657e-05
2.847619047619047716e+00,-7.449524791532601518e-05,-9.796112328990834515e-05
2.848412698412698507e+00,-7.890768900985742384e-05,-9.715960299249115336e-05
2.849206349206349298e+00,-7.641665006128538120e-05,-8.744004221753738464e-05
2.850000000000000089e+00,-6.776986258278071002e-05,-7.034243625355088758e-05
2.850793650793650880e+00,-5.430808519061252173e-05,-4.839009881639520712e-05
2.851587301587301670e+00,-3.766982058261250822e-05,-2.469165051734179751e-05
2.852380952380952461e+00,-1.951875494097565810e-05,-2.448930605182297925e-06
2.853174603174603252e+00,-1.355480716863284242e-06,1.553974694196909334e-05
2.853968253968254043e+00,1.556900809063301467e-05,2.729888597180411177e-05
2.854761904761904834e+00,3.026131643521197748e-05,3.195551281114006374e-05
2.855555555555555625e+00,4.196038052276464297e-05,2.984158444813389918e-05
2.856349206349206415e+00,5.012463582899214182e-05,2.240823798531911719e-05
2.857142857142857206e+00,5.446084507519918035e-05,1.196849435905651512e-05
2.857936507936507997e+00,5.499669258904392959e-05,1.308163557799296362e-06
2.858730158730158788e+00,5.216946117562300744e-05,-6.780848883463642038e-06
2.859523809523809579e+00,4.688113517197230293e-05,-9.983520833806871597e-06
2.860317460317460370e+00,4.046562511044958895e-05,-6.894386367323354616e-06
2.861111111111111160e+00,3.453034518988408545e-05,2.672027595649402204e-06
2.861904761904761951e+00,3.066957220897922198e-05,1.756313624653638278e-05
2.862698412698412742e+00,3.009297690696187240e-05,3.541169502454039248e-05
2.863492063492063533e+00,3.325593948613321608e-05,5.300435394852765544e-05
2.864285714285714324e+00,3.960202386201474515e-05,6.684010375111981402e-05
2.865079365079365115e+00,4.751938203704506914e-05,7.377315410587328526e-05
2.865873015873015905e+00,5.456740590955246506e-05,7.161237215482599034e-05
2.866666666666666696e+00,5.795186892045751958e-05,5.955965387763071457e-05
2.867460317460317487e+00,5.513587848300440550e-05,3.840487820755447533e-05
2.868253968253968278e+00,4.441485386376909045e-05,1.044338488562816127e-05
2.869047619047619069e+00,2.530542877625996308e-05,-2.086772180123949762e-05
2.869841269841269860e+00,-1.302211780497372198e-06,-5.145411203562948415e-05
2.870634920634920650e+00,-3.318215484507971270e-05,-7.727733920945966002e-05
2.871428571428571441e+00,-6.695042230557428679e-05,-9.498735466529332648e-05
2.872222222222222232e+00,-9.841180175751910303e-05,-1.024632833235812011e-04
2.873015873015873023e+00,-1.231495606578585685e-04,-9.914336108180551044e-05
2.873809523809523814e+00,-1.373443631523819095e-04,-8.607518142250363924e-05
2.874603174603174605e+00,-1.386383708705468210e-04,-6.567257582726056600e-05
2.875396825396825395e+00,-1.267577526596128774e-04,-4.123741748029347741e-05
2.876190476190476186e+00,-1.036659630959497293e-04,-1.636221405442234012e-05
2.876984126984126977e+00,-7.319533910204595588e-05,5.657550447701740725e-06
2.877777777777777768e+00,-4.027713384207694182e-05,2.230205409217476769e-05
2.878571428571428559e+00,-9.982170764441368694e-06,3.214077915814778503e-05
2.879365079365079350e+00,1.340634066369468019e-05,3.495791031618184787e-05
2.880158730158730140e+00,2.710807363195118864e-05,3.168714611592344117e-05
2.880952380952380931e+00,3.023607571637435264e-05,2.417230463951077293e-05
2.881746031746031722e+00,2.382472253461977881e-05,1.479069037888706133e-05
2.882539682539682513e+00,1.052601486300130773e-05,5.996315159100970686e-06
2.883333333333333304e+00,-5.943647201014422171e-06,-1.431400663233438934e-07
2.884126984126984095e+00,-2.149408945969778209e-05,-2.331590148599106923e-06
2.884920634920634885e+00,-3.236741173465125981e-05,-2.710148278495792636e-07
2.885714285714285676e+00,-3.574557211167802336e-05,5.327336478558528641e-06
2.886507936507936467e+00,-3.016972856948805693e-05,1.295490973866583546e-05
2.887301587301587258e+00,-1.571875272383958233e-05,2.068882633317743364e-05
2.888095238095238049e+00,6.061540597321077257e-06,2.664715364638730094e-05
2.888888888888888840e+00,3.244479709256858847e-05,2.940487076907746079e-05
2.889682539682539630e+00,5.995966694110147350e-05,2.828015943695180723e-05
2.890476190476190421e+00,8.488791102300913597e-05,2.344020402479173677e-05
2.891269841269841212e+00,1.037362132762023874e-04,1.581788976462511828e-05
2.892063492063492003e+00,1.136186163772204586e-04,6.869674231610021978e-06
2.892857142857142794e+00,1.125449140558473137e-04,-1.761146085037635742e-06
2.893650793650793585e+00,9.967730618122946007e-05,-8.589918053346263539e-06
2.894444444444444375e+00,7.563216685426160538e-05,-1.256223026137804876e-05
2.895238095238095166e+00,4.281159150787610057e-05,-1.320097051192147251e-05
2.896031746031745957e+00,5.583470988221904201e-06,-1.062345150781583204e-05
2.896825396825396748e+00,-2.997299463237176531e-05,-5.456811370887955178e-06
2.897619047619047539e+00,-5.694614722690967287e-05,1.310378815393514674e-06
2.898412698412698330e+00,-6.901151382516621956e-05,8.508433686373670431e-06
2.899206349206349120e+00,-6.202238413532073060e-05,1.497462333720464148e-05
2.899999999999999911e+00,-3.528337109632355238e-05,1.972794302386601955e-05
2.900793650793650702e+00,7.877680499670549046e-06,2.210943467932833341e-05
2.901587301587301493e+00,6.039139195376046866e-05,2.186715392338496914e-05
2.902380952380952284e+00,1.125108542132885827e-04,1.916966004550148950e-05
2.903174603174603075e+00,1.534562552295242041e-04,1.454417969057509073e-05
2.903968253968253865e+00,1.733955957932026585e-04,8.753484724865403597e-06
2.904761904761904656e+00,1.654901216658469557e-04,2.642107613419379204e-06
2.905555555555555447e+00,1.276506993014234486e-04,-3.010237884212612246e-06
2.906349206349206238e+00,6.353622364684841908e-05,-7.596558105851963736e-06
2.907142857142857029e+00,-1.767433613446623607e-05,-1.073752496292602197e-05
2.907936507936507819e+00,-1.029361111260371561e-04,-1.228783942273088903e-05
2.908730158730158610e+00,-1.781156909328337448e-04,-1.230881078019108590e-05
2.909523809523809401e+00,-2.311122998381390237e-04,-1.102099281250238010e-05
2.910317460317460192e+00,-2.543898967251683970e-04,-8.742751716390749153e-06
2.911111111111110983e+00,-2.462419732672003017e-04,-5.814049244596051218e-06
2.911904761904761774e+00,-2.105955554430805261e-04,-2.508711910309894219e-06
2.912698412698412564e+00,-1.556090664177844603e-04,1.043103235814591161e-06
2.913492063492063355e+00,-9.157446629060844831e-05,4.879359248112469680e-06
2.914285714285714146e+00,-2.869451171329743044e-05,9.136206265913183726e-06
2.915079365079364937e+00,2.476493131512827979e-05,1.388185968656142498e-05
2.915873015873015728e+00,6.360035541441163382e-05,1.891227945247783899e-05
2.916666666666666519e+00,8.593935353376865776e-05,2.360612483363472224e-05
2.917460317460317309e+00,9.275978297200106095e-05,2.692638018088980040e-05
2.918253968253968100e+00,8.696515194719383235e-05,2.760169509830601029e-05
2.919047619047618891e+00,7.238987820382816805e-05,2.445260574467781521e-05
2.919841269841269682e+00,5.301665878800120377e-05,1.677546922649387665e-05
2.920634920634920473e+00,3.250725890755455389e-05,4.672189133192396118e-06
2.921428571428571264e+00,1.398830508435153539e-05,-1.078235437963326988e-05
2.922222222222222054e+00,-4.241668047265720171e-08,-2.761051119742401286e-05
2.923015873015872845e+00,-7.819963182153627366e-06,-4.325468683494182242e-05
2.923809523809523636e+00,-8.497769087917905433e-06,-5.509150342182132440e-05
2.924603174603174427e+00,-2.390132753119772480e-06,-6.100957647418541580e-05
2.925396825396825218e+00,8.851904424423979656e-06,-5.989646204094898208e-05
2.926190476190476009e+00,2.230545696048654746e-05,-5.190770107955125457e-05
2.926984126984126799e+00,3.421673688804615959e-05,-3.845806337707074579e-05
2.927777777777777590e+00,4.082139595690976455e-05,-2.194808714126067251e-05
2.928571428571428381e+00,3.936261807476643690e-05,-5.290382589175137234e-06
2.929365079365079172e+00,2.896738717336082143e-05,8.673012250533918729e-06
2.930158730158729963e+00,1.101278830358939799e-05,1.775526542937085043e-05
2.930952380952380754e+00,-1.122067071984860268e-05,2.089326826260498544e-05
2.931746031746031544e+00,-3.350427930709680229e-05,1.838668588598405578e-05
2.932539682539682335e+00,-5.184329456339479902e-05,1.183177148862078099e-05
2.933333333333333126e+00,-6.343359236388714992e-05,3.745547486170799176e-06
2.934126984126983917e+00,-6.710552965583971069e-05,-3.041291240786811435e-06
2.934920634920634708e+00,-6.323364549278183422e-05,-6.082308281342552887e-06
2.935714285714285499e+00,-5.329013441757117606e-05,-3.942235348220296363e-06
2.936507936507936289e+00,-3.928077103060558981e-05,3.391549952853372555e-06
2.937301587301587080e+00,-2.325273425803777737e-05,1.441500041591268771e-05
2.938095238095238315e+00,-6.968997074966020617e-06,2.637550869895334673e-05
2.938888888888889106e+00,8.243051376085289991e-06,3.587695136907362222e-05
2.939682539682539897e+00,2.151227060910239046e-05,3.971769788467976640e-05
2.940476190476190688e+00,3.236938780390585129e-05,3.578240810944840686e-05
2.941269841269841478e+00,4.066032957013141256e-05,2.375874925582702063e-05
2.942063492063492269e+00,4.645115007348497009e-05,5.452717205160398346e-06
2.942857142857143060e+00,4.993681766361261700e-05,-1.544928183946487320e-05
2.943650793650793851e+00,5.136396080002247850e-05,-3.418126016268352777e-05
2.944444444444444642e+00,5.097672841068994783e-05,-4.609759859982285636e-05
2.945238095238095433e+00,4.898526092298309564e-05,-4.796119011399601505e-05
2.946031746031746223e+00,4.554312250059278002e-05,-3.894372529292379297e-05
2.946825396825397014e+00,4.072547866606211661e-05,-2.101228244504694948e-05
2.947619047619047805e+00,3.453067103550801952e-05,1.461156643858661056e-06
2.948412698412698596e+00,2.694940054700376022e-05,2.280178720152608243e-05
2.949206349206349387e+00,1.811525532017056251e-05,3.756043498918304653e-05
2.950000000000000178e+00,8.478443529222373082e-06,4.204451791334740086e-05
2.950793650793650968e+00,-1.105149685032213446e-06,3.541033992517970768e-05
2.951587301587301759e+00,-9.456619937625737141e-06,1.998333270127701164e-05
2.952380952380952550e+00,-1.533617834666204077e-05,6.808240613114432599e-07
2.953174603174603341e+00,-1.780492592497153663e-05,-1.633004881581886410e-05
2.953968253968254132e+00,-1.655480979406719855e-05,-2.537187752474365715e-05
2.954761904761904923e+00,-1.207902954109745898e-05,-2.289527684319160049e-05
2.955555555555555713e+00,-5.609184985147358821e-06,-8.540740530611145795e-06
2.956349206349206504e+00,1.174206067415004856e-06,1.468091049649575258e-05
2.957142857142857295e+00,6.576500049429839700e-06,4.113839277177784814e-05
2.957936507936508086e+00,9.343437404854027672e-06,6.404676720139334655e-05
2.958730158730158877e+00,9.004814304322207905e-06,7.724197387338928159e-05
2.959523809523809668e+00,6.006949798944508276e-06,7.677822522485194107e-05
2.960317460317460458e+00,1.588292366989523738e-06,6.192724636467443456e-05
2.961111111111111249e+00,-2.581566491380403427e-06,3.533469229767881661e-05
2.961904761904762040e+00,-4.914628556936283286e-06,2.317545471141511391e-06
2.962698412698412831e+00,-4.431301535101926431e-06,-3.049542104078575811e-05
2.963492063492063622e+00,-1.136838591115007995e-06,-5.681434053608866197e-05
2.964285714285714413e+00,3.896503493904754592e-06,-7.218695862582268704e-05
2.965079365079365203e+00,8.805473873344038738e-06,-7.493976347558839576e-05
2.965873015873015994e+00,1.151252415677648215e-05,-6.631900473212735524e-05
2.966666666666666785e+00,1.042786216006598100e-05,-4.983952364109926037e-05
2.967460317460317576e+00,5.034636899362201622e-06,-3.009820762795615103e-05
2.968253968253968367e+00,-3.867003278802155260e-06,-1.145848980218532798e-05
2.969047619047619158e+00,-1.436678040590550977e-05,2.991411100682759686e-06
2.969841269841269948e+00,-2.403236175106809248e-05,1.194553631349373056e-05
2.970634920634920739e+00,-3.064928359188193586e-05,1.579791299157408779e-05
2.971428571428571530e+00,-3.283646719116513742e-05,1.609874398543690755e-05
2.972222222222222321e+00,-3.034867665418767272e-05,1.478045332132040012e-05
2.973015873015873112e+00,-2.402912242501625411e-05,1.340567729317014598e-05
2.973809523809523903e+00,-1.549712506872808000e-05,1.264902388793424545e-05
2.974603174603174693e+00,-6.703972041064112144e-06,1.214147871053478250e-05
2.975396825396825484e+00,5.199534427064525691e-07,1.069424828027979345e-05
2.976190476190476275e+00,4.837192913854448778e-06,6.803023518019008157e-06
2.976984126984127066e+00,5.638243580630848730e-06,-7.468570992951480123e-07
2.977777777777777857e+00,3.111581636264995818e-06,-1.236791763130490804e-05
2.978571428571428648e+00,-1.851189363725792477e-06,-2.739215307568655092e-05
2.979365079365079438e+00,-7.884178930784903349e-06,-4.408329132479090146e-05
2.980158730158730229e+00,-1.345369448573032519e-05,-5.991990586835902344e-05
2.980952380952381020e+00,-1.717673988783241122e-05,-7.207930890439631026e-05
2.981746031746031811e+00,-1.809344682676801715e-05,-7.801878420171807279e-05
2.982539682539682602e+00,-1.585023075904781138e-05,-7.602649945718076665e-05
2.983333333333333393e+00,-1.076530277772427531e-05,-6.561166581413028945e-05
2.984126984126984183e+00,-3.763965548878779581e-06,-4.763775424606891300e-05
2.984920634920634974e+00,3.809076555373332163e-06,-2.416927003318866221e-05
2.985714285714285765e+00,1.047076962461335065e-05,1.921768066393611507e-06
2.986507936507936556e+00,1.492321192272771264e-05,2.748557576537623168e-05
2.987301587301587347e+00,1.635057965366689401e-05,4.963360744927058942e-05
2.988095238095238138e+00,1.460972716589142704e-05,6.617350562644332091e-05
2.988888888888888928e+00,1.024409441992796194e-05,7.586617075117839610e-05
2.989682539682539719e+00,4.295648671343993690e-06,7.848273630665919673e-05
2.990476190476190510e+00,-2.031874540506888603e-06,7.468859706063793696e-05
2.991269841269841301e+00,-7.729318529158151673e-06,6.581381901641281031e-05
2.992063492063492092e+00,-1.221045364389701541e-05,5.357694308179619251e-05
2.992857142857142883e+00,-1.533090270833421730e-05,3.981747549003764486e-05
2.993650793650793673e+00,-1.723157598316091437e-05,2.627113711575179339e-05
2.994444444444444464e+00,-1.812758868996285351e-05,1.439906935115203417e-05
2.995238095238095255e+00,-1.816717085361585599e-05,5.264929229724854610e-06
2.996031746031746046e+00,-1.741420131292444642e-05,-5.507795324350667826e-07
2.996825396825396837e+00,-1.591921195337703769e-05,-3.000320219568390516e-06
2.997619047619047628e+00,-1.379409772335031852e-05,-2.568170486787421432e-06
2.998412698412698418e+00,-1.121753104405368254e-05,-1.978461900608070771e-07
2.999206349206349209e+00,-8.353074637535434850e-06,2.870264429631395194e-06
3.000000000000000000e+00,-5.222958887631521776e-06,5.346268857460719813e-06
3.000793650793650791e+00,-1.615886050258219970e-06,6.188935881118947331e-06
3.001587301587301582e+00,2.898202870607744532e-06,4.886232668730467062e-06
3.002380952380952372e+00,8.816705696915281911e-06,1.627836630794420556e-06
3.003174603174603163e+00,1.644765999898163499e-05,-2.710816160301517594e-06
3.003968253968253954e+00,2.563103137156632060e-05,-6.801825115338736504e-06
3.004761904761904745e+00,3.554472450330012411e-05,-9.264034089426587010e-06
3.005555555555555536e+00,4.469150627546811846e-05,-9.102669754505333374e-06
3.006349206349206327e+00,5.112102351211145467e-05,-6.036647895223454631e-06
3.007142857142857117e+00,5.287357404431507343e-05,-5.992595412453677728e-07
3.007936507936507908e+00,4.855155221232352610e-05,6.016148942583327625e-06
3.008730158730158699e+00,3.785388382618943193e-05,1.230242431207999574e-05
3.009523809523809490e+00,2.188043324855607722e-05,1.685355651868302779e-05
3.010317460317460281e+00,3.055386841619343735e-06,1.871329887112989661e-05
3.011111111111111072e+00,-1.536546645703250772e-05,1.755750636554624915e-05
3.011904761904761862e+00,-3.008467766499309235e-05,1.367560870305605061e-05
3.012698412698412653e+00,-3.860675000989329837e-05,7.785489205918893479e-06
3.013492063492063444e+00,-3.986083906453566686e-05,7.633955962085506081e-07
3.014285714285714235e+00,-3.441002827432141248e-05,-6.614900420684551079e-06
3.015079365079365026e+00,-2.420816679071350982e-05,-1.384075413771900273e-05
3.015873015873015817e+00,-1.201534485942646771e-05,-2.070337397623758289e-05
3.016666666666666607e+00,-6.707042064963744373e-07,-2.719119108064158559e-05
3.017460317460317398e+00,7.570043989426349540e-06,-3.331884402040540037e-05
3.018253968253968189e+00,1.147719804325211151e-05,-3.896075980295033987e-05
3.019047619047618980e+00,1.099583084426465661e-05,-4.376337409804555850e-05
3.019841269841269771e+00,7.107596057932004674e-06,-4.716981049960809714e-05
3.020634920634920562e+00,1.473674427851670087e-06,-4.854337407362077221e-05
3.021428571428571352e+00,-4.038336397837816112e-06,-4.734187060091150478e-05
3.022222222222222143e+00,-7.831847351138672476e-06,-4.328544571004879399e-05
3.023015873015872934e+00,-8.963627041064086700e-06,-3.647148940017780344e-05
3.023809523809523725e+00,-7.358981617315196093e-06,-2.740710780929930967e-05
3.024603174603174516e+00,-3.823328820673246594e-06,-1.694525660285321132e-05
3.025396825396825307e+00,1.479721732489826766e-07,-6.129790601165043790e-06
3.026190476190476097e+00,2.723782298143676720e-06,4.017415457071240045e-06
3.026984126984126888e+00,2.188324953298088329e-06,1.270646381771689454e-05
3.027777777777777679e+00,-2.597850865814039426e-06,1.951775336493636904e-05
3.028571428571428470e+00,-1.182357179733718078e-05,2.442272457486178780e-05
3.029365079365079261e+00,-2.453057497787067829e-05,2.768603328995587718e-05
3.030158730158730052e+00,-3.866055261041779253e-05,2.969240850083623202e-05
3.030952380952380842e+00,-5.136436490500554970e-05,3.076491230969064151e-05
3.031746031746031633e+00,-5.953189055171794359e-05,3.103781515903749391e-05
3.032539682539682424e+00,-6.044395415030708762e-05,3.042317461066254447e-05
3.033333333333333215e+00,-5.241023474776965906e-05,2.867599318729411136e-05
3.034126984126984006e+00,-3.524777356146212932e-05,2.552930837358825027e-05
3.034920634920634797e+00,-1.047413676890268786e-05,2.084868424476917620e-05
3.035714285714285587e+00,1.886301749226309944e-05,1.475265096164747760e-05
3.036507936507936378e+00,4.871980174484802080e-05,7.660414874165791369e-06
3.037301587301587169e+00,7.485156304560955853e-05,2.523560742748843371e-07
3.038095238095237960e+00,9.367614461989001327e-05,-6.646424615672645426e-06
3.038888888888888751e+00,1.029750051008354128e-04,-1.222937930042464900e-05
3.039682539682539542e+00,1.022461626259934923e-04,-1.587630303481666992e-05
3.040476190476190332e+00,9.263038840804940180e-05,-1.728144590570126135e-05
3.041269841269841123e+00,7.646055114907181227e-05,-1.650819171297503591e-05
3.042063492063491914e+00,5.659022687333673906e-05,-1.395759655183503544e-05
3.042857142857142705e+00,3.571012699863050633e-05,-1.026287449897730752e-05
3.043650793650793496e+00,1.584383206154714514e-05,-6.141808170094022347e-06
3.044444444444444287e+00,-1.864479532074712938e-06,-2.248191136435465522e-06
3.045238095238095077e+00,-1.706445674099311483e-05,9.399330706806789511e-07
3.046031746031745868e+00,-2.990226197827067014e-05,3.171894131193145600e-06
3.046825396825396659e+00,-4.064595839879128568e-05,4.413804547058443229e-06
3.047619047619047450e+00,-4.936651754299747978e-05,4.794404005711488426e-06
3.048412698412698241e+00,-5.576621201097232348e-05,4.537534714734022342e-06
3.049206349206349032e+00,-5.918592734462469818e-05,3.908324356087989113e-06
3.049999999999999822e+00,-5.876928672795017926e-05,3.184201988728509695e-06
3.050793650793650613e+00,-5.373129068041255851e-05,2.642549355287628776e-06
3.051587301587301404e+00,-4.366754032669911462e-05,2.545495396359720756e-06
3.052380952380952195e+00,-2.883157854798297116e-05,3.104660229716023783e-06
3.053174603174602986e+00,-1.030139314510688812e-05,4.422032109848021944e-06
3.053968253968253777e+00,1.003276144162463015e-05,6.421068388979982729e-06
3.054761904761904567e+00,2.968834077330559804e-05,8.797519704668400003e-06
3.055555555555555358e+00,4.599025828003783803e-05,1.102511105580700692e-05
3.056349206349206149e+00,5.656740074723261486e-05,1.244066135656851683e-05
3.057142857142856940e+00,5.982854387988476350e-05,1.240560409064987722e-05
3.057936507936507731e+00,5.529648012203150156e-05,1.050532997109225418e-05
3.058730158730158522e+00,4.370708367125852048e-05,6.721404021475805309e-06
3.059523809523809312e+00,2.683403875430250579e-05,1.509715342781766821e-06
3.060317460317460103e+00,7.069390536647233123e-06,-4.256611363614984743e-06
3.061111111111110894e+00,-1.314023268934577779e-05,-9.476890912691604009e-06
3.061904761904761685e+00,-3.185085936387412395e-05,-1.309706485343969800e-05
3.062698412698412920e+00,-4.800813903370860993e-05,-1.438963675801659844e-05
3.063492063492063711e+00,-6.153969568380461205e-05,-1.315597427955537694e-05
3.064285714285714501e+00,-7.311911530303798039e-05,-9.791032507907823881e-06
3.065079365079365292e+00,-8.368301452047098511e-05,-5.192956165536953031e-06
3.065873015873016083e+00,-9.387440914257913992e-05,-5.453231791117525570e-07
3.066666666666666874e+00,-1.036099983814853167e-04,2.967466299164197552e-06
3.067460317460317665e+00,-1.119153307640959239e-04,4.439523488934660291e-06
3.068253968253968456e+00,-1.170691622335063464e-04,3.454105273023573837e-06
3.069047619047619246e+00,-1.169936321980182426e-04,1.837286015847172979e-07
3.069841269841270037e+00,-1.097554819324284215e-04,-4.635785149343433705e-06
3.070634920634920828e+00,-9.401950461208185151e-05,-9.847320009417406602e-06
3.071428571428571619e+00,-6.932471049684492685e-05,-1.409938844406831327e-05
3.072222222222222410e+00,-3.613650756141293042e-05,-1.611403053449706542e-05
3.073015873015873201e+00,4.264669591872977067e-06,-1.494925571917099578e-05
3.073809523809523991e+00,4.992992059542109793e-05,-1.021433765837101970e-05
3.074603174603174782e+00,9.831722312807888032e-05,-2.202494567417508860e-06
3.075396825396825573e+00,1.462875062794008799e-04,8.088440926342894974e-06
3.076190476190476364e+00,1.901176553389885429e-04,1.906613625999257418e-05
3.076984126984127155e+00,2.256660261754574626e-04,2.878330188256059778e-05
3.077777777777777946e+00,2.487782420830337497e-04,3.527708828947399280e-05
3.078571428571428736e+00,2.559156021654344915e-04,3.695064810718397220e-05
3.079365079365079527e+00,2.448767160037569265e-04,3.292172028984835394e-05
3.080158730158730318e+00,2.154116557647751517e-04,2.326349711594091801e-05
3.080952380952381109e+00,1.695288200384175489e-04,9.081160723694595298e-06
3.081746031746031900e+00,1.113747560478380450e-04,-7.603017537550681817e-06
3.082539682539682691e+00,4.669634554781437622e-05,-2.414942674703968531e-05
3.083333333333333481e+00,-1.798548774622513397e-05,-3.774524909816085231e-05
3.084126984126984272e+00,-7.630253518711732240e-05,-4.592048288625059232e-05
3.084920634920635063e+00,-1.228910206801303237e-04,-4.703802245931220060e-05
3.085714285714285854e+00,-1.540463057773641448e-04,-4.065139738758030149e-05
3.086507936507936645e+00,-1.681140712866104005e-04,-2.764274108207824573e-05
3.087301587301587436e+00,-1.655900616044329182e-04,-1.010151226302416658e-05
3.088095238095238226e+00,-1.489272153742396073e-04,9.032962783030444004e-06
3.088888888888889017e+00,-1.220786950470218824e-04,2.648896525971806992e-05
3.089682539682539808e+00,-8.984458393399363612e-05,3.923777459584132995e-05
3.090476190476190599e+00,-5.712820297929762151e-05,4.502734456545178768e-05
3.091269841269841390e+00,-2.822811985369097550e-05,4.279403433880263189e-05
3.092063492063492181e+00,-6.286917247790282895e-06,3.289407484724552838e-05
3.092857142857142971e+00,7.011266988935251642e-06,1.711264590385675480e-05
3.093650793650793762e+00,1.145615579686677967e-05,-1.576704570325484835e-06
3.094444444444444553e+00,8.075315090561416720e-06,-1.950149510221289135e-05
3.095238095238095344e+00,-1.248763020567375824e-06,-3.297557409449962249e-05
3.096031746031746135e+00,-1.417697669726431962e-05,-3.905929125527716599e-05
3.096825396825396925e+00,-2.822634931413058306e-05,-3.622138643200883295e-05
3.097619047619047716e+00,-4.096308566203548973e-05,-2.472915955794763426e-05
3.098412698412698507e+00,-5.010979613246999826e-05,-6.657034173351446825e-06
3.099206349206349298e+00,-5.364349521613380771e-05,1.449534231155135726e-05
3.100000000000000089e+00,-4.996204913184856692e-05,3.448999720068904280e-05
3.100793650793650880e+00,-3.815178838475972561e-05,4.919779936366646973e-05
3.101587301587301670e+00,-1.831685212152062137e-05,5.543735019439371790e-05
3.102380952380952461e+00,8.134287950577545078e-06,5.163784126572476687e-05
3.103174603174603252e+00,3.838142525173500696e-05,3.818232142176650299e-05
3.103968253968254043e+00,6.838632967312222163e-05,1.734493012606830724e-05
3.104761904761904834e+00,9.344197684742579961e-05,-7.173086609410791503e-06
3.105555555555555625e+00,1.090170954901644037e-04,-3.100203325998677079e-05
3.106349206349206415e+00,1.117112458750224514e-04,-4.997821330323158558e-05
3.107142857142857206e+00,1.000606801512321162e-04,-6.093896079700621008e-05
3.107936507936507997e+00,7.495456590171361980e-05,-6.227776088986591179e-05
3.108730158730158788e+00,3.953253427109057157e-05,-5.416050068348136556e-05
3.109523809523809579e+00,-1.408141755225335403e-06,-3.837419827993957504e-05
3.110317460317460370e+00,-4.232472715744308800e-05,-1.785471050992802478e-05
3.111111111111111160e+00,-7.791080962958309370e-05,3.985352106196496085e-06
3.111904761904761951e+00,-1.039085671223269054e-04,2.395497650472847256e-05
3.112698412698412742e+00,-1.176039424496438306e-04,3.963575764847412642e-05
3.113492063492063533e+00,-1.179838411394529556e-04,4.967292734323867253e-05
3.114285714285714324e+00,-1.056336372472198326e-04,5.378689111911822340e-05
3.115079365079365115e+00,-8.248566407913936931e-05,5.256334664213045742e-05
3.115873015873015905e+00,-5.150496598186593534e-05,4.711346733207982113e-05
3.116666666666666696e+00,-1.635811587756063080e-05,3.869281093550409927e-05
3.117460317460317487e+00,1.891864326992946763e-05,2.835612680744748138e-05
3.118253968253968278e+00,5.025685541562649060e-05,1.672245200418205909e-05
3.119047619047619069e+00,7.392112233149871695e-05,3.921365360722856194e-06
3.119841269841269860e+00,8.692276741255316054e-05,-1.023979972655665126e-05
3.120634920634920650e+00,8.746602523344988408e-05,-2.592064304509428052e-05
3.121428571428571441e+00,7.535081342047251422e-05,-4.282838923830061868e-05
3.122222222222222232e+00,5.220853910994612337e-05,-5.991584545181994026e-05
3.123015873015873023e+00,2.144643854278554897e-05,-7.535427072628546222e-05
3.123809523809523814e+00,-1.216793066986838429e-05,-8.683120372750087533e-05
3.124603174603174605e+00,-4.325291729130890852e-05,-9.208339710749905717e-05
3.125396825396825395e+00,-6.675473383918874791e-05,-8.947916157695921140e-05
3.126190476190476186e+00,-7.887689244950570272e-05,-7.845940727309894201e-05
3.126984126984126977e+00,-7.778252516859374729e-05,-5.971979628526539525e-05
3.127777777777777768e+00,-6.391903294638842453e-05,-3.511561313598937981e-05
3.128571428571428559e+00,-3.991165434725766394e-05,-7.347614868100880676e-06
3.129365079365079350e+00,-1.005664340144564667e-05,2.047754169119025606e-05
3.130158730158730140e+00,2.049603638363915528e-05,4.531675286943983666e-05
3.130952380952380931e+00,4.672837252038478925e-05,6.461152018583805727e-05
3.131746031746031722e+00,6.471649010323392477e-05,7.661070809695850971e-05
3.132539682539682513e+00,7.235641624998743690e-05,8.057538671408900801e-05
3.133333333333333304e+00,6.967814680304695190e-05,7.686213469853545781e-05
3.134126984126984095e+00,5.867315228256305711e-05,6.687414612963584110e-05
3.134920634920634885e+00,4.269397735077464472e-05,5.285473553103103281e-05
3.135714285714285676e+00,2.560089882005321519e-05,3.750661478949630576e-05
3.136507936507936467e+00,1.088368010031089571e-05,2.346950815924537696e-05
3.137301587301587258e+00,9.615590621626773108e-07,1.275949910143736673e-05
3.138095238095238049e+00,-3.211232140130698425e-06,6.323676279189188348e-06
3.138888888888888840e+00,-2.187603503002719111e-06,3.858690766472626350e-06
3.139682539682539630e+00,2.267927529426864520e-06,3.973283912237822940e-06
3.140476190476190421e+00,7.742962636194460776e-06,4.661845476025742382e-06
3.141269841269841212e+00,1.187863547862860541e-05,3.943038628120818373e-06
3.142063492063492003e+00,1.302997474011121376e-05,4.576065533459654416e-07
3.142857142857142794e+00,1.070457561224280116e-05,-6.159684253927866175e-06
3.143650793650793585e+00,5.655833505803802091e-06,-1.523249973162352661e-05
3.144444444444444375e+00,-3.932557214766257618e-07,-2.530627302224903620e-05
3.145238095238095166e+00,-5.308929307333268303e-06,-3.461252965152884618e-05
3.146031746031745957e+00,-7.216674618419271056e-06,-4.157482312832230331e-05
3.146825396825396748e+00,-5.082729855655208826e-06,-4.520552839200656613e-05
3.147619047619047539e+00,9.573569658836258225e-07,-4.529440301276503665e-05
3.148412698412698330e+00,9.608231063366416602e-06,-4.235634538592186776e-05
3.149206349206349120e+00,1.875300718216145281e-05,-3.736862335947605592e-05
3.149999999999999911e+00,2.602211439203521451e-05,-3.138253400307765642e-05
3.150793650793650702e+00,2.942705137751391520e-05,-2.513475508834017185e-05
3.151587301587301493e+00,2.787058133473478824e-05,-1.879267639011970078e-05
3.152380952380952284e+00,2.138655994738313334e-05,-1.193161599068620343e-05
3.153174603174603075e+00,1.105914158018921464e-05,-3.766940820653958289e-06
3.153968253968253865e+00,-1.320006406199319146e-06,6.422763837962728063e-06
3.154761904761904656e+00,-1.372431013024206862e-05,1.881659056335724392e-05
3.155555555555555447e+00,-2.434778382062163094e-05,3.268853302433411218e-05
3.156349206349206238e+00,-3.193240780494925900e-05,4.632068832685070779e-05
3.157142857142857029e+00,-3.591613598620648016e-05,5.727729147788349003e-05
3.157936507936507819e+00,-3.640716733707227790e-05,6.299864704799647698e-05
3.158730158730158610e+00,-3.402956671851460727e-05,6.154576616407812523e-05
3.159523809523809401e+00,-2.970459606647785880e-05,5.225765888512503996e-05
3.160317460317460192e+00,-2.443346169070533501e-05,3.610417804819343590e-05
3.161111111111110983e+00,-1.913305670717055983e-05,1.561001512810576675e-05
3.161904761904761774e+00,-1.454958533630540849e-05,-5.650904695550200582e-06
3.162698412698412564e+00,-1.124175973886124017e-05,-2.386948487614230376e-05
3.163492063492063355e+00,-9.596484360054991452e-06,-3.590601225124905846e-05
3.164285714285714146e+00,-9.829325432863537376e-06,-4.002443077628905154e-05
3.165079365079364937e+00,-1.193905266994935866e-05,-3.623654342323128988e-05
3.165873015873015728e+00,-1.562596100497832345e-05,-2.616261451909875543e-05
3.166666666666666519e+00,-2.022630458067866386e-05,-1.248039988194782210e-05
3.167460317460317309e+00,-2.473136492814769874e-05,1.833761655848505354e-06
3.168253968253968100e+00,-2.793274331282814815e-05,1.422442396440308247e-05
3.169047619047618891e+00,-2.867576347243070144e-05,2.303839660859280863e-05
3.169841269841269682e+00,-2.614483602743123580e-05,2.767563348065068911e-05
3.170634920634920473e+00,-2.008406420926760205e-05,2.843615154457421903e-05
3.171428571428571264e+00,-1.088355230789294485e-05,2.618213625045936503e-05
3.172222222222222054e+00,4.851221475946001868e-07,2.197251964324862991e-05
3.173015873015872845e+00,1.265498929725096950e-05,1.680160456768245650e-05
3.173809523809523636e+00,2.412021883411158413e-05,1.150126969321841461e-05
3.174603174603174427e+00,3.350838347852933848e-05,6.783035317570039834e-06
3.175396825396825218e+00,3.981549567453831779e-05,3.334400265197834506e-06
3.176190476190476009e+00,4.255546606214296831e-05,1.862118332058536685e-06
3.176984126984126799e+00,4.179166410391352412e-05,2.999498258462556718e-06
3.177777777777777590e+00,3.805018832935458308e-05,7.060798307535878057e-06
3.178571428571428381e+00,3.215087268548546238e-05,1.371458928109320362e-05
3.179365079365079172e+00,2.501355670395208098e-05,2.172482432743381447e-05
3.180158730158729963e+00,1.749403371735305598e-05,2.893197075865468294e-05
3.180952380952380754e+00,1.028242145387857541e-05,3.258881160497386742e-05
3.181746031746031544e+00,3.869524959555197465e-06,3.003336099419761708e-05
3.182539682539682335e+00,-1.435460811511441770e-06,1.952630215095194232e-05
3.183333333333333126e+00,-5.464142911684682390e-06,9.779261913065588221e-07
3.184126984126983917e+00,-8.151948820726894344e-06,-2.370610687612793573e-05
3.184920634920634708e+00,-9.519432353395669222e-06,-5.081909531705007917e-05
3.185714285714285499e+00,-9.669572647146366568e-06,-7.557344799318999246e-05
3.186507936507936289e+00,-8.787032900782393554e-06,-9.316140868225615253e-05
3.187301587301587080e+00,-7.124259090693495690e-06,-9.986101901836725572e-05
3.188095238095238315e+00,-4.968080218652000168e-06,-9.388319624967048115e-05
3.188888888888889106e+00,-2.594129494427866749e-06,-7.575307127302389153e-05
3.189682539682539897e+00,-2.276717984100249698e-07,-4.817813753140877923e-05
3.190476190476190688e+00,1.969820458594548162e-06,-1.550184226722768296e-05
3.191269841269841478e+00,3.882260094510745151e-06,1.708517157634412549e-05
3.192063492063492269e+00,5.402856136504212978e-06,4.440849855266972094e-05
3.192857142857143060e+00,6.406975149844462395e-06,6.212373774770117403e-05
3.193650793650793851e+00,6.754982034719068677e-06,6.739450130510965932e-05
3.194444444444444642e+00,6.326290885105215646e-06,5.936396600414655474e-05
3.195238095238095433e+00,5.066578151433342856e-06,3.935133555540736353e-05
3.196031746031746223e+00,3.023615401442422261e-06,1.071393688198265932e-05
3.196825396825397014e+00,3.547050489755296065e-07,-2.165065872281615611e-05
3.197619047619047805e+00,-2.696958079380958836e-06,-5.212475987209015432e-05
3.198412698412698596e+00,-5.847285026380972980e-06,-7.539321979545480080e-05
3.199206349206349387e+00,-8.822712630445286603e-06,-8.747451529835668829e-05
3.200000000000000178e+00,-1.140446706471087641e-05,-8.652986654020288545e-05
3.200793650793650968e+00,-1.345575021649090199e-05,-7.324386608784550119e-05
3.201587301587301759e+00,-1.492517308345109389e-05,-5.065907006956319283e-05
3.202380952380952550e+00,-1.582387766727398531e-05,-2.348325026304920479e-05
3.203174603174603341e+00,-1.618116700881641010e-05,2.970477704191959891e-06
3.203968253968254132e+00,-1.599355018509233050e-05,2.395323577188791659e-05
3.204761904761904923e+00,-1.519006776241708347e-05,3.627931495312553326e-05
3.205555555555555713e+00,-1.363591312757851508e-05,3.892516035049820358e-05
3.206349206349206504e+00,-1.118367011009942003e-05,3.310478426277340980e-05
3.207142857142857295e+00,-7.761339624549641665e-06,2.183085055368760372e-05
3.207936507936508086e+00,-3.467883001582535827e-06,9.098130790373357157e-06
3.208730158730158877e+00,1.361583049215797991e-06,-1.086462389124133035e-06
3.209523809523809668e+00,6.153157142740257223e-06,-5.583024554482855873e-06
3.210317460317460458e+00,1.016689550961393428e-05,-2.716562854964564801e-06
3.211111111111111249e+00,1.263193559094365300e-05,7.494612767691984876e-06
3.211904761904762040e+00,1.291104520662431454e-05,2.346533184803972579e-05
3.212698412698412831e+00,1.065568697906149437e-05,4.244465676479702902e-05
3.213492063492063622e+00,5.918557914645694886e-06,6.108811322119571971e-05
3.214285714285714413e+00,-7.995787696225918728e-07,7.609595945630292255e-05
3.215079365079365203e+00,-8.582516526167324169e-06,8.481450595968256215e-05
3.215873015873015994e+00,-1.621440917607949104e-05,8.570252904932389485e-05
3.216666666666666785e+00,-2.236991329226509955e-05,7.858221145588036721e-05
3.217460317460317576e+00,-2.585467122881415897e-05,6.462956248568260491e-05
3.218253968253968367e+00,-2.585603783139608445e-05,4.610893482013287624e-05
3.219047619047619158e+00,-2.215051394327911536e-05,2.590919233430080129e-05
3.219841269841269948e+00,-1.520998991480440740e-05,6.982136667834619419e-06
3.220634920634920739e+00,-6.161254018013195557e-06,-8.195787668367130445e-06
3.221428571428571530e+00,3.413959868518931721e-06,-1.802781939877327825e-05
3.222222222222222321e+00,1.180396805653636767e-05,-2.199547298915413194e-05
3.223015873015873112e+00,1.753879945855925271e-05,-2.063419498998058556e-05
3.223809523809523903e+00,1.971020141486598618e-05,-1.532026134333433210e-05
3.224603174603174693e+00,1.815625262252209713e-05,-7.933810838429798803e-06
3.225396825396825484e+00,1.346939445694566777e-05,-4.673458542658834382e-07
3.226190476190476275e+00,6.839056524125877282e-06,5.359923015700765895e-06
3.226984126984127066e+00,-2.173408904519159913e-07,8.425118138744436467e-06
3.227777777777777857e+00,-6.161609492604106154e-06,8.401971477781536930e-06
3.228571428571428648e+00,-9.712433782793884494e-06,5.784659783523069294e-06
3.229365079365079438e+00,-1.004808417789240011e-05,1.710966274953099112e-06
3.230158730158730229e+00,-6.915514616943131144e-06,-2.390418490024963717e-06
3.230952380952381020e+00,-6.475554187050556254e-07,-5.247798713903203789e-06
3.231746031746031811e+00,7.900763698053752759e-06,-6.163265365856922448e-06
3.232539682539682602e+00,1.748528569749331814e-05,-5.259583086916582249e-06
3.233333333333333393e+00,2.666442990895957790e-05,-3.459055917058266673e-06
3.234126984126984183e+00,3.403277024206303103e-05,-2.186363977426856773e-06
3.234920634920634974e+00,3.846534517027926607e-05,-2.891443775191628967e-06
