Timestamp,Flexor carpi radialis,Extensor digitorum
2.000000000000000000e+00,4.699683403338266287e-05,2.329991102494799638e-06
2.000793650793650791e+00,3.463074908057247871e-05,7.252115833872525816e-06
2.001587301587301582e+00,2.052417992788419193e-05,1.363770443280296932e-05
2.002380952380952372e+00,7.216406448778882103e-06,2.142789649161802864e-05
2.003174603174603163e+00,-3.449843141177929109e-06,3.011186527420096670e-05
2.003968253968253954e+00,-1.058975497085226988e-05,3.866136459703573030e-05
2.004761904761904745e+00,-1.426738228851324785e-05,4.563842041089803545e-05
2.005555555555555536e+00,-1.527342717771670334e-05,4.947042998381362248e-05
2.006349206349206327e+00,-1.478678313053273294e-05,4.882544396919595499e-05
2.007142857142857117e+00,-1.401789390902781307e-05,4.298238923007190930e-05
2.007936507936507908e+00,-1.390789905057904275e-05,3.208883060045733190e-05
2.008730158730158699e+00,-1.492892039683169677e-05,1.722934063908430273e-05
2.009523809523809490e+00,-1.700937828617897504e-05,2.776508184852009109e-07
2.010317460317460281e+00,-1.959089393056359933e-05,-1.643962835284930516e-05
2.011111111111111072e+00,-2.180245132594912284e-05,-3.059351421132619855e-05
2.011904761904761862e+00,-2.271211172064246426e-05,-4.031501675536311132e-05
2.012698412698412653e+00,-2.159418909690405278e-05,-4.456409366361960072e-05
2.013492063492063444e+00,-1.814109780945411028e-05,-4.332276977138776173e-05
2.014285714285714235e+00,-1.256119319685500903e-05,-3.757083548625931966e-05
2.015079365079365026e+00,-5.535760195815924106e-06,-2.904971896416740892e-05
2.015873015873015817e+00,1.949203153081460230e-06,-1.986457050061247139e-05
2.016666666666666607e+00,8.841429858341789925e-06,-1.201133900219884979e-05
2.017460317460317398e+00,1.425490283478676867e-05,-6.938816878401840883e-06
2.018253968253968189e+00,1.762765889857810295e-05,-5.255061584187140359e-06
2.019047619047618980e+00,1.876986186202143713e-05,-6.654405536739652828e-06
2.019841269841269771e+00,1.781073654190223736e-05,-1.007878937039983952e-05
2.020634920634920562e+00,1.508573025792796547e-05,-1.405570599092200878e-05
2.021428571428571352e+00,1.101635349240516673e-05,-1.710366732449211501e-05
2.022222222222222143e+00,6.026195211383171972e-06,-1.808508298002248148e-05
2.023015873015872934e+00,5.144531663484585028e-07,-1.641580057115070757e-05
2.023809523809523725e+00,-5.119318962475399165e-06,-1.209594918651582613e-05
2.024603174603174516e+00,-1.042946960639508234e-05,-5.590406601540587010e-06
2.025396825396825307e+00,-1.489911690052910178e-05,2.362653295452042782e-06
2.026190476190476097e+00,-1.797122596206826147e-05,1.092554329571925790e-05
2.026984126984126888e+00,-1.914796864721580427e-05,1.926396580831693959e-05
2.027777777777777679e+00,-1.813514720405286665e-05,2.658370922051815218e-05
2.028571428571428470e+00,-1.497656039612340657e-05,3.214468295851264902e-05
2.029365079365079261e+00,-1.011521533897586380e-05,3.529712632961154391e-05
2.030158730158730052e+00,-4.343825547798899718e-06,3.555877780923891944e-05
2.030952380952380842e+00,1.347582200894857738e-06,3.271875994788086991e-05
2.031746031746031633e+00,5.981176657543529962e-06,2.693088058580476275e-05
2.032539682539682424e+00,8.799433393096458723e-06,1.875429598695364623e-05
2.033333333333333215e+00,9.422768184561175858e-06,9.110837859608427456e-06
2.034126984126984006e+00,7.925508485384186131e-06,-8.500956272649010189e-07
2.034920634920634797e+00,4.817204096574727788e-06,-9.959284448973195966e-06
2.035714285714285587e+00,9.348540948952796906e-07,-1.725846781020065187e-05
2.036507936507936378e+00,-2.730190958916372916e-06,-2.218878820951920405e-05
2.037301587301587169e+00,-5.234349960269436922e-06,-2.468101199389241727e-05
2.038095238095237960e+00,-5.873020365639810153e-06,-2.512175849123926061e-05
2.038888888888888751e+00,-4.324245039932096697e-06,-2.420646210540408416e-05
2.039682539682539542e+00,-7.163016238145066568e-07,-2.272044094674455410e-05
2.040476190476190332e+00,4.395536699714454425e-06,-2.130731551579118527e-05
2.041269841269841123e+00,1.013858248010140571e-05,-2.028720812804415431e-05
2.042063492063491914e+00,1.549459970945584302e-05,-1.957689428035926153e-05
2.042857142857142705e+00,1.949677933467486592e-05,-1.874028151906482125e-05
2.043650793650793496e+00,2.141127387206583264e-05,-1.716013864415598898e-05
2.044444444444444287e+00,2.086818215945469970e-05,-1.427901333204134926e-05
2.045238095238095077e+00,1.791829967002516694e-05,-9.827216593440359787e-06
2.046031746031745868e+00,1.300664338299788458e-05,-3.956346674714716487e-06
2.046825396825396659e+00,6.870259708185402017e-06,2.769133377377608706e-06
2.047619047619047450e+00,3.849007108034374256e-07,9.517115949712996812e-06
2.048412698412698241e+00,-5.601230375819239692e-06,1.541547525261668366e-05
2.049206349206349032e+00,-1.040531575303778360e-05,1.977995755851946744e-05
2.049999999999999822e+00,-1.358967609308915539e-05,2.226408941220513034e-05
2.050793650793650613e+00,-1.497644528000408716e-05,2.288730255929923883e-05
2.051587301587301404e+00,-1.461306572667442233e-05,2.194714336517001474e-05
2.052380952380952195e+00,-1.271648361940646751e-05,1.986371811635709230e-05
2.053174603174602986e+00,-9.620111066967464652e-06,1.702332216088277864e-05
2.053968253968253777e+00,-5.732916547606627825e-06,1.367992089097529264e-05
2.054761904761904567e+00,-1.505866588740618697e-06,9.943741863352825754e-06
2.055555555555555358e+00,2.604040315797236934e-06,5.848291910436799710e-06
2.056349206349206149e+00,6.177650327267307578e-06,1.456222327769140562e-06
2.057142857142856940e+00,8.882212601158307629e-06,-3.047841567237598644e-06
2.057936507936507731e+00,1.051314709148318149e-05,-7.319839015810258547e-06
2.058730158730158522e+00,1.101461146085472234e-05,-1.089025342381187925e-05
2.059523809523809312e+00,1.046980269139417338e-05,-1.325587877993424748e-05
2.060317460317460103e+00,9.063070987378792702e-06,-1.399782472807161236e-05
2.061111111111110894e+00,7.026265621728141372e-06,-1.289390478161576394e-05
2.061904761904761685e+00,4.586400957609703439e-06,-1.000341699404589334e-05
2.062698412698412920e+00,1.930279837866624384e-06,-5.710605013896551640e-06
2.063492063492063711e+00,-8.042387787093927615e-07,-7.145221530903192256e-07
2.064285714285714501e+00,-3.509963111816033210e-06,4.047280093202782951e-06
2.065079365079365292e+00,-6.075907351194185495e-06,7.546100083993838194e-06
2.065873015873016083e+00,-8.356289264715864769e-06,8.866279698699571258e-06
2.066666666666666874e+00,-1.016320898496994667e-05,7.429385200876689333e-06
2.067460317460317665e+00,-1.129326500001334080e-05,3.186160643161605145e-06
2.068253968253968456e+00,-1.158226085394809862e-05,-3.278923441919166138e-06
2.069047619047619246e+00,-1.096782777789207785e-05,-1.077515750864224515e-05
2.069841269841270037e+00,-9.533275330609540087e-06,-1.768342391951479361e-05
2.070634920634920828e+00,-7.509808306833510841e-06,-2.226264025544574866e-05
2.071428571428571619e+00,-5.228098465287783481e-06,-2.302318141335915413e-05
2.072222222222222410e+00,-3.029862606456583029e-06,-1.908312685558161855e-05
2.073015873015873201e+00,-1.167383911011279528e-06,-1.042395147555738146e-05
2.073809523809523991e+00,2.734992726539898109e-07,2.018280947028901861e-06
2.074603174603174782e+00,1.395585342446859864e-06,1.645689760958482802e-05
2.075396825396825573e+00,2.441232741535578608e-06,3.054207694925928135e-05
2.076190476190476364e+00,3.679834676002689235e-06,4.177928364178780607e-05
2.076984126984127155e+00,5.267875971733787364e-06,4.800005989860433404e-05
2.077777777777777946e+00,7.136870512073772321e-06,4.779960635127579010e-05
2.078571428571428736e+00,8.961093668098548854e-06,4.086082030292982907e-05
2.079365079365079527e+00,1.022813795907428872e-05,2.809378133806230448e-05
2.080158730158730318e+00,1.039307070119179704e-05,1.153532671986054943e-05
2.080952380952381109e+00,9.061919259678430288e-06,-6.011023263107335088e-06
2.081746031746031900e+00,6.139631049253702382e-06,-2.154775205863558062e-05
2.082539682539682691e+00,1.894880697472204164e-06,-3.253811385269213865e-05
2.083333333333333481e+00,-3.073619410668397928e-06,-3.745806125273123949e-05
2.084126984126984272e+00,-7.955225781356668535e-06,-3.607895986791551373e-05
2.084920634920635063e+00,-1.189810648160431794e-05,-2.940574185692821740e-05
2.085714285714285854e+00,-1.419269744335139566e-05,-1.931282122417791154e-05
2.086507936507936645e+00,-1.442576357855715268e-05,-8.010295754851689767e-06
2.087301587301587436e+00,-1.256773565239476322e-05,2.493992737942752312e-06
2.088095238095238226e+00,-8.970007906736587658e-06,1.079345386784884192e-05
2.088888888888889017e+00,-4.271097670845367556e-06,1.625760253939608022e-05
2.089682539682539808e+00,7.634695103523657219e-07,1.896934452717808874e-05
2.090476190476190599e+00,5.420029532074693660e-06,1.947964942706990188e-05
2.091269841269841390e+00,9.177389633400529254e-06,1.848300529548717200e-05
2.092063492063492181e+00,1.176509237360260760e-05,1.653253414646500805e-05
2.092857142857142971e+00,1.313032299898947433e-05,1.389270081226316294e-05
2.093650793650793762e+00,1.334583761871531261e-05,1.057429211560028464e-05
2.094444444444444553e+00,1.251532682750007244e-05,6.522417509884593246e-06
2.095238095238095344e+00,1.072592375848621139e-05,1.859096598134104227e-06
2.096031746031746135e+00,8.066946444809275740e-06,-2.949200463353480987e-06
2.096825396825396925e+00,4.698027206175360773e-06,-7.101462750620188505e-06
2.097619047619047716e+00,9.246224691383015147e-07,-9.672922046370398925e-06
2.098412698412698507e+00,-2.767149610273705900e-06,-9.952819459294033291e-06
2.099206349206349298e+00,-5.750054665593394427e-06,-7.767438808428751680e-06
2.100000000000000089e+00,-7.374726512864360193e-06,-3.644646811114376435e-06
2.100793650793650880e+00,-7.141642377479547952e-06,1.261043633918458224e-06
2.101587301587301670e+00,-4.876254897592674441e-06,5.471507427137802931e-06
2.102380952380952461e+00,-8.488285500479341692e-07,7.622400493584539188e-06
2.103174603174603252e+00,4.210562104233251421e-06,6.892096638718636650e-06
2.103968253968254043e+00,9.225585181257821320e-06,3.274683488830660639e-06
2.104761904761904834e+00,1.300204951846229665e-05,-2.405118040349905780e-06
2.105555555555555625e+00,1.451935195646189390e-05,-8.749519545307927714e-06
2.106349206349206415e+00,1.320804858178287988e-05,-1.423229130112045802e-05
2.107142857142857206e+00,9.134144594696780433e-06,-1.767675351790562533e-05
2.107936507936507997e+00,3.031629075037583728e-06,-1.860627052462169366e-05
2.108730158730158788e+00,-3.837554602368079617e-06,-1.735649532312826519e-05
2.109523809523809579e+00,-9.972089969000777710e-06,-1.491921345166177245e-05
2.110317460317460370e+00,-1.400271019424609793e-05,-1.257159491406614398e-05
2.111111111111111160e+00,-1.505242795760051900e-05,-1.141104483876074730e-05
2.111904761904761951e+00,-1.298538269770885861e-05,-1.194677415804518685e-05
2.112698412698412742e+00,-8.465908459221687155e-06,-1.388533838736640134e-05
2.113492063492063533e+00,-2.798661165483766813e-06,-1.619313024895466336e-05
2.114285714285714324e+00,2.414396745917304989e-06,-1.743590653068109663e-05
2.115079365079365115e+00,5.705699776256309092e-06,-1.629981522534183693e-05
2.115873015873015905e+00,6.137572161334149870e-06,-1.211946961412678967e-05
2.116666666666666696e+00,3.545449811767895853e-06,-5.216948371288129480e-06
2.117460317460317487e+00,-1.441515633407795907e-06,3.086320531067188809e-06
2.118253968253968278e+00,-7.603901470988933612e-06,1.080621937134514480e-05
2.119047619047619069e+00,-1.349079778834877311e-05,1.588027436296143087e-05
2.119841269841269860e+00,-1.781826647944994072e-05,1.681849458950268839e-05
2.120634920634920650e+00,-1.978551740544027762e-05,1.322006088223782318e-05
2.121428571428571441e+00,-1.922316652269734648e-05,5.990504601492844143e-06
2.122222222222222232e+00,-1.655063594983884325e-05,-2.829336619892227363e-06
2.123015873015873023e+00,-1.258167678982332168e-05,-1.060420325541587930e-05
2.123809523809523814e+00,-8.255150942794126730e-06,-1.487573930123315502e-05
2.124603174603174605e+00,-4.374924714599235897e-06,-1.412638012300012025e-05
2.125396825396825395e+00,-1.424490003263109957e-06,-8.271741459977353708e-06
2.126190476190476186e+00,5.087396836055607446e-07,1.306623629689168841e-06
2.126984126984126977e+00,1.695818941320821694e-06,1.221679291227392981e-05
2.127777777777777768e+00,2.636673814975076142e-06,2.184709032881389625e-05
2.128571428571428559e+00,3.876995430029142215e-06,2.820610995148574229e-05
2.129365079365079350e+00,5.819599175953680554e-06,3.049918322252098758e-05
2.130158730158730140e+00,8.578361316282696151e-06,2.922693521524632736e-05
2.130952380952380931e+00,1.191169353512613313e-05,2.578582887511989870e-05
2.131746031746031722e+00,1.525164831656050473e-05,2.175721526605512229e-05
2.132539682539682513e+00,1.782016756644728205e-05,1.819229654776028380e-05
2.133333333333333304e+00,1.880381758827441848e-05,1.518268494178725257e-05
2.134126984126984095e+00,1.754850024147987733e-05,1.187021353604103732e-05
2.134920634920634885e+00,1.373611928659099644e-05,6.865800109665616968e-06
2.135714285714285676e+00,7.511051836636664007e-06,-1.105667857663860414e-06
2.136507936507936467e+00,-4.695985338004380306e-07,-1.258405264312039619e-05
2.137301587301587258e+00,-9.082620440108659616e-06,-2.699340749287655315e-05
2.138095238095238049e+00,-1.689387582898822077e-05,-4.261741062725007306e-05
2.138888888888888840e+00,-2.241456428685420469e-05,-5.692412911929551586e-05
2.139682539682539630e+00,-2.442010755586681431e-05,-6.713189049639430690e-05
2.140476190476190421e+00,-2.225949200703213261e-05,-7.084954133457677279e-05
2.141269841269841212e+00,-1.606431743508249965e-05,-6.662025941343342490e-05
2.142063492063492003e+00,-6.780563048205578848e-06,-5.424694696440690225e-05
2.142857142857142794e+00,4.004067569746684858e-06,-3.485444893786113132e-05
2.143650793650793585e+00,1.439692640561161891e-05,-1.070900854009382705e-05
2.144444444444444375e+00,2.260882403927242350e-05,1.515509270257873522e-05
2.145238095238095166e+00,2.732793730075827311e-05,3.944414380713901169e-05
2.146031746031745957e+00,2.797548148930722154e-05,5.917570869632682442e-05
2.146825396825396748e+00,2.479725523025729829e-05,7.220634441196160306e-05
2.147619047619047539e+00,1.878095287987079911e-05,7.758788015824073846e-05
2.148412698412698330e+00,1.141905068031794260e-05,7.564532012119292554e-05
2.149206349206349120e+00,4.364462943427048001e-06,6.774965902979573310e-05
2.149999999999999911e+00,-9.494611959071089975e-07,5.586903132239782408e-05
2.150793650793650702e+00,-3.638187047817933002e-06,4.206245002205933573e-05
2.151587301587301493e+00,-3.560952797762637610e-06,2.808320786158840365e-05
2.152380952380952284e+00,-1.324671415945245955e-06,1.518381235298029253e-05
2.153174603174603075e+00,1.910065253707440001e-06,4.111408210191226224e-06
2.153968253968253865e+00,4.768249064336198849e-06,-4.785842457381099761e-06
2.154761904761904656e+00,6.046890785849629527e-06,-1.142701771789896520e-05
2.155555555555555447e+00,5.038315387940030093e-06,-1.589109141803531978e-05
2.156349206349206238e+00,1.703772997838602516e-06,-1.834724364626215458e-05
2.157142857142857029e+00,-3.341798514731466984e-06,-1.902090667314935079e-05
2.157936507936507819e+00,-9.019345941316067678e-06,-1.819113275887431061e-05
2.158730158730158610e+00,-1.408958214796298360e-05,-1.620809268792869045e-05
2.159523809523809401e+00,-1.748363473246336173e-05,-1.350628138917445057e-05
2.160317460317460192e+00,-1.856923368467987081e-05,-1.058144172811864961e-05
2.161111111111110983e+00,-1.728256719285803752e-05,-7.909248959725630947e-06
2.161904761904761774e+00,-1.409706862595162044e-05,-5.813250939036807721e-06
2.162698412698412564e+00,-9.849397061758343851e-06,-4.328247572108255578e-06
2.163492063492063355e+00,-5.484473499490369683e-06,-3.133723495406953119e-06
2.164285714285714146e+00,-1.802014380618570937e-06,-1.628256398950421319e-06
2.165079365079364937e+00,7.205793465470697495e-07,8.327423119266942218e-07
2.165873015873015728e+00,1.986547596165310575e-06,4.595692797872005088e-06
2.166666666666666519e+00,2.220339517280586265e-06,9.397672880362821184e-06
2.167460317460317309e+00,1.828560071868066949e-06,1.423575159596724132e-05
2.168253968253968100e+00,1.238438137132598173e-06,1.750912219564438194e-05
2.169047619047618891e+00,7.689115467393981587e-07,1.742237804231925775e-05
2.169841269841269682e+00,5.695151045084304228e-07,1.253772827685652386e-05
2.170634920634920473e+00,6.321591511903265114e-07,2.305177687117937929e-06
2.171428571428571264e+00,8.526100578201707311e-07,-1.260113867561119626e-05
2.172222222222222054e+00,1.104470599056544470e-06,-3.025806418928456457e-05
2.173015873015872845e+00,1.293827247672060774e-06,-4.780601622170465312e-05
2.173809523809523636e+00,1.381075481639625596e-06,-6.202546775680745246e-05
2.174603174603174427e+00,1.374774706195500385e-06,-7.002863193603545643e-05
2.175396825396825218e+00,1.311286435503920728e-06,-6.988967517692033511e-05
2.176190476190476009e+00,1.233016033894569199e-06,-6.105962257023917600e-05
2.176984126984126799e+00,1.172708395056599666e-06,-4.447407941459191513e-05
2.177777777777777590e+00,1.146098964069813276e-06,-2.234438974467808795e-05
2.178571428571428381e+00,1.151615487818157249e-06,2.296212603578108257e-06
2.179365079365079172e+00,1.173875893315406487e-06,2.616572240327181637e-05
2.180158730158729963e+00,1.188101695134214289e-06,4.629124494062848390e-05
2.180952380952380754e+00,1.164974629638513174e-06,6.044985943771994888e-05
2.181746031746031544e+00,1.077351453343065945e-06,6.743876047418218922e-05
2.182539682539682335e+00,9.091468458043987102e-07,6.715941068383786058e-05
2.183333333333333126e+00,6.634516523448416569e-07,6.052464324528408291e-05
2.184126984126983917e+00,3.652488415631909322e-07,4.921680010975461208e-05
2.184920634920634708e+00,5.643311701303565249e-08,3.534396853054419399e-05
2.185714285714285499e+00,-2.143646484294721420e-07,2.105627784949676694e-05
2.186507936507936289e+00,-4.016635755975178027e-07,8.190363613881857440e-06
2.187301587301587080e+00,-4.686961096596471590e-07,-1.994582234332538850e-06
2.188095238095238315e+00,-3.889838331430373559e-07,-8.943570199670573340e-06
2.188888888888889106e+00,-1.475834183615276244e-07,-1.278114450199259966e-05
2.189682539682539897e+00,2.547942023482226726e-07,-1.415868847984412158e-05
2.190476190476190688e+00,7.951461395469651662e-07,-1.402703858782817886e-05
2.191269841269841478e+00,1.422866919464986071e-06,-1.339811720954306051e-05
2.192063492063492269e+00,2.060378412964223596e-06,-1.314810731812178981e-05
2.192857142857143060e+00,2.612297726355191377e-06,-1.388982869654576905e-05
2.193650793650793851e+00,2.982563409906071328e-06,-1.591491582169722626e-05
2.194444444444444642e+00,3.095908150219506470e-06,-1.918676793196818711e-05
2.195238095238095433e+00,2.917864221240458852e-06,-2.335999051190615325e-05
2.196031746031746223e+00,2.466850337307528648e-06,-2.781375733666976909e-05
2.196825396825397014e+00,1.813378069697243256e-06,-3.170784897176076410e-05
2.197619047619047805e+00,1.064919789666353684e-06,-3.408383942501950364e-05
2.198412698412698596e+00,3.396958290317558624e-07,-3.402582690274021695e-05
2.199206349206349387e+00,-2.630989162060706806e-07,-3.086815576195735841e-05
2.200000000000000178e+00,-6.874598856363018928e-07,-2.440905482218832975e-05
2.200793650793650968e+00,-9.318255465945745024e-07,-1.507402066635552706e-05
2.201587301587301759e+00,-1.044249133823983409e-06,-3.974048234396519667e-06
2.202380952380952550e+00,-1.102878074184675988e-06,7.181886383546173679e-06
2.203174603174603341e+00,-1.187170534118226622e-06,1.633454292124926507e-05
2.203968253968254132e+00,-1.348281321621102977e-06,2.145860038462919594e-05
2.204761904761904923e+00,-1.587942309909166336e-06,2.101495412955512455e-05
2.205555555555555713e+00,-1.852891363613168829e-06,1.436709600759809639e-05
2.206349206349206504e+00,-2.047018807951081398e-06,2.049868466367377054e-06
2.207142857142857295e+00,-2.058166531746413350e-06,-1.419183211970605485e-05
2.207936507936508086e+00,-1.792859538462634566e-06,-3.162063176912495563e-05
2.208730158730158877e+00,-1.210376271732457225e-06,-4.694608561608414900e-05
2.209523809523809668e+00,-3.470560097257344548e-07,-5.690465251991454171e-05
2.210317460317460458e+00,6.770420815219615127e-07,-5.887153552897239010e-05
2.211111111111111249e+00,1.673451221369222431e-06,-5.138652384535397511e-05
2.211904761904762040e+00,2.421423722609122663e-06,-3.448626430459550456e-05
2.212698412698412831e+00,2.717879618508793024e-06,-9.767459479569750092e-06
2.213492063492063622e+00,2.429622356767842769e-06,1.984334682033439022e-05
2.214285714285714413e+00,1.534130360471427697e-06,5.057622357062275398e-05
2.215079365079365203e+00,1.365118938007636210e-07,7.846403480043411330e-05
2.215873015873015994e+00,-1.544559620606885402e-06,1.000102723458200492e-04
2.216666666666666785e+00,-3.220860030877117870e-06,1.127326846990708012e-04
2.217460317460317576e+00,-4.598696206022291062e-06,1.154713026461171580e-04
2.218253968253968367e+00,-5.446683690060390700e-06,1.084191187690232552e-04
2.219047619047619158e+00,-5.648932005749086485e-06,9.291518555697782407e-05
2.219841269841269948e+00,-5.228952017291784366e-06,7.110110061809421511e-05
2.220634920634920739e+00,-4.337909539670560818e-06,4.555611477255788104e-05
2.221428571428571530e+00,-3.211374840573678974e-06,1.898913907567421238e-05
2.222222222222222321e+00,-2.107981760495556505e-06,-5.996736942779226346e-06
2.223015873015873112e+00,-1.248042003455521571e-06,-2.709880901771533166e-05
2.223809523809523903e+00,-7.684385649606351496e-07,-4.250490218776951061e-05
2.224603174603174693e+00,-7.032888339757372163e-07,-5.108476201654529641e-05
2.225396825396825484e+00,-9.914351273933432485e-07,-5.255044723469809074e-05
2.226190476190476275e+00,-1.504831060788301155e-06,-4.753235039763479479e-05
2.226984126984127066e+00,-2.087304978304612915e-06,-3.752095873677643086e-05
2.227777777777777857e+00,-2.591311140279429221e-06,-2.465224387521757065e-05
2.228571428571428648e+00,-2.902309660555042940e-06,-1.136141913760406794e-05
2.229365079365079438e+00,-2.946863915772186759e-06,2.178839003056854047e-08
2.230158730158730229e+00,-2.688912111253183431e-06,7.639909817371392438e-06
2.230952380952381020e+00,-2.124178559404359308e-06,1.035721050854091960e-05
2.231746031746031811e+00,-1.281591906051938587e-06,7.859517187856244084e-06
2.232539682539682602e+00,-2.329441124568127107e-07,6.219078064966382575e-07
2.233333333333333393e+00,8.977143334354289377e-07,-1.020886070513727002e-05
2.234126984126984183e+00,1.938857955484365446e-06,-2.297027902976681656e-05
2.234920634920634974e+00,2.701340161512752423e-06,-3.565548312724744681e-05
2.235714285714285765e+00,3.033689311161680952e-06,-4.610976808503912909e-05
2.236507936507936556e+00,2.889993295551924333e-06,-5.228165872004358889e-05
2.237301587301587347e+00,2.387163785246134237e-06,-5.254635385962791417e-05
2.238095238095238138e+00,1.825093778431067335e-06,-4.607210104145120896e-05
2.238888888888888928e+00,1.649233938615038137e-06,-3.313609808599619628e-05
2.239682539682539719e+00,2.350536005245967188e-06,-1.525476483624940119e-05
2.240476190476190510e+00,4.319403097177892381e-06,4.986064450930341182e-06
2.241269841269841301e+00,7.690672581551155309e-06,2.441966326394690617e-05
2.242063492063492092e+00,1.222672526165188865e-05,3.998940973946192963e-05
2.242857142857142883e+00,1.728130760774782611e-05,4.942601499776810050e-05
2.243650793650793673e+00,2.186987049603943123e-05,5.169386713422680351e-05
2.244444444444444464e+00,2.484764978429701812e-05,4.709046054008898634e-05
2.245238095238095255e+00,2.516788391423278068e-05,3.702200313804368396e-05
2.246031746031746046e+00,2.216414644879900368e-05,2.357757077325392520e-05
2.246825396825396837e+00,1.578127699886235132e-05,9.049631174182851055e-06
2.247619047619047628e+00,6.679570454964778298e-06,-4.482078827438724312e-06
2.248412698412698418e+00,-3.836723460251067360e-06,-1.543804849132930955e-05
2.249206349206349209e+00,-1.406718098286192253e-05,-2.288033892376928292e-05
2.250000000000000000e+00,-2.228460702527537425e-05,-2.652372105726519955e-05
2.250793650793650791e+00,-2.712897738044311121e-05,-2.664970350446473394e-05
2.251587301587301582e+00,-2.791669847231658731e-05,-2.396075194411133099e-05
2.252380952380952372e+00,-2.478132082318188598e-05,-1.940947335848046458e-05
2.253174603174603163e+00,-1.861436301237709748e-05,-1.403192120900240095e-05
2.253968253968253954e+00,-1.083147816603782189e-05,-8.804544098064055835e-06
2.254761904761904745e+00,-3.030358807220454723e-06,-4.530646233361022993e-06
2.255555555555555536e+00,3.373868936414779303e-06,-1.750708261953066678e-06
2.256349206349206327e+00,7.450762316759055002e-06,-6.702714989999003849e-07
2.257142857142857117e+00,8.927244725713029985e-06,-1.111916775734246984e-06
2.257936507936507908e+00,8.195706759393319539e-06,-2.516615086601339243e-06
2.258730158730158699e+00,6.161517750493941774e-06,-4.029183141806434701e-06
2.259523809523809490e+00,3.972123965094688177e-06,-4.686694593132109750e-06
2.260317460317460281e+00,2.699134008960900682e-06,-3.684340015283461293e-06
2.261111111111111072e+00,3.056897178820206610e-06,-6.424153249079305759e-07
2.261904761904761862e+00,5.228716848180675237e-06,4.223421064458830386e-06
2.262698412698412653e+00,8.835875286782986985e-06,1.010043343334900928e-05
2.263492063492063444e+00,1.303952466533472566e-05,1.575729355466217818e-05
2.264285714285714235e+00,1.673167565523973375e-05,1.985026026382895968e-05
2.265079365079365026e+00,1.876119805752451169e-05,2.126385821634272803e-05
2.265873015873015817e+00,1.815119382315660718e-05,1.939082212862368193e-05
2.266666666666666607e+00,1.428197316948981648e-05,1.428773388466659132e-05
2.267460317460317398e+00,7.025018792144251466e-06,6.684406294763103915e-06
2.268253968253968189e+00,-3.187566422202709111e-06,-2.145145862772120651e-06
2.269047619047618980e+00,-1.537867324056741144e-05,-1.062548219528205271e-05
2.269841269841269771e+00,-2.814175554433530747e-05,-1.719558058022142841e-05
2.270634920634920562e+00,-3.984856922100580895e-05,-2.063683114152456213e-05
2.271428571428571352e+00,-4.891295826417301764e-05,-2.033720632674817589e-05
2.272222222222222143e+00,-5.405874350818297555e-05,-1.642089464959330184e-05
2.273015873015872934e+00,-5.454219637928969528e-05,-9.705557154380587244e-06
2.273809523809523725e+00,-5.029101708153737351e-05,-1.500604030720138608e-06
2.274603174603174516e+00,-4.193319711471648969e-05,6.692326762977249605e-06
2.275396825396825307e+00,-3.070191514152318567e-05,1.349155512256015154e-05
2.276190476190476097e+00,-1.822192351366227900e-05,1.788291802806510897e-05
2.276984126984126888e+00,-6.207983033707085605e-06,1.935830006498126483e-05
2.277777777777777679e+00,3.870349987151991788e-06,1.794070782171788532e-05
2.278571428571428470e+00,1.108817397108093369e-05,1.411891771100428855e-05
2.279365079365079261e+00,1.525732048554145067e-05,8.721371982908566773e-06
2.280158730158730052e+00,1.695372251257069217e-05,2.753174853403034268e-06
2.280952380952380842e+00,1.735686521836747638e-05,-2.782830788495221351e-06
2.281746031746031633e+00,1.792869904919811700e-05,-7.054216008325864365e-06
2.282539682539682424e+00,2.001011094069471730e-05,-9.525193551236388142e-06
2.283333333333333215e+00,2.444148751333867386e-05,-1.001813633473061731e-05
2.284126984126984006e+00,3.130809412554506476e-05,-8.706672568230989717e-06
2.284920634920634797e+00,3.987645787230977837e-05,-6.053884455469851516e-06
2.285714285714285587e+00,4.873790437935259315e-05,-2.716679091203852279e-06
2.286507936507936378e+00,5.612090778600586238e-05,5.628013127420733146e-07
2.287301587301587169e+00,6.028673580235519399e-05,3.061585300759345216e-06
2.288095238095237960e+00,5.989929874124325397e-05,4.165164779591969920e-06
2.288888888888888751e+00,5.427338916042717730e-05,3.438843269266657990e-06
2.289682539682539542e+00,4.345446267041892547e-05,6.849611569054235059e-07
2.290476190476190332e+00,2.814781142728101180e-05,-4.009469637558053446e-06
2.291269841269841123e+00,9.563473896897531533e-06,-1.023755502377533080e-05
2.292063492063491914e+00,-1.074906183624659096e-05,-1.726500050254847437e-05
2.292857142857142705e+00,-3.103398184370752575e-05,-2.407486160310812824e-05
2.293650793650793496e+00,-4.943467191593539482e-05,-2.948619801482301920e-05
2.294444444444444287e+00,-6.411089927893180555e-05,-3.234890384838988670e-05
2.295238095238095077e+00,-7.341063214344264337e-05,-3.178565363656786654e-05
2.296031746031745868e+00,-7.610695843441354577e-05,-2.742179815033045554e-05
2.296825396825396659e+00,-7.165675322857714615e-05,-1.953155840971779829e-05
2.297619047619047450e+00,-6.039609793636680282e-05,-9.042919474570916701e-06
2.298412698412698241e+00,-4.358710194524686223e-05,2.620728657832279156e-06
2.299206349206349032e+00,-2.327272285397540054e-05,1.383983684572335573e-05
2.299999999999999822e+00,-1.957052205126118146e-06,2.317387381531455981e-05
2.300793650793650613e+00,1.781741086383992803e-05,2.971395701909143093e-05
2.301587301587301404e+00,3.389376703285822443e-05,3.330227182167802086e-05
2.302380952380952195e+00,4.482699887669610623e-05,3.453323249515004068e-05
2.303174603174602986e+00,5.004743031260731445e-05,3.451914823228556956e-05
2.303968253968253777e+00,4.984590555697629628e-05,3.449035738275501206e-05
2.304761904761904567e+00,4.520955705918043425e-05,3.536398610982387680e-05
2.305555555555555358e+00,3.756295540288610824e-05,3.742366600328582969e-05
2.306349206349206149e+00,2.847649011101619721e-05,4.020473845904962308e-05
2.307142857142856940e+00,1.939721264571058059e-05,4.260506947483897063e-05
2.307936507936507731e+00,1.144163327842605638e-05,4.317588745721438401e-05
2.308730158730158522e+00,5.270958043601243857e-06,4.051037521236548072e-05
2.309523809523809312e+00,1.054769141089162733e-06,3.363949768181822951e-05
2.310317460317460103e+00,-1.478214162721737937e-06,2.235165002430560503e-05
2.311111111111110894e+00,-2.910206163761030425e-06,7.364698622401803057e-06
2.311904761904761685e+00,-3.946213528626248261e-06,-9.702446327528661718e-06
2.312698412698412920e+00,-5.206774449800900802e-06,-2.657693677883434167e-05
2.313492063492063711e+00,-7.053529483791049795e-06,-4.076215150104881463e-05
2.314285714285714501e+00,-9.496118419648873424e-06,-5.005635186774847628e-05
2.315079365079365292e+00,-1.220645611482758315e-05,-5.302910952151542920e-05
2.315873015873016083e+00,-1.463325800657544334e-05,-4.933495233396431828e-05
2.316666666666666874e+00,-1.617920057939369977e-05,-3.979706326281769218e-05
2.317460317460317665e+00,-1.638619424847710085e-05,-2.625829041629972746e-05
2.318253968253968456e+00,-1.507552336829652673e-05,-1.124011555168612331e-05
2.319047619047619246e+00,-1.240688512947690275e-05,2.529390041111363296e-06
2.319841269841270037e+00,-8.845988227515438451e-06,1.264090349110005113e-05
2.320634920634920828e+00,-5.055256229591561085e-06,1.748422417508430895e-05
2.321428571428571619e+00,-1.739842772355662984e-06,1.657588354111635468e-05
2.322222222222222410e+00,5.113231271472111659e-07,1.064545318093309315e-05
2.323015873015873201e+00,1.352393145543011834e-06,1.443419901091476490e-06
2.323809523809523991e+00,7.486553484421290113e-07,-8.693585686317915217e-06
2.324603174603174782e+00,-1.026530249116163975e-06,-1.741055372189694177e-05
2.325396825396825573e+00,-3.463188456230064513e-06,-2.287957860335059103e-05
2.326190476190476364e+00,-5.938245558081006465e-06,-2.417533770919853172e-05
2.326984126984127155e+00,-7.863389715779894605e-06,-2.139261241751617214e-05
2.327777777777777946e+00,-8.821380743933564210e-06,-1.550118609367217928e-05
2.328571428571428736e+00,-8.653731930972304289e-06,-8.007139922593332749e-06
2.329365079365079527e+00,-7.473767918583612694e-06,-5.343483936347756072e-07
2.330158730158730318e+00,-5.602620332370351608e-06,5.551913762409447995e-06
2.330952380952381109e+00,-3.453216823633134223e-06,9.386749876226546091e-06
2.331746031746031900e+00,-1.405728956184113146e-06,1.067677332229594357e-05
2.332539682539682691e+00,2.824651266202181330e-07,9.624580838592886942e-06
2.333333333333333481e+00,1.508346817849930142e-06,6.767897557401217020e-06
2.334126984126984272e+00,2.298832225280990709e-06,2.798075766435567548e-06
2.334920634920635063e+00,2.752209381469716751e-06,-1.595779190491341935e-06
2.335714285714285854e+00,2.973302443075867097e-06,-5.830381642976753728e-06
2.336507936507936645e+00,3.025890896950802232e-06,-9.468409076016687551e-06
2.337301587301587436e+00,2.915978597787791763e-06,-1.220400308783515187e-05
2.338095238095238226e+00,2.606695076355556367e-06,-1.382566827496380611e-05
2.338888888888889017e+00,2.053475814983281636e-06,-1.419779809115290448e-05
2.339682539682539808e+00,1.241984146239536483e-06,-1.328299616376438316e-05
2.340476190476190599e+00,2.135565312711428206e-07,-1.118882204569114136e-05
2.341269841269841390e+00,-9.291012215899906452e-07,-8.193496227422441972e-06
2.342063492063492181e+00,-2.034693621929919591e-06,-4.710969885907501151e-06
2.342857142857142971e+00,-2.927588186002071693e-06,-1.195205618954565745e-06
2.343650793650793762e+00,-3.435301223187480843e-06,1.972879818424556679e-06
2.344444444444444553e+00,-3.414047862575170128e-06,4.558069890111202161e-06
2.345238095238095344e+00,-2.771447985739012266e-06,6.470291335154836064e-06
2.346031746031746135e+00,-1.487115671406582073e-06,7.702522406068699150e-06
2.346825396825396925e+00,3.698690264092795205e-07,8.252716429710266747e-06
2.347619047619047716e+00,2.630758097441549606e-06,8.080559345142608574e-06
2.348412698412698507e+00,5.030939208107400716e-06,7.127481377742397743e-06
2.349206349206349298e+00,7.234776147924127916e-06,5.391704762172901125e-06
2.350000000000000089e+00,8.884800198573693001e-06,3.017221878540686592e-06
2.350793650793650880e+00,9.670534858272262667e-06,3.423768549936398936e-07
2.351587301587301670e+00,9.402230156637886188e-06,-2.132819971028011231e-06
2.352380952380952461e+00,8.067454314606702938e-06,-3.866810347207399752e-06
2.353174603174603252e+00,5.849097418349481760e-06,-4.449154675015995070e-06
2.353968253968254043e+00,3.094363719277407281e-06,-3.760950049410312114e-06
2.354761904761904834e+00,2.421209066973378777e-07,-2.052580900149597251e-06
2.355555555555555625e+00,-2.268505384965965704e-06,1.088028169755440506e-07
2.356349206349206415e+00,-4.080662864183636452e-06,2.024354992427699382e-06
2.357142857142857206e+00,-4.973518190272334673e-06,3.129593095731278813e-06
2.357936507936507997e+00,-4.881755809467133268e-06,3.246362492029118293e-06
2.358730158730158788e+00,-3.888307306273225442e-06,2.711576553343227890e-06
2.359523809523809579e+00,-2.203222772483702772e-06,2.302980552394477627e-06
2.360317460317460370e+00,-1.377125207319774341e-07,2.956181738847758216e-06
2.361111111111111160e+00,1.927632993081199240e-06,5.364171973231130840e-06
2.361904761904761951e+00,3.589528211290564545e-06,9.624101138432209995e-06
2.362698412698412742e+00,4.490244725262717585e-06,1.509826532980949822e-05
2.363492063492063533e+00,4.400057052251440117e-06,2.057477797168195868e-05
2.364285714285714324e+00,3.290071267665765054e-06,2.468344617098792613e-05
2.365079365079365115e+00,1.365017792630292689e-06,2.640464524609392453e-05
2.365873015873015905e+00,-9.655174115347611864e-07,2.545936136482948641e-05
2.366666666666666696e+00,-3.178239889451720637e-06,2.241457682410903546e-05
2.367460317460317487e+00,-4.767366138306722561e-06,1.846168586830287503e-05
2.368253968253968278e+00,-5.377691279244355038e-06,1.496596135469379510e-05
2.369047619047619069e+00,-4.898464315401150595e-06,1.297304375327180263e-05
2.369841269841269860e+00,-3.488454579099903533e-06,1.285774087468354668e-05
2.370634920634920650e+00,-1.524850370143105123e-06,1.422324982639737169e-05
2.371428571428571441e+00,5.060051261328949869e-07,1.605105628126353361e-05
2.372222222222222232e+00,2.139496346765521796e-06,1.701508116698577654e-05
2.373015873015873023e+00,3.044559410938948275e-06,1.584034776550230253e-05
2.373809523809523814e+00,3.087230235846759722e-06,1.160627147789551619e-05
2.374603174603174605e+00,2.337510071551524610e-06,3.941850642446428506e-06
2.375396825396825395e+00,1.030481548105653494e-06,-6.895575540899382433e-06
2.376190476190476186e+00,-4.983475984101674802e-07,-2.004126986249756581e-05
2.376984126984126977e+00,-1.885288943748099704e-06,-3.412196618066734691e-05
2.377777777777777768e+00,-2.805762315011238942e-06,-4.741832468613525639e-05
2.378571428571428559e+00,-3.027109358359870477e-06,-5.808568638346452097e-05
2.379365079365079350e+00,-2.438227538561766179e-06,-6.442694159720600410e-05
2.380158730158730140e+00,-1.050728294277907161e-06,-6.519449877434340052e-05
2.380952380952380931e+00,1.025688163880310888e-06,-5.987117066750287912e-05
2.381746031746031722e+00,3.621941834773297804e-06,-4.885740334987829456e-05
2.382539682539682513e+00,6.545854407701799592e-06,-3.349067448774102222e-05
2.383333333333333304e+00,9.601358791447087076e-06,-1.585133782434054468e-05
2.384126984126984095e+00,1.258420626924391533e-05,1.633268423077052268e-06
2.384920634920634885e+00,1.526075009784681123e-05,1.670166713016820432e-05
2.385714285714285676e+00,1.735012975636203550e-05,2.774303878074493057e-05
2.386507936507936467e+00,1.853580597756279794e-05,3.409674251241892731e-05
2.387301587301587258e+00,1.852061715407817981e-05,3.606579433302675779e-05
2.388095238095238049e+00,1.711236076572495658e-05,3.465256431863728345e-05
2.388888888888888840e+00,1.430225267029054998e-05,3.113493929491563443e-05
2.389682539682539630e+00,1.029619182000017043e-05,2.665606427122762923e-05
2.390476190476190421e+00,5.481221043637604396e-06,2.197599580118741162e-05
2.391269841269841212e+00,3.411863765778139899e-07,1.744687428929852236e-05
2.392063492063492003e+00,-4.643040221699864736e-06,1.316823284337173163e-05
2.392857142857142794e+00,-9.072352088327542138e-06,9.203386252651797302e-06
2.393650793650793585e+00,-1.266726347152585921e-05,5.725812760844698528e-06
2.394444444444444375e+00,-1.526684962074381446e-05,3.020967095375517369e-06
2.395238095238095166e+00,-1.680550366014364028e-05,1.360505410421234008e-06
2.396031746031745957e+00,-1.728688952582206373e-05,8.364532382226262474e-07
2.396825396825396748e+00,-1.676922835348020345e-05,1.252869551842703213e-06
2.397619047619047539e+00,-1.536906934297176523e-05,2.127504850966176155e-06
2.398412698412698330e+00,-1.328340153884552017e-05,2.796369239518416283e-06
2.399206349206349120e+00,-1.082009418048212144e-05,2.578361117131207140e-06
2.399999999999999911e+00,-8.415291219695058447e-06,9.528879953448662724e-07
2.400793650793650702e+00,-6.611355484516288405e-06,-2.287430749347341907e-06
2.401587301587301493e+00,-5.978245826339595625e-06,-6.941840027130958712e-06
2.402380952380952284e+00,-6.983538579861114451e-06,-1.239603669048697225e-05
2.403174603174603075e+00,-9.840805864585256533e-06,-1.772771557387115492e-05
2.403968253968253865e+00,-1.438107132902736416e-05,-2.191386950446968471e-05
2.404761904761904656e+00,-1.999230782631944515e-05,-2.408472545981192185e-05
2.405555555555555447e+00,-2.565861101987778502e-05,-2.373443327792144864e-05
2.406349206349206238e+00,-3.010822483129923214e-05,-2.080627398819078850e-05
2.407142857142857029e+00,-3.205289565822914646e-05,-1.562715231987074437e-05
2.407936507936507819e+00,-3.047430857356619774e-05,-8.743123860636618880e-06
2.408730158730158610e+00,-2.489210531659345022e-05,-7.574794334109186438e-07
2.409523809523809401e+00,-1.554070052794688969e-05,7.737563979820134705e-06
2.410317460317460192e+00,-3.396583433197928893e-06,1.611108581476266020e-05
2.411111111111110983e+00,9.965700589939206709e-06,2.358338960677382220e-05
2.411904761904761774e+00,2.266263844529199607e-05,2.916151068591287020e-05
2.412698412698412564e+00,3.286792529661336650e-05,3.171264486056449403e-05
2.413492063492063355e+00,3.916801906539446755e-05,3.020044370720319725e-05
2.414285714285714146e+00,4.082597714858242219e-05,2.402205223706027339e-05
2.415079365079364937e+00,3.789917938432286375e-05,1.331922901745053090e-05
2.415873015873015728e+00,3.119396679521980651e-05,-8.725714631420981917e-07
2.416666666666666519e+00,2.207829931945041123e-05,-1.671853392066056406e-05
2.417460317460317309e+00,1.220128417829895558e-05,-3.190871592822118669e-05
2.418253968253968100e+00,3.179962000367328388e-06,-4.411291698003127511e-05
2.419047619047618891e+00,-3.687377353492368349e-06,-5.143108412163393037e-05
2.419841269841269682e+00,-7.629474672185439222e-06,-5.272309561207940749e-05
2.420634920634920473e+00,-8.492932837295414636e-06,-4.775432880091913979e-05
2.421428571428571264e+00,-6.698115680751767575e-06,-3.715556338066996177e-05
2.422222222222222054e+00,-3.073294624722848869e-06,-2.224615633594150701e-05
2.423015873015872845e+00,1.386430847605752816e-06,-4.790044761406108189e-06
2.423809523809523636e+00,5.765091943785120950e-06,1.325848471670831206e-05
2.424603174603174427e+00,9.405253414224628233e-06,2.999085397013357961e-05
2.425396825396825218e+00,1.197638460254083483e-05,4.375321434721648919e-05
2.426190476190476009e+00,1.343235910326954188e-05,5.331867778149159646e-05
2.426984126984126799e+00,1.389842851986474060e-05,5.800177212703225613e-05
2.427777777777777590e+00,1.354526670432867257e-05,5.769234329719090908e-05
2.428571428571428381e+00,1.249912789258315282e-05,5.280376273466013570e-05
2.429365079365079172e+00,1.081334389711595519e-05,4.415831826560287743e-05
2.430158730158729963e+00,8.500015411268376498e-06,3.285061539481374024e-05
2.430952380952380754e+00,5.599192882105868019e-06,2.012273699508908680e-05
2.431746031746031544e+00,2.249919682304845335e-06,7.257144090963489812e-06
2.432539682539682335e+00,-1.272752246062929154e-06,-4.531529353880457511e-06
2.433333333333333126e+00,-4.576583115606635885e-06,-1.422208804582183234e-05
2.434126984126983917e+00,-7.225369605524685304e-06,-2.111570938864209065e-05
2.434920634920634708e+00,-8.843208901615132568e-06,-2.492409426117998114e-05
2.435714285714285499e+00,-9.215092050718024579e-06,-2.577443787507430802e-05
2.436507936507936289e+00,-8.351504681138780352e-06,-2.412588029642041062e-05
2.437301587301587080e+00,-6.497605901108207156e-06,-2.063629770451484211e-05
2.438095238095238315e+00,-4.084689482780978569e-06,-1.603599956992980574e-05
2.438888888888889106e+00,-1.637512053297189331e-06,-1.104647473063955525e-05
2.439682539682539897e+00,3.377421541015423466e-07,-6.346197347911391484e-06
2.440476190476190688e+00,1.455946577760615663e-06,-2.557843782106204479e-06
2.441269841269841478e+00,1.521272544451466741e-06,-2.261040172043915976e-07
2.442063492063492269e+00,5.478626367459040593e-07,2.303033078803142709e-07
2.442857142857143060e+00,-1.265913589234193050e-06,-1.411996560449266282e-06
2.443650793650793851e+00,-3.596069858211171985e-06,-5.109189364853124062e-06
2.444444444444444642e+00,-6.064809598900507223e-06,-1.049904158115737675e-05
2.445238095238095433e+00,-8.307509088929925723e-06,-1.689090794787413425e-05
2.446031746031746223e+00,-1.002398687107747259e-05,-2.331249243370242999e-05
2.446825396825397014e+00,-1.101097725909163785e-05,-2.862008759136673328e-05
2.447619047619047805e+00,-1.117715984702747525e-05,-3.166382476184252621e-05
2.448412698412698596e+00,-1.054252489868708493e-05,-3.148190589753766070e-05
2.449206349206349387e+00,-9.223044162055215898e-06,-2.748810053760352624e-05
2.450000000000000178e+00,-7.402899385621992898e-06,-1.961953050655417243e-05
2.450793650793650968e+00,-5.300381921100872372e-06,-8.420643778415863202e-06
2.451587301587301759e+00,-3.136783438658579166e-06,4.953229822139297361e-06
2.452380952380952550e+00,-1.116113010180809525e-06,1.882380171349308059e-05
2.453174603174603341e+00,5.831557395427356632e-07,3.117400861031782510e-05
2.453968253968254132e+00,1.810611911879019858e-06,3.992470113562266359e-05
2.454761904761904923e+00,2.450119269725902968e-06,4.328554405691172145e-05
2.455555555555555713e+00,2.435776646007409236e-06,4.013646428615535560e-05
2.456349206349206504e+00,1.775818354539330535e-06,3.036590478108689326e-05
2.457142857142857295e+00,5.745353706084220138e-07,1.507669185713374354e-05
2.457936507936508086e+00,-9.614009183712750426e-07,-3.417195504844237603e-06
2.458730158730158877e+00,-2.542474175615517488e-06,-2.184540261867432977e-05
2.459523809523809668e+00,-3.842743919717061075e-06,-3.648623615838560819e-05
2.460317460317460458e+00,-4.563564795837905432e-06,-4.386986786007347479e-05
2.461111111111111249e+00,-4.498210137954522498e-06,-4.156865661432137887e-05
2.461904761904762040e+00,-3.580701833662662310e-06,-2.890676657474996046e-05
2.462698412698412831e+00,-1.907049510394864674e-06,-7.389253732016645052e-06
2.463492063492063622e+00,2.762110728401016574e-07,1.933145155693516285e-05
2.464285714285714413e+00,2.614968818594408888e-06,4.604797313007104656e-05
2.465079365079365203e+00,4.714876392367839594e-06,6.709239120210693701e-05
2.465873015873015994e+00,6.220473607845241965e-06,7.769239348911015201e-05
2.466666666666666785e+00,6.889563603418958874e-06,7.521309797031188935e-05
2.467460317460317576e+00,6.645677476317060305e-06,5.990013194403280642e-05
2.468253968253968367e+00,5.595141439781885193e-06,3.488166440946903187e-05
2.469047619047619158e+00,4.003021712189546946e-06,5.421548143391340589e-06
2.469841269841269948e+00,2.232391675840487059e-06,-2.235813876801974126e-05
2.470634920634920739e+00,6.608867736026821310e-07,-4.293087940258104648e-05
2.471428571428571530e+00,-4.058282878823855166e-07,-5.262461120805936017e-05
2.472222222222222321e+00,-8.036596402301475890e-07,-5.039580693738076716e-05
2.473015873015873112e+00,-5.467235885933137639e-07,-3.796300059618102512e-05
2.473809523809523903e+00,1.782122116213540208e-07,-1.929073307236149791e-05
2.474603174603174693e+00,1.060146896320749239e-06,4.461419462836388440e-07
2.475396825396825484e+00,1.746123642910105241e-06,1.616844967196948547e-05
2.476190476190476275e+00,1.938787011966400611e-06,2.414460277143463127e-05
2.476984126984127066e+00,1.483444591895467488e-06,2.286834894555926119e-05
2.477777777777777857e+00,4.178367668490363484e-07,1.333977567740289410e-05
2.478571428571428648e+00,-1.033406160199560149e-06,-1.310374007268467335e-06
2.479365079365079438e+00,-2.519928579349497884e-06,-1.673843647225806369e-05
2.480158730158730229e+00,-3.663623423367630836e-06,-2.859400345167578499e-05
2.480952380952381020e+00,-4.163346223067479811e-06,-3.368806636448135419e-05
2.481746031746031811e+00,-3.876460272972718189e-06,-3.080793404737249946e-05
2.482539682539682602e+00,-2.855902022709105463e-06,-2.096284283692703799e-05
2.483333333333333393e+00,-1.334276934642621295e-06,-7.009858549688040511e-06
2.484126984126984183e+00,3.390070901779390121e-07,7.206425675860118982e-06
2.484920634920634974e+00,1.788248382158118654e-06,1.792609497252491835e-05
2.485714285714285765e+00,2.702932523769082958e-06,2.243738667906427896e-05
2.486507936507936556e+00,2.906054190862485857e-06,1.967575682463920729e-05
2.487301587301587347e+00,2.386080175401627119e-06,1.034671163194679302e-05
2.488095238095238138e+00,1.291791959384980512e-06,-3.384253424009399491e-06
2.488888888888888928e+00,-1.031519047126410243e-07,-1.848634812631615401e-05
2.489682539682539719e+00,-1.457060376979988572e-06,-3.176200018592744377e-05
2.490476190476190510e+00,-2.429448512766480314e-06,-4.049201417135085148e-05
2.491269841269841301e+00,-2.752017802793277341e-06,-4.291929714384593980e-05
2.492063492063492092e+00,-2.287632697138090346e-06,-3.851287395645860073e-05
2.492857142857142883e+00,-1.062352363750064697e-06,-2.799410122629138038e-05
2.493650793650793673e+00,7.400553294864981055e-07,-1.313943549433774098e-05
2.494444444444444464e+00,2.821383842052312162e-06,3.596053091925923008e-06
2.495238095238095255e+00,4.837968324166179359e-06,1.956251218655181089e-05
2.496031746031746046e+00,6.474916124168651971e-06,3.241395458237372089e-05
2.496825396825396837e+00,7.505144696374803474e-06,4.052223393399475708e-05
2.497619047619047628e+00,7.820807611645332717e-06,4.321886243922864671e-05
2.498412698412698418e+00,7.435257425238441282e-06,4.081152613047826804e-05
2.499206349206349209e+00,6.460917787223943322e-06,3.437773864455859657e-05
2.500000000000000000e+00,5.071079858737772498e-06,2.540315206748691606e-05
2.500793650793650791e+00,3.454572792780405666e-06,1.538222559882882913e-05
2.501587301587301582e+00,1.773615932871839402e-06,5.508668479036821358e-06
2.502380952380952372e+00,1.356492316907786520e-07,-3.456429066252896339e-06
2.503174603174603163e+00,-1.413020166592941224e-06,-1.112509961314499402e-05
2.503968253968253954e+00,-2.870613734989393927e-06,-1.729780903320075089e-05
2.504761904761904745e+00,-4.246958231963679498e-06,-2.177235996517634680e-05
2.505555555555555536e+00,-5.526585445173157448e-06,-2.426318358735841767e-05
2.506349206349206327e+00,-6.642139133665652571e-06,-2.448383406812727054e-05
2.507142857142857117e+00,-7.469940815069732600e-06,-2.234627134236287426e-05
2.507936507936507908e+00,-7.852562094307578765e-06,-1.815094356655095343e-05
2.508730158730158699e+00,-7.643000185425255919e-06,-1.263306256716252324e-05
2.509523809523809490e+00,-6.755506247859909812e-06,-6.803760982017282967e-06
2.510317460317460281e+00,-5.204217208337800796e-06,-1.638580369864119839e-06
2.511111111111111072e+00,-3.114997171646246158e-06,2.247589821578374118e-06
2.511904761904761862e+00,-7.065060736573646286e-07,4.788415988615957010e-06
2.512698412698412653e+00,1.751719533517205006e-06,6.431343760368295084e-06
2.513492063492063444e+00,3.989347733036364296e-06,7.899509363998510078e-06
2.514285714285714235e+00,5.779262754225926637e-06,9.861868307445731491e-06
2.515079365079365026e+00,6.967176963936814572e-06,1.265743684520453206e-05
2.515873015873015817e+00,7.484674746508647702e-06,1.618021301907363385e-05
2.516666666666666607e+00,7.347375981082494403e-06,1.994383328531502923e-05
2.517460317460317398e+00,6.642139452404062531e-06,2.326224461314076986e-05
2.518253968253968189e+00,5.508005783414756401e-06,2.544978030693664583e-05
2.519047619047618980e+00,4.114158645895569785e-06,2.596919667329632982e-05
2.519841269841269771e+00,2.636099264738591479e-06,2.450892751135682495e-05
2.520634920634920562e+00,1.231392748591714274e-06,2.100960991454008149e-05
2.521428571428571352e+00,1.866218215527151909e-08,1.566665710440900055e-05
2.522222222222222143e+00,-9.353005290175913695e-07,8.921377634669110088e-06
2.523015873015872934e+00,-1.617515166963505836e-06,1.436076978757839347e-06
2.523809523809523725e+00,-2.060820285681819199e-06,-5.961287626146411978e-06
2.524603174603174516e+00,-2.328988760325761196e-06,-1.237583665823178289e-05
2.525396825396825307e+00,-2.497842996043262784e-06,-1.698771533331771151e-05
2.526190476190476097e+00,-2.635029122383865322e-06,-1.921811860450777762e-05
2.526984126984126888e+00,-2.782486049395786459e-06,-1.888396153083788325e-05
2.527777777777777679e+00,-2.947144817700017213e-06,-1.629738270759297566e-05
2.528571428571428470e+00,-3.104247153737717962e-06,-1.226718101185208792e-05
2.529365079365079261e+00,-3.213014659127119220e-06,-7.972221430097154368e-06
2.530158730158730052e+00,-3.238456244277699841e-06,-4.706839485477031549e-06
2.530952380952380842e+00,-3.169653738031466868e-06,-3.543534088225292156e-06
2.531746031746031633e+00,-3.026246866118375710e-06,-5.002760851899062960e-06
2.532539682539682424e+00,-2.850264952243591400e-06,-8.839998587379045678e-06
2.533333333333333215e+00,-2.687032152009056071e-06,-1.403979931157806564e-05
2.534126984126984006e+00,-2.563467810556730630e-06,-1.904523766940459159e-05
2.534920634920634797e+00,-2.472639568653882554e-06,-2.216897583656525543e-05
2.535714285714285587e+00,-2.370033785279452918e-06,-2.206347457052872013e-05
2.536507936507936378e+00,-2.182206415524726028e-06,-1.810488536950282824e-05
2.537301587301587169e+00,-1.825086902917702843e-06,-1.057823883189458849e-05
2.538095238095237960e+00,-1.227810422569869397e-06,-6.222398708900081666e-07
2.538888888888888751e+00,-3.571725533930720560e-07,1.003475082773032417e-05
2.539682539682539542e+00,7.631825516103126210e-07,1.946799359836871054e-05
2.540476190476190332e+00,2.044966427281238003e-06,2.598161866702227574e-05
2.541269841269841123e+00,3.343084202478606959e-06,2.847068477059663775e-05
2.542063492063491914e+00,4.479272481124557102e-06,2.664059425101530414e-05
2.542857142857142705e+00,5.276851214648130648e-06,2.103660354905167532e-05
2.543650793650793496e+00,5.598183674050106974e-06,1.288448839550162349e-05
2.544444444444444287e+00,5.375335755810573489e-06,3.794360096886735209e-06
2.545238095238095077e+00,4.626412797167280558e-06,-4.588273470662147127e-06
2.546031746031745868e+00,3.454303936738115514e-06,-1.089983234036487831e-05
2.546825396825396659e+00,2.029305680107643121e-06,-1.428449563595013267e-05
2.547619047619047450e+00,5.605689125669389181e-07,-1.449940861786530415e-05
2.548412698412698241e+00,-7.373364704133529947e-07,-1.189602084365137725e-05
2.549206349206349032e+00,-1.676987394963916513e-06,-7.295656438586361984e-06
2.549999999999999822e+00,-2.125568563257712761e-06,-1.794576367572372214e-06
2.550793650793650613e+00,-2.024410350733730121e-06,3.458308515471927439e-06
2.551587301587301404e+00,-1.398481859183504586e-06,7.472422171788910267e-06
2.552380952380952195e+00,-3.539911157015325691e-07,9.587677130817653993e-06
2.553174603174602986e+00,9.369917796878950666e-07,9.587499566459359960e-06
2.553968253968253777e+00,2.264157511477223435e-06,7.732330895452871683e-06
2.554761904761904567e+00,3.415543529016207539e-06,4.694668041448223291e-06
2.555555555555555358e+00,4.217225823912743447e-06,1.391411702477367463e-06
2.556349206349206149e+00,4.568139576792926950e-06,-1.261846202190458773e-06
2.557142857142856940e+00,4.460858451343039115e-06,-2.618765594719045576e-06
2.557936507936507731e+00,3.980005249722023477e-06,-2.518580059269016493e-06
2.558730158730158522e+00,3.274261235420814252e-06,-1.382232383513165089e-06
2.559523809523809312e+00,2.506035182370807048e-06,-1.483839649950960159e-07
2.560317460317460103e+00,1.792956882043307419e-06,-5.158524290008520757e-08
2.561111111111110894e+00,1.163388203509202151e-06,-2.287178938480039759e-06
2.561904761904761685e+00,5.485788036341394795e-07,-7.638911932284583075e-06
2.562698412698412920e+00,-1.771654078994889624e-07,-1.615952576735515161e-05
2.563492063492063711e+00,-1.118285654681924839e-06,-2.699036864216346077e-05
2.564285714285714501e+00,-2.273982847650230654e-06,-3.838502317137427631e-05
2.565079365079365292e+00,-3.490502784925357464e-06,-4.796437832102571491e-05
2.565873015873016083e+00,-4.479771197964797095e-06,-5.317623253404566916e-05
2.566666666666666874e+00,-4.904065152744523315e-06,-5.187052733217795445e-05
2.567460317460317665e+00,-4.495182567565841451e-06,-4.285428995967321535e-05
2.568253968253968456e+00,-3.163706991787541524e-06,-2.628097121432514504e-05
2.569047619047619246e+00,-1.063829632618072960e-06,-3.762944780791721934e-06
2.569841269841270037e+00,1.400419749579880376e-06,2.183825736845248090e-05
2.570634920634920828e+00,3.626021783391814170e-06,4.690974167630974467e-05
2.571428571428571619e+00,4.912196242465901876e-06,6.776326706418291047e-05
2.572222222222222410e+00,4.604500042931126025e-06,8.132943739227995394e-05
2.573015873015873201e+00,2.266651885134383147e-06,8.570800891837307943e-05
2.573809523809523991e+00,-2.153764674981299950e-06,8.046478296811027608e-05
2.574603174603174782e+00,-8.218516964389804014e-06,6.664614106901055682e-05
2.575396825396825573e+00,-1.500360960807654630e-05,4.654748477320726728e-05
2.576190476190476364e+00,-2.123987832174292344e-05,2.330021551892507421e-05
2.576984126984127155e+00,-2.556698016285123508e-05,3.480143089887345854e-07
2.577777777777777946e+00,-2.683848060125129353e-05,-1.910974634635165373e-05
2.578571428571428736e+00,-2.440034630846296855e-05,-3.261945660841411793e-05
2.579365079365079527e+00,-1.827570971033719795e-05,-3.883362456054025421e-05
2.580158730158730318e+00,-9.214366518670536816e-06,-3.766797911376593204e-05
2.580952380952381109e+00,1.405512650308453051e-06,-3.023275575649523185e-05
2.581746031746031900e+00,1.180932298310683774e-05,-1.855857954954583640e-05
2.582539682539682691e+00,2.015429659331194627e-05,-5.174581127723645039e-06
2.583333333333333481e+00,2.489755120324480309e-05,7.378362532508167658e-06
2.584126984126984272e+00,2.513398678195943639e-05,1.700800588240611121e-05
2.584920634920635063e+00,2.082929925301346902e-05,2.242101975965829318e-05
2.585714285714285854e+00,1.288112657493877874e-05,2.329580018392411563e-05
2.586507936507936645e+00,2.967695181829760007e-06,2.023509538450205656e-05
2.587301587301587436e+00,-6.808346638336355601e-06,1.450027496751696648e-05
2.588095238095238226e+00,-1.441133700248020898e-05,7.595417820533945007e-06
2.588888888888889017e+00,-1.837632374973145890e-05,8.295083537185072140e-07
2.589682539682539808e+00,-1.818262208858886986e-05,-5.001680642815374863e-06
2.590476190476190599e+00,-1.438277953288855412e-05,-9.720727360982443966e-06
2.591269841269841390e+00,-8.442220559183575727e-06,-1.365268544370508503e-05
2.592063492063492181e+00,-2.331979928362899306e-06,-1.735908769105359758e-05
2.592857142857142971e+00,2.010266179049712228e-06,-2.133228459536768684e-05
2.593650793650793762e+00,3.201224175391510141e-06,-2.575304046710096220e-05
2.594444444444444553e+00,7.758888166118284558e-07,-3.037465725203590514e-05
2.595238095238095344e+00,-4.698244865137204707e-06,-3.454977000302921045e-05
2.596031746031746135e+00,-1.178207760042389455e-05,-3.738013149143587445e-05
2.596825396825396925e+00,-1.855461759318266854e-05,-3.794790094925868008e-05
2.597619047619047716e+00,-2.312454057724966505e-05,-3.557199080395633141e-05
2.598412698412698507e+00,-2.412293378895717948e-05,-3.002485238310006937e-05
2.599206349206349298e+00,-2.104166227599225687e-05,-2.165276600378567224e-05
2.600000000000000089e+00,-1.432553646839813772e-05,-1.136823144129226181e-05
2.600793650793650880e+00,-5.196200107879813096e-06,-5.149897317346412685e-07
2.601587301587301670e+00,4.737001819472409393e-06,9.368060447718366444e-06
2.602380952380952461e+00,1.395929720489157156e-05,1.684113450732636891e-05
2.603174603174603252e+00,2.147461810038590502e-05,2.086079955996394977e-05
2.603968253968254043e+00,2.703607354720712251e-05,2.101511584823178598e-05
2.604761904761904834e+00,3.110970670691674464e-05,1.763346315609157908e-05
2.605555555555555625e+00,3.458990627927090508e-05,1.173455226796449695e-05
2.606349206349206415e+00,3.837314529471576617e-05,4.824479800535006049e-06
2.607142857142857206e+00,4.294687553970738336e-05,-1.399065827762904044e-06
2.607936507936507997e+00,4.814241366976404615e-05,-5.365198867258525592e-06
2.608730158730158788e+00,5.313838302761864036e-05,-5.913621464241813878e-06
2.609523809523809579e+00,5.670732693253280137e-05,-2.510013710144553027e-06
2.610317460317460370e+00,5.760730752645541091e-05,4.625966850346171433e-06
2.611111111111111160e+00,5.497088523398245498e-05,1.449733485852098298e-05
2.611904761904761951e+00,4.855753549099633553e-05,2.543167618977468605e-05
2.612698412698412742e+00,3.880157342472478725e-05,3.532358032360792142e-05
2.613492063492063533e+00,2.667054767880968664e-05,4.200827517422956175e-05
2.614285714285714324e+00,1.341085337295348937e-05,4.371429023698049463e-05
2.615079365079365115e+00,2.756897859577180412e-07,3.949825767912642940e-05
2.615873015873015905e+00,-1.169249172934553294e-05,2.954251999760515852e-05
2.616666666666666696e+00,-2.179392366642814966e-05,1.521260956702845472e-05
2.617460317460317487e+00,-2.971838021976976434e-05,-1.172672583776318803e-06
2.618253968253968278e+00,-3.551861369600294558e-05,-1.682455649036010691e-05
2.619047619047619069e+00,-3.952209505375483037e-05,-2.910520200009030989e-05
2.619841269841269860e+00,-4.219695023468208501e-05,-3.612039865523548416e-05
2.620634920634920650e+00,-4.400019933071767496e-05,-3.712396874438201856e-05
2.621428571428571441e+00,-4.524748898366936736e-05,-3.263408718722053014e-05
2.622222222222222232e+00,-4.604131427692080070e-05,-2.424929235551401895e-05
2.623015873015873023e+00,-4.627490967744884445e-05,-1.423017716070211481e-05
2.623809523809523814e+00,-4.570016618894011141e-05,-4.958717236733981056e-06
2.624603174603174605e+00,-4.402673429720973554e-05,1.598466910380872871e-06
2.625396825396825395e+00,-4.101647278707439139e-05,4.303576379507570671e-06
2.626190476190476186e+00,-3.654907968602315939e-05,3.046145649200260865e-06
2.626984126984126977e+00,-3.065119355633391950e-05,-1.311322321520633480e-06
2.627777777777777768e+00,-2.349605390009604282e-05,-7.208521520097106212e-06
2.628571428571428559e+00,-1.539007194112623333e-05,-1.279432729221251374e-05
2.629365079365079350e+00,-6.761794489526377632e-06,-1.635807150654009775e-05
2.630158730158730140e+00,1.843512851729769005e-06,-1.669603749934668347e-05
2.630952380952380931e+00,9.777233087720997432e-06,-1.335605539937680473e-05
2.631746031746031722e+00,1.633176847101245111e-05,-6.727176758368877253e-06
2.632539682539682513e+00,2.083234740024016306e-05,2.043484926548194384e-06
2.633333333333333304e+00,2.277021025244062785e-05,1.130387977047311828e-05
2.634126984126984095e+00,2.194313828381853207e-05,1.927993804515431214e-05
2.634920634920634885e+00,1.855191625553793917e-05,2.450191041281881072e-05
2.635714285714285676e+00,1.320684223013152008e-05,2.615688417106128166e-05
2.636507936507936467e+00,6.826652705413164956e-06,2.425951677654477037e-05
2.637301587301587258e+00,4.506249815217563184e-07,1.958841303456928745e-05
2.638095238095238049e+00,-4.983444956495698536e-06,1.341548861193520654e-05
2.638888888888888840e+00,-8.829489237297053335e-06,7.123172523284502490e-06
2.639682539682539630e+00,-1.083611726870073412e-05,1.831111934260891459e-06
2.640476190476190421e+00,-1.113717474069923091e-05,-1.863712117886517660e-06
2.641269841269841212e+00,-1.014286202634971450e-05,-3.974613569497733093e-06
2.642063492063492003e+00,-8.373400073269034503e-06,-5.031736767125432558e-06
2.642857142857142794e+00,-6.287450225974178216e-06,-5.840120104042207096e-06
2.643650793650793585e+00,-4.151890980029456316e-06,-7.152877843363461773e-06
2.644444444444444375e+00,-1.986385778366461630e-06,-9.345656588096177005e-06
2.645238095238095166e+00,4.017712709382028934e-07,-1.218878826039907985e-05
2.646031746031745957e+00,3.301333212939269581e-06,-1.480032387887745159e-05
2.646825396825396748e+00,6.935385613455378387e-06,-1.581991130460353158e-05
2.647619047619047539e+00,1.130986553564280477e-05,-1.377974454105678093e-05
2.648412698412698330e+00,1.612900563738363401e-05,-7.585007287009498709e-06
2.649206349206349120e+00,2.081391591866393686e-05,3.028891523026319621e-06
2.649999999999999911e+00,2.462495168120091630e-05,1.720819119421450165e-05
2.650793650793650702e+00,2.685129327409116007e-05,3.297846186433170065e-05
2.651587301587301493e+00,2.700716942053105492e-05,4.756967807743989174e-05
2.652380952380952284e+00,2.497264384767667843e-05,5.800550517769682536e-05
2.653174603174603075e+00,2.103702980206655459e-05,6.179964541359356407e-05
2.653968253968253865e+00,1.583529770816613998e-05,5.756286597851300121e-05
2.654761904761904656e+00,1.019973490784067982e-05,4.535575094490105867e-05
2.655555555555555447e+00,4.970628828174376414e-06,2.670326009826491176e-05
2.656349206349206238e+00,8.163115668954872006e-07,4.280788244245774950e-06
2.657142857142857029e+00,-1.894622663745889358e-06,-1.864126389597240964e-05
2.657936507936507819e+00,-3.143132913669001750e-06,-3.885950043393865454e-05
2.658730158730158610e+00,-3.226557071787784234e-06,-5.385528953249867599e-05
2.659523809523809401e+00,-2.657059591320654906e-06,-6.223213996913210628e-05
2.660317460317460192e+00,-2.020760858735306641e-06,-6.387955014826422761e-05
2.661111111111110983e+00,-1.832579612791344327e-06,-5.983654766010320855e-05
2.661904761904761774e+00,-2.418605621826175582e-06,-5.190581738442022475e-05
2.662698412698412564e+00,-3.848364010551715723e-06,-4.213660811133836191e-05
2.663492063492063355e+00,-5.927700887324025204e-06,-3.232671717208116359e-05
2.664285714285714146e+00,-8.251294451372507703e-06,-2.367690819761642085e-05
2.665079365079364937e+00,-1.030259184426932503e-05,-1.667162786986284870e-05
2.665873015873015728e+00,-1.157965035231825714e-05,-1.118162034278940856e-05
2.666666666666666519e+00,-1.171993448218845610e-05,-6.716311222401729746e-06
2.667460317460317309e+00,-1.059667895514463396e-05,-2.719138809937364355e-06
2.668253968253968100e+00,-8.363910113492235650e-06,1.195016638368656687e-06
2.669047619047618891e+00,-5.436291072236491342e-06,5.122902749794893226e-06
2.669841269841269682e+00,-2.403284325686543633e-06,8.887336799830950962e-06
2.670634920634920473e+00,1.064713630187867350e-07,1.214873260272397657e-05
2.671428571428571264e+00,1.578643845925688352e-06,1.455435290981352105e-05
2.672222222222222054e+00,1.743169825502935141e-06,1.586528007912826007e-05
2.673015873015872845e+00,6.427731014733698190e-07,1.602117273242108019e-05
2.673809523809523636e+00,-1.380284851110616087e-06,1.513393922001704106e-05
2.674603174603174427e+00,-3.774377973409599569e-06,1.343093633657950448e-05
2.675396825396825218e+00,-5.918430604468239395e-06,1.118529360967816452e-05
2.676190476190476009e+00,-7.272257950295158748e-06,8.669807287885801064e-06
2.676984126984126799e+00,-7.497840242285137225e-06,6.152945444753594294e-06
2.677777777777777590e+00,-6.522270376973568987e-06,3.929018916740985691e-06
2.678571428571428381e+00,-4.531030518311410249e-06,2.350949154280543684e-06
2.679365079365079172e+00,-1.901071653492931542e-06,1.824128968687939492e-06
2.680158730158729963e+00,9.008723953806794221e-07,2.731742707766342949e-06
2.680952380952380754e+00,3.425025341356565029e-06,5.296280534925512582e-06
2.681746031746031544e+00,5.327313819176280321e-06,9.424907506875816060e-06
2.682539682539682335e+00,6.426525659566542451e-06,1.461142349743029823e-05
2.683333333333333126e+00,6.721916175488488860e-06,1.995371734770705693e-05
2.684126984126983917e+00,6.366942825397207418e-06,2.429778455393476257e-05
2.684920634920634708e+00,5.603235595092177131e-06,2.646930117180183961e-05
2.685714285714285499e+00,4.673902794884120306e-06,2.553262506652669801e-05
2.686507936507936289e+00,3.748297504705033822e-06,2.102589804699474241e-05
2.687301587301587080e+00,2.888849220617477714e-06,1.313543156171051673e-05
2.688095238095238315e+00,2.070861901558948694e-06,2.775120039443223403e-06
2.688888888888889106e+00,1.239307960681215246e-06,-8.467684714601654780e-06
2.689682539682539897e+00,3.697515015155379519e-07,-1.855197849769421616e-05
2.690476190476190688e+00,-4.970492555348734779e-07,-2.536936080495451407e-05
2.691269841269841478e+00,-1.259957731246968644e-06,-2.724224329687221965e-05
2.692063492063492269e+00,-1.794784092771889533e-06,-2.342010758160725729e-05
2.692857142857143060e+00,-2.004806135756453546e-06,-1.442379487041371556e-05
2.693650793650793851e+00,-1.863658155827670599e-06,-2.095853103488592688e-06
2.694444444444444642e+00,-1.436721303194019069e-06,1.072175858371066974e-05
2.695238095238095433e+00,-8.772177472193090550e-07,2.084598298715975315e-05
2.696031746031746223e+00,-4.005335627913880751e-07,2.557711037105832067e-05
2.696825396825397014e+00,-2.419579452034752480e-07,2.343382935578811743e-05
2.697619047619047805e+00,-6.013494706486992873e-07,1.455996333360161215e-05
2.698412698412698596e+00,-1.578736920385694240e-06,6.788308171307378911e-07
2.699206349206349387e+00,-3.111304232441506044e-06,-1.537365501151990061e-05
2.700000000000000178e+00,-4.932609446725086214e-06,-3.037621886406532450e-05
2.700793650793650968e+00,-6.581117591927537865e-06,-4.148526731693453177e-05
2.701587301587301759e+00,-7.477707305829833228e-06,-4.682389233787142278e-05
2.702380952380952550e+00,-7.067982365998627500e-06,-4.576609763627736087e-05
2.703174603174603341e+00,-4.993870916900621873e-06,-3.889325666473831319e-05
2.703968253968254132e+00,-1.236954169293680779e-06,-2.769279012942885308e-05
2.704761904761904923e+00,3.822510598936099249e-06,-1.411857584221550387e-05
2.705555555555555713e+00,9.459577354113616596e-06,-1.372222987688269827e-07
2.706349206349206504e+00,1.475889133595412657e-05,1.263880547501217575e-05
2.707142857142857295e+00,1.882040239435116996e-05,2.316459464832451882e-05
2.707936507936508086e+00,2.095310107363260841e-05,3.099553871727273328e-05
2.708730158730158877e+00,2.080484991978653000e-05,3.615578501196605067e-05
2.709523809523809668e+00,1.840492706611333501e-05,3.890163249851025804e-05
2.710317460317460458e+00,1.412551592785251449e-05,3.946981042829598253e-05
2.711111111111111249e+00,8.586272563718792963e-06,3.790464814654042095e-05
2.711904761904762040e+00,2.529949549431610904e-06,3.402775158657615610e-05
2.712698412698412831e+00,-3.306221539736913680e-06,2.755765771676084983e-05
2.713492063492063622e+00,-8.301697326606347164e-06,1.833025223602855478e-05
2.714285714285714413e+00,-1.202732918758703377e-05,6.537830712784100862e-06
2.715079365079365203e+00,-1.427220943102963718e-05,-7.098731252528817678e-06
2.715873015873015994e+00,-1.502527376688128683e-05,-2.129184151159035690e-05
2.716666666666666785e+00,-1.442847281453289539e-05,-3.431444717609461918e-05
2.717460317460317576e+00,-1.272450369012567040e-05,-4.427426098699287796e-05
2.718253968253968367e+00,-1.021715620578428013e-05,-4.946921043709000515e-05
2.719047619047619158e+00,-7.249727676929086976e-06,-4.873632164969724244e-05
2.719841269841269948e+00,-4.193653300853941958e-06,-4.171553377480171216e-05
2.720634920634920739e+00,-1.431836986572745799e-06,-2.897594122464734439e-05
2.721428571428571530e+00,6.777476564848209708e-07,-1.197998668792619935e-05
2.722222222222222321e+00,1.862941993724085646e-06,7.110929372616157389e-06
2.723015873015873112e+00,2.011563365957749390e-06,2.575666353056874522e-05
2.723809523809523903e+00,1.230496167998023855e-06,4.142565727811175656e-05
2.724603174603174693e+00,-1.468132161580266441e-07,5.197633972092224945e-05
2.725396825396825484e+00,-1.628560494787081025e-06,5.596387166727109742e-05
2.726190476190476275e+00,-2.699433532298065838e-06,5.282795888737497320e-05
2.726984126984127066e+00,-2.978121718626057430e-06,4.295162121662086458e-05
2.727777777777777857e+00,-2.340427414948038440e-06,2.760527255253488707e-05
2.728571428571428648e+00,-9.659291627391049077e-07,8.794759280657953748e-06
2.729365079365079438e+00,7.041846259005276225e-07,-1.097474461627099315e-05
2.730158730158730229e+00,2.082986509810372390e-06,-2.900814876814853741e-05
2.730952380952381020e+00,2.595410478841392831e-06,-4.278092620092900200e-05
2.731746031746031811e+00,1.840013714119220889e-06,-5.030954891450710529e-05
2.732539682539682602e+00,-2.806181746201323300e-07,-5.047303736836899492e-05
2.733333333333333393e+00,-3.491545398337040004e-06,-4.322000730067625436e-05
2.734126984126984183e+00,-7.163523949550347432e-06,-2.960915210884529876e-05
2.734920634920634974e+00,-1.042776261754270052e-05,-1.166384329404333649e-05
2.735714285714285765e+00,-1.237102660699171122e-05,7.941266495853053448e-06
2.736507936507936556e+00,-1.226349726471407314e-05,2.631417767148549767e-05
2.737301587301587347e+00,-9.755199650909266579e-06,4.082845847207719329e-05
2.738095238095238138e+00,-4.986472792022117737e-06,4.956219066909873898e-05
2.738888888888888928e+00,1.412945854508073395e-06,5.159390401371100201e-05
2.739682539682539719e+00,8.430074178681943800e-06,4.708414805266054995e-05
2.740476190476190510e+00,1.485301487588164927e-05,3.713300897114890214e-05
2.741269841269841301e+00,1.949859956467865855e-05,2.347294292975230624e-05
2.742063492063492092e+00,2.144669792030636004e-05,8.097455085207181288e-06
2.742857142857142883e+00,2.024038688392130859e-05,-7.078202038678772639e-06
2.743650793650793673e+00,1.600580389648341851e-05,-2.046712019280112510e-05
2.744444444444444464e+00,9.450961704202499121e-06,-3.095941718875061993e-05
2.745238095238095255e+00,1.728972460215387912e-06,-3.798295162192507615e-05
2.746031746031746046e+00,-5.808289089335650844e-06,-4.149047220972055540e-05
2.746825396825396837e+00,-1.190482475351677505e-05,-4.187939958468345333e-05
2.747619047619047628e+00,-1.566844811078770339e-05,-3.985220597211154266e-05
2.748412698412698418e+00,-1.674646567487386047e-05,-3.624027170031027956e-05
2.749206349206349209e+00,-1.536852972942757213e-05,-3.182854517726491225e-05
2.750000000000000000e+00,-1.224863723585488028e-05,-2.721953783537926509e-05
2.750793650793650791e+00,-8.372593431600213148e-06,-2.276431780062824188e-05
2.751587301587301582e+00,-4.727430707805515148e-06,-1.857345006429461271e-05
2.752380952380952372e+00,-2.047374406129030425e-06,-1.460352225192379230e-05
2.753174603174603163e+00,-6.484576099754854738e-07,-1.079097060642246784e-05
2.753968253968253954e+00,-3.966599875193381996e-07,-7.180342940726473064e-06
2.754761904761904745e+00,-8.090642347709716911e-07,-3.987769834682654994e-06
2.755555555555555536e+00,-1.242227661920823717e-06,-1.565044001226206394e-06
2.756349206349206327e+00,-1.097411934190002783e-06,-2.744466276950486800e-07
2.757142857142857117e+00,2.170426518090122567e-08,-3.221985200520445544e-07
2.757936507936507908e+00,2.233207912642052212e-06,-1.610201198007146163e-06
2.758730158730158699e+00,5.380784343621594138e-06,-3.653884267853753803e-06
2.759523809523809490e+00,9.090061178194388134e-06,-5.593216209183908547e-06
2.760317460317460281e+00,1.284702386412044485e-05,-6.306172867270341377e-06
2.761111111111111072e+00,1.608162065772522387e-05,-4.620132333010988034e-06
2.761904761904761862e+00,1.825417393659161945e-05,4.025802550687410855e-07
2.762698412698412653e+00,1.894440786385159981e-05,9.160886220820028077e-06
2.763492063492063444e+00,1.793373744135694106e-05,2.128245815890035197e-05
2.764285714285714235e+00,1.526248123657256473e-05,3.555922542084464545e-05
2.765079365079365026e+00,1.124370120954979475e-05,5.010847115101152454e-05
2.765873015873015817e+00,6.424012343230669325e-06,6.274061676318738257e-05
2.766666666666666607e+00,1.494175228672194922e-06,7.143438523897360933e-05
2.767460317460317398e+00,-2.834703928867751373e-06,7.477655469330539754e-05
2.768253968253968189e+00,-5.962930818672338221e-06,7.224138681571943101e-05
2.769047619047618980e+00,-7.512135052665304706e-06,6.425120711288123980e-05
2.769841269841269771e+00,-7.390176491036650634e-06,5.203309401043368257e-05
2.770634920634920562e+00,-5.800569745413538255e-06,3.733359464867497637e-05
2.771428571428571352e+00,-3.197594128794578288e-06,2.206909614406414046e-05
2.772222222222222143e+00,-1.960204700651129466e-07,7.985879023180342514e-06
2.773015873015872934e+00,2.549518077698466903e-06,-3.608621691246996153e-06
2.773809523809523725e+00,4.473709977991281095e-06,-1.199951838710355734e-05
2.774603174603174516e+00,5.210343154215431350e-06,-1.708351986148646536e-05
2.775396825396825307e+00,4.654527563520934795e-06,-1.926596815784317076e-05
2.776190476190476097e+00,2.960410390774741924e-06,-1.928271004496324805e-05
2.776984126984126888e+00,4.780875228161257464e-07,-1.801429234913308553e-05
2.777777777777777679e+00,-2.347187899402586705e-06,-1.635233889781078341e-05
2.778571428571428470e+00,-5.082343454410724479e-06,-1.514157455954442507e-05
2.779365079365079261e+00,-7.393308088223736679e-06,-1.517324011839434540e-05
2.780158730158730052e+00,-9.094666782762785703e-06,-1.717274923974216892e-05
2.780952380952380842e+00,-1.015697933883977951e-05,-2.172607034728453820e-05
2.781746031746031633e+00,-1.067657483000870406e-05,-2.912705308970177416e-05
2.782539682539682424e+00,-1.081976749500128122e-05,-3.918373633048858050e-05
2.783333333333333215e+00,-1.075713812674833616e-05,-5.106713399651597462e-05
2.784126984126984006e+00,-1.060418195750893607e-05,-6.329615578569255843e-05
2.784920634920634797e+00,-1.038286732811018226e-05,-7.391712465582527111e-05
2.785714285714285587e+00,-1.001448415040218215e-05,-8.086610708769197998e-05
2.786507936507936378e+00,-9.347190699014849637e-06,-8.242533276464774380e-05
2.787301587301587169e+00,-8.212152118735902297e-06,-7.763580847285898358e-05
2.788095238095237960e+00,-6.492247320008899765e-06,-6.653049365523996505e-05
2.788888888888888751e+00,-4.181273321888094764e-06,-5.010796005699088993e-05
2.789682539682539542e+00,-1.413547845413475447e-06,-3.005547841726720037e-05
2.790476190476190332e+00,1.545973821043917926e-06,-8.319626866892541254e-06
2.791269841269841123e+00,4.347495112490418884e-06,1.332300201756615701e-05
2.792063492063491914e+00,6.624496988952901411e-06,3.354609543502950152e-05
2.792857142857142705e+00,8.067145235691890496e-06,5.151953857375780855e-05
2.793650793650793496e+00,8.485248185315585282e-06,6.673471335633827581e-05
2.794444444444444287e+00,7.847892701818799178e-06,7.871580147761021229e-05
2.795238095238095077e+00,6.290710053124970090e-06,8.677111341892513045e-05
2.796031746031745868e+00,4.087822111909226673e-06,8.992229253252581524e-05
2.796825396825396659e+00,1.593905889438793322e-06,8.707645802455337499e-05
2.797619047619047450e+00,-8.297322744667704718e-07,7.740370880228894762e-05
2.798412698412698241e+00,-2.885623028692921284e-06,6.079026210590916004e-05
2.799206349206349032e+00,-4.387585163090788167e-06,3.819627562605605494e-05
2.799999999999999822e+00,-5.272375808215514014e-06,1.177467644289580001e-05
2.800793650793650613e+00,-5.575235081975975175e-06,-1.531447536671270144e-05
2.801587301587301404e+00,-5.382569640171763796e-06,-3.936869631041556967e-05
2.802380952380952195e+00,-4.783377335384191556e-06,-5.679020581698034450e-05
2.803174603174602986e+00,-3.840162496120323993e-06,-6.477964715720069646e-05
2.803968253968253777e+00,-2.590408569590458055e-06,-6.193110203980274175e-05
2.804761904761904567e+00,-1.075019015197276012e-06,-4.859799597780761510e-05
2.805555555555555358e+00,6.236054267331658198e-07,-2.693734949787178820e-05
2.806349206349206149e+00,2.357313014315362071e-06,-5.993212979634908610e-07
2.807142857142856940e+00,3.919433824677144389e-06,2.589808353534299535e-05
2.807936507936507731e+00,5.085593945315745523e-06,4.799692681648310376e-05
2.808730158730158522e+00,5.673503946525144011e-06,6.196187965071511448e-05
2.809523809523809312e+00,5.598659820186562192e-06,6.558878554005856138e-05
2.810317460317460103e+00,4.905897570865407828e-06,5.859947695142578164e-05
2.811111111111110894e+00,3.766836458711531805e-06,4.263603219602152061e-05
2.811904761904761685e+00,2.443960055556158726e-06,2.086124511709616484e-05
2.812698412698412920e+00,1.230461399635859548e-06,-2.737330146087281995e-06
2.813492063492063711e+00,3.810334707324262187e-07,-2.417363909495233082e-05
2.814285714285714501e+00,5.184932741652335467e-08,-4.022652273166781744e-05
2.815079365079365292e+00,2.662369413412039308e-07,-4.897431516508177885e-05
2.815873015873016083e+00,9.154882741619010170e-07,-5.000677602262888977e-05
2.816666666666666874e+00,1.793847983257623775e-06,-4.430876975864255900e-05
2.817460317460317665e+00,2.656526664757655778e-06,-3.388500703361151838e-05
2.818253968253968456e+00,3.282964297905928558e-06,-2.124031171051176891e-05
2.819047619047619246e+00,3.526781116621799215e-06,-8.842288929942961965e-06
2.819841269841270037e+00,3.339478981246089593e-06,1.323346109965980906e-06
2.820634920634920828e+00,2.765010098912515999e-06,8.032031663049315644e-06
2.821428571428571619e+00,1.912277360483950925e-06,1.090737163037921470e-05
2.822222222222222410e+00,9.181791438794787512e-07,1.033150792492500958e-05
2.823015873015873201e+00,-8.617992241250743062e-08,7.226518592885960750e-06
2.823809523809523991e+00,-9.975853233607854280e-07,2.771923738842981604e-06
2.824603174603174782e+00,-1.748689948475759395e-06,-1.875688013462933285e-06
2.825396825396825573e+00,-2.305078163406300369e-06,-5.806418650140267494e-06
2.826190476190476364e+00,-2.657434439709025289e-06,-8.487134353569795694e-06
2.826984126984127155e+00,-2.814242728968314171e-06,-9.782684282685540084e-06
2.827777777777777946e+00,-2.797768680981632856e-06,-9.880440329334833348e-06
2.828571428571428736e+00,-2.642934949967228374e-06,-9.156984152762592084e-06
2.829365079365079527e+00,-2.396175614949607239e-06,-8.038825822339763422e-06
2.830158730158730318e+00,-2.110397001101416709e-06,-6.899671983654316748e-06
2.830952380952381109e+00,-1.833669798279234618e-06,-6.009236878957816538e-06
2.831746031746031900e+00,-1.593253395618672319e-06,-5.519649851249735117e-06
2.832539682539682691e+00,-1.381237478914713218e-06,-5.462714361781820008e-06
2.833333333333333481e+00,-1.150157567913321043e-06,-5.739031574572129250e-06
2.834126984126984272e+00,-8.237935131596803533e-07,-6.099160346271038605e-06
2.834920634920635063e+00,-3.211579167591487883e-07,-6.136636710071810826e-06
2.835714285714285854e+00,4.146152134794248724e-07,-5.324622662393154642e-06
2.836507936507936645e+00,1.392057984770421813e-06,-3.121541438502859175e-06
2.837301587301587436e+00,2.558473230297270690e-06,8.611049766337239513e-07
2.838095238095238226e+00,3.801423457068359373e-06,6.680092381346738017e-06
2.838888888888889017e+00,4.965032156933518475e-06,1.394564128567666210e-05
2.839682539682539808e+00,5.878664699764598952e-06,2.182347729558213763e-05
2.840476190476190599e+00,6.391760872841577938e-06,2.915456474096560986e-05
2.841269841269841390e+00,6.405463078459462878e-06,3.465043864874277156e-05
2.842063492063492181e+00,5.891747524835710530e-06,3.711560720559373432e-05
2.842857142857142971e+00,4.895136458636277439e-06,3.566925223411007039e-05
2.843650793650793762e+00,3.519055797406460156e-06,2.995459893755496937e-05
2.844444444444444553e+00,1.904357399502777875e-06,2.031233437988733625e-05
2.845238095238095344e+00,2.079910576838176072e-07,7.861386878721841336e-06
2.846031746031746135e+00,-1.413990468783537532e-06,-5.588198593771549186e-06
2.846825396825396925e+00,-2.819059659494145177e-06,-1.783431952601869017e-05
2.847619047619047716e+00,-3.888179788360655880e-06,-2.675666599582689006e-05
2.848412698412698507e+00,-4.534479996202467366e-06,-3.083949461217090290e-05
2.849206349206349298e+00,-4.711132065322605462e-06,-2.957456234380715550e-05
2.850000000000000089e+00,-4.418001958696012476e-06,-2.360285052609965861e-05
2.850793650793650880e+00,-3.705360864546259639e-06,-1.453710287099118329e-05
2.851587301587301670e+00,-2.671647964359534037e-06,-4.512786897392458766e-06
2.852380952380952461e+00,-1.452420770028288166e-06,4.392376923199352496e-06
2.853174603174603252e+00,-2.002625322936571851e-07,1.068235861179558193e-05
2.853968253968254043e+00,9.404094854636424620e-07,1.374144983542217635e-05
2.854761904761904834e+00,1.856765504360352134e-06,1.382385416152800472e-05
2.855555555555555625e+00,2.483059657784099327e-06,1.176852018763813908e-05
2.856349206349206415e+00,2.806009625064496458e-06,8.572494219698731851e-06
2.857142857142857206e+00,2.861988658630552101e-06,4.994074314257271822e-06
2.857936507936507997e+00,2.729228975181578270e-06,1.324904786895621942e-06
2.858730158730158788e+00,2.516412118665926158e-06,-2.608439318629883336e-06
2.859523809523809579e+00,2.346570778311482593e-06,-7.240032177161295689e-06
2.860317460317460370e+00,2.334850352797751067e-06,-1.294879127968470822e-05
2.861111111111111160e+00,2.561089000112996145e-06,-1.975061937507889003e-05
2.861904761904761951e+00,3.042109828276754178e-06,-2.710797329563083426e-05
2.862698412698412742e+00,3.712118959719743224e-06,-3.392521773417705381e-05
2.863492063492063533e+00,4.420424959190685403e-06,-3.873805919241630265e-05
2.864285714285714324e+00,4.951768763180525640e-06,-4.004546120334587288e-05
2.865079365079365115e+00,5.066344050659498592e-06,-3.669287512996395199e-05
2.865873015873015905e+00,4.548659630040679237e-06,-2.820630260238688437e-05
2.866666666666666696e+00,3.252319007331403963e-06,-1.499370250389219631e-05
2.867460317460317487e+00,1.132705718581477915e-06,1.635989173127476438e-06
2.868253968253968278e+00,-1.733487755654153330e-06,1.964372609411736876e-05
2.869047619047619069e+00,-5.140502378252842832e-06,3.658725584461264014e-05
2.869841269841269860e+00,-8.759578787813397459e-06,5.004107647288149826e-05
2.870634920634920650e+00,-1.216465488068544234e-05,5.803434818588597353e-05
2.871428571428571441e+00,-1.488104858432934289e-05,5.942976507429373654e-05
2.872222222222222232e+00,-1.645167584132621727e-05,5.416747406891510362e-05
2.873015873015873023e+00,-1.650688510968935900e-05,4.330823612410973227e-05
2.873809523809523814e+00,-1.482298320883257184e-05,2.884233814569736536e-05
2.874603174603174605e+00,-1.136193085457118726e-05,1.328648812302477400e-05
2.875396825396825395e+00,-6.294113543580430292e-06,-8.473634353293827957e-07
2.876190476190476186e+00,-9.013198386137885367e-09,-1.158443468966492716e-05
2.876984126984126977e+00,6.888385671085509871e-06,-1.788717710531047218e-05
2.877777777777777768e+00,1.360902059222159717e-05,-1.982129195101712234e-05
2.878571428571428559e+00,1.925676815594186994e-05,-1.844612701169866679e-05
2.879365079365079350e+00,2.295708326213882576e-05,-1.545998953545494144e-05
2.880158730158730140e+00,2.401883724543987418e-05,-1.269691372176785278e-05
2.880952380952380931e+00,2.208850385295527480e-05,-1.161267956846871776e-05
2.881746031746031722e+00,1.725054027148599904e-05,-1.289995041902622497e-05
2.882539682539682513e+00,1.004353568856769962e-05,-1.633264634776162048e-05
2.883333333333333304e+00,1.388965983900149446e-06,-2.087038245412048895e-05
2.884126984126984095e+00,-7.547367205413407437e-06,-2.497799562455527475e-05
2.884920634920634885e+00,-1.553220996545419576e-05,-2.705835427507750969e-05
2.885714285714285676e+00,-2.145387396046026849e-05,-2.587703719137864880e-05
2.886507936507936467e+00,-2.450046486450386084e-05,-2.087706674257124435e-05
2.887301587301587258e+00,-2.430094570596954675e-05,-1.232475354004987813e-05
2.888095238095238049e+00,-2.099774228221761759e-05,-1.271392452636893555e-06
2.888888888888888840e+00,-1.522498770042530179e-05,1.065186852945456035e-05
2.889682539682539630e+00,-7.987723912152578702e-06,2.156322611603834512e-05
2.890476190476190421e+00,-4.666502235161938702e-07,2.971583211023126028e-05
2.891269841269841212e+00,6.204515048358604961e-06,3.385377709773655826e-05
2.892063492063492003e+00,1.113552255733309902e-05,3.345532644658341269e-05
2.892857142857142794e+00,1.380561400758950539e-05,2.881055357413358500e-05
2.893650793650793585e+00,1.409600793981468424e-05,2.092710337994484790e-05
2.894444444444444375e+00,1.223425705046721381e-05,1.130091363089314222e-05
2.895238095238095166e+00,8.681747707849322241e-06,1.613064412052167207e-06
2.896031746031745957e+00,4.006770510685863199e-06,-6.583109822542787151e-06
2.896825396825396748e+00,-1.221617051847628411e-06,-1.213026806277030035e-05
2.897619047619047539e+00,-6.501426406111028645e-06,-1.444861204830935391e-05
2.898412698412698330e+00,-1.142794772001236391e-05,-1.360106590865309850e-05
2.899206349206349120e+00,-1.570044769820722372e-05,-1.022949440665145081e-05
2.899999999999999911e+00,-1.912416700422754349e-05,-5.374693875684190322e-06
2.900793650793650702e+00,-2.161781395469793011e-05,-2.224402992167337593e-07
2.901587301587301493e+00,-2.321766831835966302e-05,4.159364954512759939e-06
2.902380952380952284e+00,-2.405477112705429104e-05,7.023102917872105158e-06
2.903174603174603075e+00,-2.428741046872552356e-05,8.033085225103925317e-06
2.903968253968253865e+00,-2.399739976255590748e-05,7.233378874447260801e-06
2.904761904761904656e+00,-2.308769940010155203e-05,4.921351729937286562e-06
2.905555555555555447e+00,-2.123077163680065800e-05,1.488702220821514428e-06
2.906349206349206238e+00,-1.790480832395732923e-05,-2.699989152798310361e-06
2.907142857142857029e+00,-1.252518873342859237e-05,-7.342632451798924748e-06
2.907936507936507819e+00,-4.643538766127642682e-06,-1.214492183879517440e-05
2.908730158730158610e+00,5.840390900114565909e-06,-1.671981209003652407e-05
2.909523809523809401e+00,1.851832104500319184e-05,-2.051287778396116823e-05
2.910317460317460192e+00,3.241776272444997584e-05,-2.281577758737860537e-05
2.911111111111110983e+00,4.607603537373147491e-05,-2.288768103835073377e-05
2.911904761904761774e+00,5.773141394102349386e-05,-2.015231518028088095e-05
2.912698412698412564e+00,6.558593931893997502e-05,-1.440303141924577481e-05
2.913492063492063355e+00,6.808217050517382575e-05,-5.943585559133637199e-06
2.914285714285714146e+00,6.414902708656820287e-05,4.385799159930152738e-06
2.915079365079364937e+00,5.339526833031329068e-05,1.531180892284474389e-05
2.915873015873015728e+00,3.624230235415403900e-05,2.533809692238107438e-05
2.916666666666666519e+00,1.398431700100502400e-05,3.301037610978715150e-05
2.917460317460317309e+00,-1.124610786854198499e-05,3.717406042993786188e-05
2.918253968253968100e+00,-3.663139289603438713e-05,3.717165067632890503e-05
2.919047619047618891e+00,-5.895649758259180446e-05,3.294823192871296002e-05
2.919841269841269682e+00,-7.502547808108694688e-05,2.505360510870877815e-05
2.920634920634920473e+00,-8.217212595954971458e-05,1.454465310878062429e-05
2.921428571428571264e+00,-7.879275373149579687e-05,2.805419409414431897e-06
2.922222222222222054e+00,-6.479188830718853227e-05,-8.683241647457318299e-06
2.923015873015872845e+00,-4.180838182916982783e-05,-1.858173805442032452e-05
2.923809523809523636e+00,-1.310237276916901856e-05,-2.589181785189006949e-05
2.924603174603174427e+00,1.694868617191153785e-05,-3.007926330747629778e-05
2.925396825396825218e+00,4.368043702039504629e-05,-3.109623491682885025e-05
2.926190476190476009e+00,6.310974547212430598e-05,-2.930587617120245287e-05
2.926984126984126799e+00,7.277627609422256691e-05,-2.533984487184272989e-05
2.927777777777777590e+00,7.220858787988933790e-05,-1.993838185005983990e-05
2.928571428571428381e+00,6.287776654480216245e-05,-1.382273723434421808e-05
2.929365079365079172e+00,4.767164646480434104e-05,-7.629854491067644665e-06
2.930158730158729963e+00,3.007958255150957913e-05,-1.907658394668145539e-06
2.930952380952380754e+00,1.335251305391530071e-05,2.858839222216027526e-06
2.931746031746031544e+00,-1.295620011763211405e-07,6.231383790470425186e-06
2.932539682539682335e+00,-9.158759764337144981e-06,7.842588618796765876e-06
2.933333333333333126e+00,-1.366782147393397251e-05,7.465593724162263387e-06
2.934126984126983917e+00,-1.445259783903108591e-05,5.107702015155763040e-06
2.934920634920634708e+00,-1.277220018124864822e-05,1.089728944149671025e-06
2.935714285714285499e+00,-9.946042517863369785e-06,-3.927445231186177992e-06
2.936507936507936289e+00,-7.038852381453761918e-06,-8.993257102586516496e-06
2.937301587301587080e+00,-4.686890466095203015e-06,-1.299788981874925973e-05
2.938095238095238315e+00,-3.078706632640518033e-06,-1.486594975883917049e-05
2.938888888888889106e+00,-2.066618768284778132e-06,-1.378025121578478595e-05
2.939682539682539897e+00,-1.356311287046769993e-06,-9.389244336582831227e-06
2.940476190476190688e+00,-7.074371109752714449e-07,-1.944391990865535034e-06
2.941269841269841478e+00,-8.120914163839583303e-08,7.679657581545668471e-06
2.942063492063492269e+00,3.095319847804708120e-07,1.810502669514028670e-05
2.942857142857143060e+00,6.164820678051487090e-08,2.769856822816178050e-05
2.943650793650793851e+00,-1.265970458861189429e-06,3.490222578127504302e-05
2.944444444444444642e+00,-3.959181348433997480e-06,3.857540090496324830e-05
2.945238095238095433e+00,-7.981638449058300411e-06,3.826438018337998125e-05
2.946031746031746223e+00,-1.289882676774588140e-05,3.431552618694553637e-05
2.946825396825397014e+00,-1.793210642140352661e-05,2.777929243683057280e-05
2.947619047619047805e+00,-2.213682529788519362e-05,2.011462517273664244e-05
2.948412698412698596e+00,-2.465005603470836018e-05,1.277665758506309017e-05
2.949206349206349387e+00,-2.492485182558608502e-05,6.818022498578980759e-06
2.950000000000000178e+00,-2.287437214472930010e-05,2.631227177497042018e-06
2.950793650793650968e+00,-1.888515360764466661e-05,-9.054075810871645266e-08
2.951587301587301759e+00,-1.370409271858421372e-05,-2.170792818892755392e-06
2.952380952380952550e+00,-8.240689182664685044e-06,-4.610417802447477270e-06
2.953174603174603341e+00,-3.346292760923001680e-06,-8.197146188934240164e-06
2.953968253968254132e+00,3.674479766849507987e-07,-1.317618358425989756e-05
2.954761904761904923e+00,2.626956341181148929e-06,-1.907740069253393235e-05
2.955555555555555713e+00,3.497758412192330807e-06,-2.476172818178202579e-05
2.956349206349206504e+00,3.303881650834392640e-06,-2.869920010904179164e-05
2.957142857142857295e+00,2.500956270099594814e-06,-2.942441766003853066e-05
2.957936507936508086e+00,1.543359643972673079e-06,-2.604918858932267676e-05
2.958730158730158877e+00,7.784073658982003718e-07,-1.867335890326603644e-05
2.959523809523809668e+00,3.874477285274851710e-07,-8.543252761476738164e-06
2.960317460317460458e+00,3.806157990609948265e-07,2.132064987596063047e-06
2.961111111111111249e+00,6.399049337290759928e-07,1.069417461796691243e-05
2.961904761904762040e+00,9.925991241564603589e-07,1.475089446953972414e-05
2.962698412698412831e+00,1.286965463693620347e-06,1.288193642947361527e-05
2.963492063492063622e+00,1.442295890352527553e-06,5.107933373947683840e-06
2.964285714285714413e+00,1.459576521429610906e-06,-7.034246995595402155e-06
2.965079365079365203e+00,1.399791213463063723e-06,-2.083877987560373143e-05
2.965873015873015994e+00,1.350302002005717761e-06,-3.309655239761001116e-05
2.966666666666666785e+00,1.397585513298336689e-06,-4.088643385497513373e-05
2.967460317460317576e+00,1.611276134340597419e-06,-4.227533223939555898e-05
2.968253968253968367e+00,2.032849424457734034e-06,-3.674524379933009075e-05
2.969047619047619158e+00,2.661824831885830494e-06,-2.524583209358306871e-05
2.969841269841269948e+00,3.441121398725630978e-06,-9.879422889650514670e-06
2.970634920634920739e+00,4.251385253006327594e-06,6.667664792829030000e-06
2.971428571428571530e+00,4.924283053650718507e-06,2.176759889749062127e-05
2.972222222222222321e+00,5.277233894090204328e-06,3.338942438790969017e-05
2.973015873015873112e+00,5.162122045280901871e-06,4.041664567045867524e-05
2.973809523809523903e+00,4.513410073580504151e-06,4.271122597728092607e-05
2.974603174603174693e+00,3.379487389472110641e-06,4.096201246412613809e-05
2.975396825396825484e+00,1.925239056783866329e-06,3.639505415651626662e-05
2.976190476190476275e+00,4.021455703956982789e-07,3.042983509880284288e-05
2.976984126984127066e+00,-9.077965102287436382e-07,2.434955820195603939e-05
2.977777777777777857e+00,-1.759592670153319680e-06,1.903380035816248507e-05
2.978571428571428648e+00,-2.005768839890265579e-06,1.479346130363299686e-05
2.979365079365079438e+00,-1.633957904279308395e-06,1.134818503366650340e-05
2.980158730158730229e+00,-7.728179560844475483e-07,7.974192085728758995e-06
2.980952380952381020e+00,3.337995645837227942e-07,3.808002293225268795e-06
2.981746031746031811e+00,1.377301546870620725e-06,-1.772228424644091406e-06
2.982539682539682602e+00,2.048163970371487150e-06,-8.816419187272246790e-06
2.983333333333333393e+00,2.100923744372632476e-06,-1.665328245945739215e-05
2.984126984126984183e+00,1.409246443724304237e-06,-2.399423011030252790e-05
2.984920634920634974e+00,1.520314862057034230e-09,-2.926967892366533780e-05
2.985714285714285765e+00,-1.931001129001555138e-06,-3.109093912955805737e-05
2.986507936507936556e+00,-4.058990973538456926e-06,-2.868698512984153878e-05
2.987301587301587347e+00,-5.973285197311190199e-06,-2.217663096644650948e-05
2.988095238095238138e+00,-7.268827159498558217e-06,-1.259353325162869011e-05
2.988888888888888928e+00,-7.636693974767238668e-06,-1.660705944956099031e-06
2.989682539682539719e+00,-6.939332055706400614e-06,8.613970615115565629e-06
2.990476190476190510e+00,-5.244316418610792886e-06,1.640189816774233994e-05
2.991269841269841301e+00,-2.802148907731054537e-06,2.045030825104708578e-05
2.992063492063492092e+00,2.756729102620520231e-08,2.031547652644577259e-05
2.992857142857142883e+00,2.876282083312136945e-06,1.639301447083937638e-05
2.993650793650793673e+00,5.455211971433755619e-06,9.763602585886721052e-06
2.994444444444444464e+00,7.599835787972796979e-06,1.912839402777786438e-06
2.995238095238095255e+00,9.259202698424628258e-06,-5.600491573845816422e-06
2.996031746031746046e+00,1.044570711550582041e-05,-1.145685813697988172e-05
2.996825396825396837e+00,1.117747931052292070e-05,-1.481098782058294800e-05
2.997619047619047628e+00,1.144434720307187506e-05,-1.540925196758306353e-05
2.998412698412698418e+00,1.121220450493955205e-05,-1.357430584827773515e-05
2.999206349206349209e+00,1.045901830263701520e-05,-1.007250945963534779e-05
3.000000000000000000e+00,9.219453491681353671e-06,-5.905317918118593096e-06
3.000793650793650791e+00,7.611286302097869518e-06,-2.076559603068937732e-06
3.001587301587301582e+00,5.825984252850769891e-06,6.148778009762661117e-07
3.002380952380952372e+00,4.082876220231126534e-06,1.715343907712869960e-06
3.003174603174603163e+00,2.563012602053860749e-06,1.162102061532898942e-06
3.003968253968253954e+00,1.347744473460295805e-06,-7.669300402316466088e-07
3.004761904761904745e+00,3.857419273981179399e-07,-3.567455671640395835e-06
3.005555555555555536e+00,-4.968593395816172391e-07,-6.634771280039950722e-06
3.006349206349206327e+00,-1.541455397922688519e-06,-9.356599788294209263e-06
3.007142857142857117e+00,-2.969383104395451745e-06,-1.115868454222127341e-05
3.007936507936507908e+00,-4.886321393025083306e-06,-1.152437079427336620e-05
3.008730158730158699e+00,-7.210581260816655212e-06,-1.002879265234488857e-05
3.009523809523809490e+00,-9.655625411754738008e-06,-6.417720771678408641e-06
3.010317460317460281e+00,-1.178363625595683303e-05,-7.237953681222437836e-07
3.011111111111111072e+00,-1.312281073099230812e-05,6.625733912782649260e-06
3.011904761904761862e+00,-1.331483501749855454e-05,1.476639995104442277e-05
3.012698412698412653e+00,-1.224289916506301963e-05,2.245399625239323423e-05
3.013492063492063444e+00,-1.009265507158416318e-05,2.822443801691413084e-05
3.014285714285714235e+00,-7.318250426637043572e-06,3.063655068614040835e-05
3.015079365079365026e+00,-4.516297669981087111e-06,2.856939149870390881e-05
3.015873015873015817e+00,-2.242934127909397412e-06,2.153451639526734446e-05
3.016666666666666607e+00,-8.323133557812884870e-07,9.938925137708543757e-06
3.017460317460317398e+00,-2.794495933947980170e-07,-4.791221658410004151e-06
3.018253968253968189e+00,-2.329127721710971706e-07,-2.031235152990926821e-05
3.019047619047618980e+00,-1.086921827545141092e-07,-3.372693594794694792e-05
3.019841269841269771e+00,7.035884566367719205e-07,-4.216323822582893169e-05
3.020634920634920562e+00,2.605117544823417624e-06,-4.344532403735212135e-05
3.021428571428571352e+00,5.602777677672605336e-06,-3.667742534658684472e-05
3.022222222222222143e+00,9.244712162607890608e-06,-2.256685387343963694e-05
3.023015873015872934e+00,1.271081923995629632e-05,-3.366776320898310384e-06
3.023809523809523725e+00,1.504147051921034729e-05,1.757554233867361117e-05
3.024603174603174516e+00,1.543934554658014173e-05,3.655790729663588166e-05
3.025396825396825307e+00,1.354865585989281640e-05,5.034817358534238212e-05
3.026190476190476097e+00,9.614164078679984207e-06,5.686568676099687845e-05
3.026984126984126888e+00,4.455456123329623850e-06,5.554130305990758208e-05
3.027777777777777679e+00,-7.460268948960149302e-07,4.728607250303376971e-05
3.028571428571428470e+00,-4.782281529440442898e-06,3.411847090624360633e-05
3.029365079365079261e+00,-6.768705877537408654e-06,1.858901993656329949e-05
3.030158730158730052e+00,-6.398791366820725650e-06,3.177093153568457448e-06
3.030952380952380842e+00,-4.026837830174102899e-06,-1.018195500326475161e-05
3.031746031746031633e+00,-5.558295774384843621e-07,-2.033841200889210897e-05
3.032539682539682424e+00,2.833670862947923510e-06,-2.691840341597317548e-05
3.033333333333333215e+00,5.030069924930054119e-06,-3.012247644417591488e-05
3.034126984126984006e+00,5.307095162755739315e-06,-3.044360187190137425e-05
3.034920634920634797e+00,3.515605496146304493e-06,-2.842140877707193965e-05
3.035714285714285587e+00,9.857787790307280736e-08,-2.451377191771430237e-05
3.036507936507936378e+00,-4.063787478262327432e-06,-1.910698232115649178e-05
3.037301587301587169e+00,-7.917455058246500383e-06,-1.262265285253449805e-05
3.038095238095237960e+00,-1.051700146676863103e-05,-5.636576042692117054e-06
3.038888888888888751e+00,-1.124609845006154275e-05,1.077774531628981382e-06
3.039682539682539542e+00,-9.932073271729223665e-06,6.628273638192752520e-06
3.040476190476190332e+00,-6.853906090637646825e-06,1.019130898832212763e-05
3.041269841269841123e+00,-2.669488427949287263e-06,1.124001381671379731e-05
3.042063492063491914e+00,1.709652177618432064e-06,9.725076977910205605e-06
3.042857142857142705e+00,5.278089468789967317e-06,6.136693445373781966e-06
3.043650793650793496e+00,7.118797728759900941e-06,1.421335909357273180e-06
3.044444444444444287e+00,6.591019771366943054e-06,-3.223513677592832948e-06
3.045238095238095077e+00,3.494171809001553516e-06,-6.620669309353826348e-06
3.046031746031745868e+00,-1.832420350785199058e-06,-7.883857563737243425e-06
3.046825396825396659e+00,-8.513648096327384250e-06,-6.626590699904401260e-06
3.047619047619047450e+00,-1.526915510456062998e-05,-3.063551671184268530e-06
3.048412698412698241e+00,-2.066022971801730870e-05,2.019357856329775870e-06
3.049206349206349032e+00,-2.340373363034730752e-05,7.422237390882239194e-06
3.049999999999999822e+00,-2.267278174063661921e-05,1.178125787004259478e-05
3.050793650793650613e+00,-1.829762752864324684e-05,1.385513506907429471e-05
3.051587301587301404e+00,-1.080718433832198961e-05,1.278878960510089152e-05
3.052380952380952195e+00,-1.303854529712095341e-06,8.309017195885494379e-06
3.053174603174602986e+00,8.781293333938279948e-06,8.219768282340821480e-07
3.053968253968253777e+00,1.797484100036451037e-05,-8.612356019012659469e-06
3.054761904761904567e+00,2.501463191106668394e-05,-1.844862498226357384e-05
3.055555555555555358e+00,2.902668248382634961e-05,-2.696281043904633426e-05
3.056349206349206149e+00,2.961620023929466074e-05,-3.264348429297032905e-05
3.057142857142856940e+00,2.688490737188161268e-05,-3.456339848138252179e-05
3.057936507936507731e+00,2.139045002587781655e-05,-3.261177960525580275e-05
3.058730158730158522e+00,1.405640860698376597e-05,-2.750498962427160845e-05
3.059523809523809312e+00,6.034977057171441928e-06,-2.056802575411404482e-05
3.060317460317460103e+00,-1.471559246126518553e-06,-1.335702446084875960e-05
3.061111111111110894e+00,-7.409451209955040973e-06,-7.240624247020743990e-06
3.061904761904761685e+00,-1.105507065744541483e-05,-3.059942334971483010e-06
3.062698412698412920e+00,-1.213619669629683235e-05,-9.514380896592914872e-07
3.063492063492063711e+00,-1.085874257835204127e-05,-3.672050393059118988e-07
3.064285714285714501e+00,-7.828551084391119905e-06,-2.785814583253382532e-07
3.065079365079365292e+00,-3.890374140341023780e-06,4.976732338114908199e-07
3.065873015873016083e+00,6.686509826561830411e-08,2.949685710009664587e-06
3.066666666666666874e+00,3.282672274632361701e-06,7.603922275769896799e-06
3.067460317460317665e+00,5.236328585494497822e-06,1.441043354674455176e-05
3.068253968253968456e+00,5.687124352939302335e-06,2.278267596306511031e-05
3.069047619047619246e+00,4.658869928906768838e-06,3.174108032054583463e-05
3.069841269841270037e+00,2.393862970799518843e-06,4.009699014286447844e-05
3.070634920634920828e+00,-7.049270776235872286e-07,4.663897131132234430e-05
3.071428571428571619e+00,-4.137913562381603249e-06,5.031732306903751161e-05
3.072222222222222410e+00,-7.381170862088232162e-06,5.043184809287359004e-05
3.073015873015873201e+00,-9.965159151112255214e-06,4.680076789661086710e-05
3.073809523809523991e+00,-1.154823788055497769e-05,3.984762087502631127e-05
3.074603174603174782e+00,-1.196708057159988746e-05,3.053329235887306648e-05
3.075396825396825573e+00,-1.124908858937933398e-05,2.011060388770343250e-05
3.076190476190476364e+00,-9.582903063178441859e-06,9.766028993823185371e-06
3.076984126984127155e+00,-7.257183827857631491e-06,2.781455672146120486e-07
3.077777777777777946e+00,-4.588844823596214289e-06,-8.175310347168079973e-06
3.078571428571428736e+00,-1.864036212399551296e-06,-1.598515600586989123e-05
3.079365079365079527e+00,6.936676398129588785e-07,-2.385756048795540361e-05
3.080158730158730318e+00,2.927937730907193273e-06,-3.242031471657028004e-05
3.080952380952381109e+00,4.738275628669683853e-06,-4.181928702608870185e-05
3.081746031746031900e+00,6.065747252731344440e-06,-5.144772144841740881e-05
3.082539682539682691e+00,6.884264836546576191e-06,-5.991955709148824930e-05
3.083333333333333481e+00,7.198870768816979015e-06,-6.532727939273334783e-05
3.084126984126984272e+00,7.046823469379669313e-06,-6.573220851172944851e-05
3.084920634920635063e+00,6.494695195385164816e-06,-5.975165326964214819e-05
3.085714285714285854e+00,5.626855520198661284e-06,-4.706701049487265940e-05
3.086507936507936645e+00,4.527435787978962946e-06,-2.869776361233809537e-05
3.087301587301587436e+00,3.264354372557302054e-06,-6.958557872111795887e-06
3.088095238095238226e+00,1.884266260516168865e-06,1.489363456638246358e-05
3.088888888888889017e+00,4.210234400185226837e-07,3.324504901060411902e-05
3.089682539682539808e+00,-1.087223464410245515e-06,4.483126457207430292e-05
3.090476190476190599e+00,-2.580889034646333110e-06,4.743959314597393775e-05
3.091269841269841390e+00,-3.969663853385870451e-06,4.047472025864918996e-05
3.092063492063492181e+00,-5.135684818947432187e-06,2.525169102333538792e-05
3.092857142857142971e+00,-5.949864645039272640e-06,4.906459638144827248e-06
3.093650793650793762e+00,-6.298255471970543322e-06,-1.611412451410523897e-05
3.094444444444444553e+00,-6.111778265570867925e-06,-3.291612367262196289e-05
3.095238095238095344e+00,-5.390274690251388544e-06,-4.120486638585485733e-05
3.096031746031746135e+00,-4.212273540927018734e-06,-3.827231049246953307e-05
3.096825396825396925e+00,-2.726096997703831067e-06,-2.367218020152579293e-05
3.097619047619047716e+00,-1.124715196387473176e-06,6.095505031947513773e-07
3.098412698412698507e+00,3.876576063022650469e-07,3.055368162639727651e-05
3.099206349206349298e+00,1.628676442017275297e-06,6.098124519345609229e-05
3.100000000000000089e+00,2.466397460846464066e-06,8.666911209509047280e-05
3.100793650793650880e+00,2.842972519112773204e-06,1.034132609877104004e-04
3.101587301587301670e+00,2.792280514140475939e-06,1.087808593648797659e-04
3.102380952380952461e+00,2.445015120813546445e-06,1.024054627781930923e-04
3.103174603174603252e+00,2.011034080298144010e-06,8.582041570463282783e-05
3.103968253968254043e+00,1.732685379331305455e-06,6.194316638053967575e-05
3.104761904761904834e+00,1.815309937761302576e-06,3.438498860424220571e-05
3.105555555555555625e+00,2.355732555229878590e-06,6.759251827245608720e-06
3.106349206349206415e+00,3.296502389190807084e-06,-1.788410052869958888e-05
3.107142857142857206e+00,4.427386979953233563e-06,-3.742776187588729502e-05
3.107936507936507997e+00,5.438547886805385144e-06,-5.083665910887172833e-05
3.108730158730158788e+00,6.009902075896296230e-06,-5.809779814957867218e-05
3.109523809523809579e+00,5.907310911524432453e-06,-5.998951614699004134e-05
3.110317460317460370e+00,5.054029626811941133e-06,-5.775082254197690064e-05
3.111111111111111160e+00,3.555294370978945820e-06,-5.274502398186389600e-05
3.111904761904761951e+00,1.670562662600003643e-06,-4.620623208189541343e-05
3.112698412698412742e+00,-2.545649669325851138e-07,-3.911460912395410132e-05
3.113492063492063533e+00,-1.872845740597001947e-06,-3.218717944541338489e-05
3.114285714285714324e+00,-2.910647078128139166e-06,-2.593089873721564120e-05
3.115079365079365115e+00,-3.216116229867644125e-06,-2.070291425606293165e-05
3.115873015873015905e+00,-2.774792267380189996e-06,-1.674987729958015177e-05
3.116666666666666696e+00,-1.697927454830554067e-06,-1.422700981346635033e-05
3.117460317460317487e+00,-1.936999865302613354e-07,-1.320678325684916043e-05
3.118253968253968278e+00,1.470055998220441765e-06,-1.367556614270056082e-05
3.119047619047619069e+00,3.007598065689390673e-06,-1.550399319225765810e-05
3.119841269841269860e+00,4.160076165358244145e-06,-1.838563131875463615e-05
3.120634920634920650e+00,4.739871915826867644e-06,-2.176977699138244935e-05
3.121428571428571441e+00,4.666030904853655226e-06,-2.484169608724646583e-05
3.122222222222222232e+00,3.979325807176556688e-06,-2.659939355348316160e-05
3.123015873015873023e+00,2.828699437280588227e-06,-2.603893149977669011e-05
3.123809523809523814e+00,1.430549693302448843e-06,-2.241292510896651476e-05
3.124603174603174605e+00,1.342666273243176831e-08,-1.549083427862897112e-05
3.125396825396825395e+00,-1.233708025165556120e-06,-5.734419127164377890e-06
3.126190476190476186e+00,-2.194225422267660921e-06,5.688731952366734058e-06
3.126984126984126977e+00,-2.830213281948982494e-06,1.709310348364100225e-05
3.127777777777777768e+00,-3.164414559483415803e-06,2.664201723808815760e-05
3.128571428571428559e+00,-3.248152437515172881e-06,3.280183702271860556e-05
3.129365079365079350e+00,-3.131242617463049714e-06,3.474720213577345605e-05
3.130158730158730140e+00,-2.848467293495137096e-06,3.258713424487231711e-05
3.130952380952380931e+00,-2.427466938365253075e-06,2.733981487965233547e-05
3.131746031746031722e+00,-1.910141983408881938e-06,2.066371610767505913e-05
3.132539682539682513e+00,-1.371759802058089327e-06,1.442026528085251587e-05
3.133333333333333304e+00,-9.231778285774095963e-07,1.018329508095485296e-05
3.134126984126984095e+00,-6.907091455168858065e-07,8.824464513486900247e-06
3.134920634920634885e+00,-7.803877284661303098e-07,1.029207802890852036e-05
3.135714285714285676e+00,-1.242381600448991961e-06,1.365717328669833139e-05
3.136507936507936467e+00,-2.051534130760465440e-06,1.742485834910902185e-05
3.137301587301587258e+00,-3.111038943232019127e-06,2.001941298651460090e-05
3.138095238095238049e+00,-4.274591036785300130e-06,2.028451097347419978e-05
3.138888888888888840e+00,-5.376045472427290489e-06,1.782888775522608774e-05
3.139682539682539630e+00,-6.256943728333580620e-06,1.310285771583554673e-05
3.140476190476190421e+00,-6.787578083958415493e-06,7.191033391125393861e-06
3.141269841269841212e+00,-6.881827248026697279e-06,1.409500254205090271e-06
3.142063492063492003e+00,-6.507268364802990996e-06,-3.141183154312716703e-06
3.142857142857142794e+00,-5.690442436945540300e-06,-5.915025556885070729e-06
3.143650793650793585e+00,-4.515191679261398156e-06,-7.051757873613079849e-06
3.144444444444444375e+00,-3.112061655226329484e-06,-7.274118220801463393e-06
3.145238095238095166e+00,-1.639015252047411138e-06,-7.593420360825883553e-06
3.146031746031745957e+00,-2.566357595215427184e-07,-8.917680893961120041e-06
3.146825396825396748e+00,8.969060665696923630e-07,-1.168848108623877370e-05
3.147619047619047539e+00,1.725566496832245506e-06,-1.567203792183531749e-05
3.148412698412698330e+00,2.186107167602253951e-06,-1.998412179636047657e-05
3.149206349206349120e+00,2.289043473584475670e-06,-2.334566814819085179e-05
3.149999999999999911e+00,2.091685572647358048e-06,-2.448019071066940021e-05
3.150793650793650702e+00,1.686080630857132415e-06,-2.251535109989030806e-05
3.151587301587301493e+00,1.184229532833214458e-06,-1.725847245500224776e-05
3.152380952380952284e+00,7.018058623879443524e-07,-9.268422786025107250e-06
3.153174603174603075e+00,3.409368440604393684e-07,2.839304452771989981e-07
3.153968253968253865e+00,1.736290981158824293e-07,9.912951489546839703e-06
3.154761904761904656e+00,2.297257361606784943e-07,1.817921731913598710e-05
3.155555555555555447e+00,4.943951617092057604e-07,2.400640606048119242e-05
3.156349206349206238e+00,9.180044825978077903e-07,2.686306349427522669e-05
3.157142857142857029e+00,1.436385710745156445e-06,2.676667441568793214e-05
3.157936507936507819e+00,1.994524661931665213e-06,2.413299528529414125e-05
3.158730158730158610e+00,2.564304523079207906e-06,1.954709096598378700e-05
3.159523809523809401e+00,3.148673854802099803e-06,1.355173076902646926e-05
3.160317460317460192e+00,3.770101118591866121e-06,6.533241339573095407e-06
3.161111111111110983e+00,4.448092455749896136e-06,-1.254859242922453189e-06
3.161904761904761774e+00,5.175600472439071454e-06,-9.545287337867479501e-06
3.162698412698412564e+00,5.904744492512990696e-06,-1.785921506613693331e-05
3.163492063492063355e+00,6.548042265133178282e-06,-2.536288248748523000e-05
3.164285714285714146e+00,6.994537188441867780e-06,-3.087334076445978870e-05
3.165079365079364937e+00,7.134308197461762143e-06,-3.305298458200146741e-05
3.165873015873015728e+00,6.882680172077389849e-06,-3.075739077147525424e-05
3.166666666666666519e+00,6.197433961042701475e-06,-2.343764657895273847e-05
3.167460317460317309e+00,5.086275045819404334e-06,-1.146847661798735895e-05
3.168253968253968100e+00,3.604946818514784904e-06,3.717564508969571290e-06
3.169047619047618891e+00,1.847690536229308636e-06,1.976657382402194631e-05
3.169841269841269682e+00,-6.754455451941599255e-08,3.381823707432805127e-05
3.170634920634920473e+00,-2.015420635975712715e-06,4.312360943637572757e-05
3.171428571428571264e+00,-3.876223978264568830e-06,4.571230651685595617e-05
3.172222222222222054e+00,-5.541816226614273611e-06,4.091421801143417698e-05
3.173015873015872845e+00,-6.914319817059328109e-06,2.956640062678319027e-05
3.173809523809523636e+00,-7.901168374897408214e-06,1.383284237685397472e-05
3.174603174603174427e+00,-8.411987462493919032e-06,-3.305130664918691276e-06
3.175396825396825218e+00,-8.362049773916659660e-06,-1.872820087839066061e-05
3.176190476190476009e+00,-7.684491288293351675e-06,-2.983603778061528952e-05
3.176984126984126799e+00,-6.350075966298243523e-06,-3.502510505227294238e-05
3.177777777777777590e+00,-4.390071740582191250e-06,-3.390340098815100594e-05
3.178571428571428381e+00,-1.915684006322451399e-06,-2.723543341473249168e-05
3.179365079365079172e+00,8.730503488309002958e-07,-1.667044798300056389e-05
3.180158730158729963e+00,3.695026459902437094e-06,-4.340902956293446460e-06
3.180952380952380754e+00,6.216196705419551614e-06,7.572597191114890498e-06
3.181746031746031544e+00,8.097808284613848778e-06,1.722432995388204009e-05
3.182539682539682335e+00,9.059069529938299173e-06,2.337299759671154309e-05
3.183333333333333126e+00,8.942401526007579205e-06,2.550626974451168286e-05
3.184126984126983917e+00,7.764352328603306430e-06,2.381749696410792960e-05
3.184920634920634708e+00,5.734067362829878683e-06,1.905625955853814378e-05
3.185714285714285499e+00,3.226837833514826714e-06,1.229531768418671150e-05
3.186507936507936289e+00,7.131789590356254845e-07,4.672518952737103189e-06
3.187301587301587080e+00,-1.340634579473041532e-06,-2.829697600642430831e-06
3.188095238095238315e+00,-2.575066987591886631e-06,-9.520188517683490881e-06
3.188888888888889106e+00,-2.818602985124975187e-06,-1.503647083777272607e-05
3.189682539682539897e+00,-2.132041342351951424e-06,-1.930418866975916773e-05
3.190476190476190688e+00,-8.079069733416699207e-07,-2.245653249208557465e-05
3.191269841269841478e+00,6.786878643918249264e-07,-2.474526843339005635e-05
3.192063492063492269e+00,1.766772660625888843e-06,-2.645546805996503700e-05
3.192857142857143060e+00,1.942992323696741422e-06,-2.782030226334689441e-05
3.193650793650793851e+00,8.863892166268864900e-07,-2.893353588172127658e-05
3.194444444444444642e+00,-1.413990437338552579e-06,-2.967552131405352646e-05
3.195238095238095433e+00,-4.609948666844830491e-06,-2.968679862008880862e-05
3.196031746031746223e+00,-8.040957585637767053e-06,-2.842108601807360587e-05
3.196825396825397014e+00,-1.087544705245729370e-05,-2.528229500098144335e-05
3.197619047619047805e+00,-1.231110911270438220e-05,-1.981326820587343270e-05
3.198412698412698596e+00,-1.177500852628240220e-05,-1.187611913396984123e-05
3.199206349206349387e+00,-9.063345829349818064e-06,-1.758711162768834055e-06
3.200000000000000178e+00,-4.384690994443819717e-06,9.834907847222999891e-06
3.200793650793650968e+00,1.692473986369280075e-06,2.190751682986189229e-05
3.201587301587301759e+00,8.356192390408291332e-06,3.335834583053895778e-05
3.202380952380952550e+00,1.468908093233055246e-05,4.317186991439747856e-05
3.203174603174603341e+00,1.979581131101182406e-05,5.054934566173720938e-05
3.203968253968254132e+00,2.290762620032309397e-05,5.496084226235171017e-05
3.204761904761904923e+00,2.346717023762563960e-05,5.613564021456391600e-05
3.205555555555555713e+00,2.120134194625170187e-05,5.403425155663561390e-05
3.206349206349206504e+00,1.618347299961220929e-05,4.883971290359079282e-05
3.207142857142857295e+00,8.872969766741431889e-06,4.097205536923582123e-05
3.207936507936508086e+00,1.075092609756237754e-07,3.109448081953224434e-05
3.208730158730158877e+00,-8.979103893647601337e-06,2.007279326785650335e-05
3.209523809523809668e+00,-1.712240095038417774e-05,8.875962774599989094e-06
3.210317460317460458e+00,-2.315147781879925602e-05,-1.559259592840546372e-06
3.211111111111111249e+00,-2.621647840089236112e-05,-1.046075408325937700e-05
3.211904761904762040e+00,-2.595457318418210340e-05,-1.731980923407419162e-05
3.212698412698412831e+00,-2.254836375184849861e-05,-2.194325300594540749e-05
3.213492063492063622e+00,-1.666698916151301970e-05,-2.445777332797038231e-05
3.214285714285714413e+00,-9.315496206098814868e-06,-2.526818386140466360e-05
3.215079365079365203e+00,-1.638381290908102704e-06,-2.497224163845516333e-05
3.215873015873015994e+00,5.274076862469952687e-06,-2.424022783420905067e-05
3.216666666666666785e+00,1.053891128538583047e-05,-2.367706792628518220e-05
3.217460317460317576e+00,1.357403187727815152e-05,-2.369201864860733640e-05
3.218253968253968367e+00,1.413292636451012322e-05,-2.440194842211528011e-05
3.219047619047619158e+00,1.229310862727703837e-05,-2.559073160368900457e-05
3.219841269841269948e+00,8.411331808916864481e-06,-2.674194563676422328e-05
3.220634920634920739e+00,3.053279697823371499e-06,-2.715225329731044048e-05
3.221428571428571530e+00,-3.095024712953858072e-06,-2.611302050057089506e-05
3.222222222222222321e+00,-9.319448702301417453e-06,-2.312001159291267742e-05
3.223015873015873112e+00,-1.495267776407609090e-05,-1.804961206159142506e-05
3.223809523809523903e+00,-1.941668259189575514e-05,-1.124109368087739800e-05
3.224603174603174693e+00,-2.223519595361842318e-05,-3.451965213935970625e-06
3.225396825396825484e+00,-2.303570772970258665e-05,4.304491042289195201e-06
3.226190476190476275e+00,-2.156410150741890734e-05,1.099302842703274579e-05
3.226984126984127066e+00,-1.772318722453379870e-05,1.579646170858604249e-05
3.227777777777777857e+00,-1.162740154701044100e-05,1.829951170800754579e-05
3.228571428571428648e+00,-3.650866615587185874e-06,1.857237188253259538e-05
3.229365079365079438e+00,5.557781616516376464e-06,1.713539217375885487e-05
3.230158730158730229e+00,1.511176127407737118e-05,1.481223164720970626e-05
3.230952380952381020e+00,2.397541722788046952e-05,1.250245355559330541e-05
3.231746031746031811e+00,3.109169045596385126e-05,1.092609396211064474e-05
3.232539682539682602e+00,3.552323652393705842e-05,1.041002550667325593e-05
3.233333333333333393e+00,3.658214637036436587e-05,1.078882790207547375e-05
3.234126984126984183e+00,3.392875321293204583e-05,1.146737749842362744e-05
3.234920634920634974e+00,2.762608898266104878e-05,1.163622265443370531e-05
