Timestamp,Flexor carpi radialis,Extensor digitorum
2.000000000000000000e+00,-2.283418303268241285e-07,-7.854629096473397212e-06
2.000793650793650791e+00,-3.075625804988514811e-06,-2.006313247913429538e-05
2.001587301587301582e+00,-5.117436677347706469e-06,-3.178026512055572153e-05
2.002380952380952372e+00,-6.023669191047895660e-06,-4.125250469038258872e-05
2.003174603174603163e+00,-5.771944643673660558e-06,-4.672556657391614416e-05
2.003968253968253954e+00,-4.637820019226918191e-06,-4.681864265898487112e-05
2.004761904761904745e+00,-3.102122725698115316e-06,-4.085314802897367832e-05
2.005555555555555536e+00,-1.706567170154148580e-06,-2.904867843304910952e-05
2.006349206349206327e+00,-9.028170493835605227e-07,-1.252990690247408088e-05
2.007142857142857117e+00,-9.405015369154929005e-07,6.856048042019895616e-06
2.007936507936507908e+00,-1.824632432375804360e-06,2.685318848621439736e-05
2.008730158730158699e+00,-3.347301069577960308e-06,4.514915324707393664e-05
2.009523809523809490e+00,-5.173257655325184743e-06,5.968161572581344112e-05
2.010317460317460281e+00,-6.944349831411406203e-06,6.884996912628565491e-05
2.011111111111111072e+00,-8.367359858364276258e-06,7.162531993952958760e-05
2.011904761904761862e+00,-9.260265335818693153e-06,6.758010633395332065e-05
2.012698412698412653e+00,-9.548756056530772657e-06,5.686962317263394561e-05
2.013492063492063444e+00,-9.224363006236881228e-06,4.019616117536179328e-05
2.014285714285714235e+00,-8.291724091895974504e-06,1.877670928703816186e-05
2.015079365079365026e+00,-6.736569306772184299e-06,-5.681428670163293936e-06
2.015873015873015817e+00,-4.533957690653308638e-06,-3.101460224524576397e-05
2.016666666666666607e+00,-1.694425520417850102e-06,-5.468519282223826774e-05
2.017460317460317398e+00,1.673842867477073450e-06,-7.396024488313508131e-05
2.018253968253968189e+00,5.316846696931845138e-06,-8.621850859397077829e-05
2.019047619047618980e+00,8.825674110917390412e-06,-8.937607975760569106e-05
2.019841269841269771e+00,1.167768145650713100e-05,-8.236548590493759849e-05
2.020634920634920562e+00,1.332293204614376812e-05,-6.555290752021712230e-05
2.021428571428571352e+00,1.329823451507155560e-05,-4.095035588241887047e-05
2.022222222222222143e+00,1.134470804361186827e-05,-1.209252491937246508e-05
2.023015873015872934e+00,7.503473622772148940e-06,1.648237046501655595e-05
2.023809523809523725e+00,2.165748778896593680e-06,4.009001495123138526e-05
2.024603174603174516e+00,-3.941533002552998531e-06,5.491354260108189810e-05
2.025396825396825307e+00,-9.843617372282974218e-06,5.891393106491095704e-05
2.026190476190476097e+00,-1.447294639022512007e-05,5.237678342504319617e-05
2.026984126984126888e+00,-1.686622057536331718e-05,3.790889459868860200e-05
2.027777777777777679e+00,-1.636171577230128752e-05,1.983157123945162903e-05
2.028571428571428470e+00,-1.274722091847806918e-05,3.085673311585044613e-06
2.029365079365079261e+00,-6.316036246581852075e-06,-8.077730943621968547e-06
2.030158730158730052e+00,2.188004533545434886e-06,-1.125510353263280617e-05
2.030952380952380842e+00,1.172193378367211365e-05,-6.550798776355264076e-06
2.031746031746031633e+00,2.114695954341938171e-05,3.468547803149451120e-06
2.032539682539682424e+00,2.942675885184738697e-05,1.452307948723423483e-05
2.033333333333333215e+00,3.577395311045106831e-05,2.185842250627278264e-05
2.034126984126984006e+00,3.972344415558524814e-05,2.162235896663828197e-05
2.034920634920634797e+00,4.113772446957181982e-05,1.200166027814094365e-05
2.035714285714285587e+00,4.016402227861525599e-05,-6.184573283738908141e-06
2.036507936507936378e+00,3.716275983843043713e-05,-2.960011194561364167e-05
2.037301587301587169e+00,3.261866332260418571e-05,-5.320356274132773762e-05
2.038095238095237960e+00,2.704151898370564126e-05,-7.155279017123326315e-05
2.038888888888888751e+00,2.086791905131676862e-05,-8.023757315399443718e-05
2.039682539682539542e+00,1.438268013422821746e-05,-7.701931772071866043e-05
2.040476190476190332e+00,7.680281625377031855e-06,-6.234745666962001123e-05
2.041269841269841123e+00,6.797485602883166741e-07,-3.913499149791624198e-05
2.042063492063491914e+00,-6.806414126170166759e-06,-1.191803433717027354e-05
2.042857142857142705e+00,-1.496307667418262181e-05,1.430580153823410357e-05
2.043650793650793496e+00,-2.384833144947695754e-05,3.521809288201355697e-05
2.044444444444444287e+00,-3.328372316865686780e-05,4.801943333259763757e-05
2.045238095238095077e+00,-4.278474279659936423e-05,5.181388629967666914e-05
2.046031746031745868e+00,-5.155036591326295269e-05,4.752352584722543548e-05
2.046825396825396659e+00,-5.852547385782330008e-05,3.743218713712031755e-05
2.047619047619047450e+00,-6.254767094914503447e-05,2.451900116327843443e-05
2.048412698412698241e+00,-6.258022616069597917e-05,1.174997009370743004e-05
2.049206349206349032e+00,-5.800278410017825728e-05,1.469952011650013289e-06
2.049999999999999822e+00,-4.888517332751545711e-05,-4.998544432663618029e-06
2.050793650793650613e+00,-3.613667894599501397e-05,-7.480646422113449950e-06
2.051587301587301404e+00,-2.143807452447643751e-05,-6.776666345022652257e-06
2.052380952380952195e+00,-6.932888098286822257e-06,-4.238283753653991994e-06
2.053174603174602986e+00,5.253416726525254735e-06,-1.219281639315997830e-06
2.053968253968253777e+00,1.352746735944500268e-05,1.418093233810423697e-06
2.054761904761904567e+00,1.721733940576918045e-05,3.567496400049703265e-06
2.055555555555555358e+00,1.671511960090849388e-05,5.819083231513610027e-06
2.056349206349206149e+00,1.332663479591762777e-05,9.104187829857474969e-06
2.057142857142856940e+00,8.874589630714569265e-06,1.418767186462542046e-05
2.057936507936507731e+00,5.179377055748175102e-06,2.121302856146163525e-05
2.058730158730158522e+00,3.576683646083030577e-06,2.948555032115785551e-05
2.059523809523809312e+00,4.610284365744956655e-06,3.758407728632381630e-05
2.060317460317460103e+00,7.974171298232777034e-06,4.376226027559285218e-05
2.061111111111110894e+00,1.269833887860318215e-05,4.649038510169395259e-05
2.061904761904761685e+00,1.750444956403120160e-05,4.494003299028545735e-05
2.062698412698412920e+00,2.121680459931122377e-05,3.924038943756488892e-05
2.063492063492063711e+00,2.310455360319731228e-05,3.042228156689047761e-05
2.064285714285714501e+00,2.305357441357000072e-05,2.007666819125819249e-05
2.065079365079365292e+00,2.152157259255538723e-05,9.847355183462972643e-06
2.065873015873016083e+00,1.930695242751423061e-05,9.281233467525444532e-07
2.066666666666666874e+00,1.722934925771682006e-05,-6.268210415512798571e-06
2.067460317460317665e+00,1.584229893373483345e-05,-1.215944374961861038e-05
2.068253968253968456e+00,1.526867771135565914e-05,-1.775027908227771187e-05
2.069047619047619246e+00,1.519193837510086823e-05,-2.417992714539098537e-05
2.069841269841270037e+00,1.498190607709029413e-05,-3.220512511998257214e-05
2.070634920634920828e+00,1.389923428327328820e-05,-4.177600649049071578e-05
2.071428571428571619e+00,1.131082789380763538e-05,-5.183852397836112791e-05
2.072222222222222410e+00,6.858125249633792442e-06,-6.044275964399684374e-05
2.073015873015873201e+00,5.453184973148505798e-07,-6.515851382979594728e-05
2.073809523809523991e+00,-7.255411688290139349e-06,-6.371438564210031878e-05
2.074603174603174782e+00,-1.586171589779407525e-05,-5.470250422408326187e-05
2.075396825396825573e+00,-2.437461228984525710e-05,-3.814559654972035619e-05
2.076190476190476364e+00,-3.178915655250093996e-05,-1.573174975947813766e-05
2.076984126984127155e+00,-3.711917773923531180e-05,9.393007151318558823e-06
2.077777777777777946e+00,-3.953982059066940503e-05,3.324133925126556419e-05
2.078571428571428736e+00,-3.854022724783289020e-05,5.184147065356202932e-05
2.079365079365079527e+00,-3.405555136793639320e-05,6.209921496174548253e-05
2.080158730158730318e+00,-2.653146910323615220e-05,6.244788442962580222e-05
2.080952380952381109e+00,-1.688144611194350824e-05,5.314256699795048329e-05
2.081746031746031900e+00,-6.328369921459204400e-06,3.615168243794151138e-05
2.082539682539682691e+00,3.835584998130405133e-06,1.469477999512340832e-05
2.083333333333333481e+00,1.250316439276195484e-05,-7.447837063923834648e-06
2.084126984126984272e+00,1.894365144761910331e-05,-2.668796256734419137e-05
2.084920634920635063e+00,2.287766559831405554e-05,-4.028091069067177299e-05
2.085714285714285854e+00,2.442650591907901273e-05,-4.674696570774371446e-05
2.086507936507936645e+00,2.397438550746364678e-05,-4.599377129230202446e-05
2.087301587301587436e+00,2.200707338955550167e-05,-3.914695974831261006e-05
2.088095238095238226e+00,1.898518991434125389e-05,-2.817139742422276134e-05
2.088888888888889017e+00,1.528431688928828607e-05,-1.540884687280087511e-05
2.089682539682539808e+00,1.120319097280957336e-05,-3.149898435081509183e-06
2.090476190476190599e+00,7.016358814169355088e-06,6.691620205185330747e-06
2.091269841269841390e+00,3.033999364583697927e-06,1.279207786149971041e-05
2.092063492063492181e+00,-3.678423817797496775e-07,1.454352151071268258e-05
2.092857142857142971e+00,-2.768997151357137911e-06,1.211127699684297351e-05
2.093650793650793762e+00,-3.778695252671174571e-06,6.415828174815627902e-06
2.094444444444444553e+00,-3.138548879488463638e-06,-9.905675015255609112e-07
2.095238095238095344e+00,-8.191361092218028121e-07,-8.175212625119519360e-06
2.096031746031746135e+00,2.925575369508668595e-06,-1.319131150342991256e-05
2.096825396825396925e+00,7.568572885599576135e-06,-1.449949888860892440e-05
2.097619047619047716e+00,1.238775498125468361e-05,-1.134885369615225464e-05
2.098412698412698507e+00,1.659584255585168982e-05,-4.013485393535178754e-06
2.099206349206349298e+00,1.949354980921480962e-05,6.194589628399747900e-06
2.100000000000000089e+00,2.061047596409776276e-05,1.716486687686930937e-05
2.100793650793650880e+00,1.979869448066764762e-05,2.644524670278951929e-05
2.101587301587301670e+00,1.725418762923999305e-05,3.182042466424359989e-05
2.102380952380952461e+00,1.346062440362877546e-05,3.187296975195433898e-05
2.103174603174603252e+00,9.072649254676158783e-06,2.637944214326310569e-05
2.103968253968254043e+00,4.772938530432502094e-06,1.642670028739577496e-05
2.104761904761904834e+00,1.141567391871911135e-06,4.201040356557770724e-06
2.105555555555555625e+00,-1.433771794915712181e-06,-7.512499751058098957e-06
2.106349206349206415e+00,-2.796836451434155035e-06,-1.600171190869557333e-05
2.107142857142857206e+00,-3.019156755728972408e-06,-1.929475781925227171e-05
2.107936507936507997e+00,-2.370674357369311938e-06,-1.664147559758624858e-05
2.108730158730158788e+00,-1.279636186633774374e-06,-8.676607423791447680e-06
2.109523809523809579e+00,-2.872205359582286091e-07,2.775086575580331514e-06
2.110317460317460370e+00,6.975654691106160513e-09,1.519130069395941263e-05
2.111111111111111160e+00,-9.841205254722550132e-07,2.600311826427165816e-05
2.111904761904761951e+00,-3.744350564028537304e-06,3.322664007247004585e-05
2.112698412698412742e+00,-8.549577864169076688e-06,3.590487278364678755e-05
2.113492063492063533e+00,-1.536380703077014148e-05,3.424207215204726456e-05
2.114285714285714324e+00,-2.375588873989471219e-05,2.940216919930948135e-05
2.115079365079365115e+00,-3.285802624095149902e-05,2.304581074701885727e-05
2.115873015873015905e+00,-4.139043661283869262e-05,1.676172534281036890e-05
2.116666666666666696e+00,-4.778079277657612306e-05,1.157761265130837183e-05
2.117460317460317487e+00,-5.040144532163088318e-05,7.702610586794334606e-06
2.118253968253968278e+00,-4.791795091612941008e-05,4.568282340385583638e-06
2.119047619047619069e+00,-3.968789863733133809e-05,1.129475937728634263e-06
2.119841269841269860e+00,-2.609177591409982821e-05,-3.695800917611552373e-06
2.120634920634920650e+00,-8.655940268853186176e-06,-1.059558053917527956e-05
2.121428571428571441e+00,1.013065439609030769e-05,-1.956466414022081302e-05
2.122222222222222232e+00,2.730592678745972758e-05,-2.980876532347590170e-05
2.123015873015873023e+00,4.011397649189453322e-05,-3.987359138054795513e-05
2.123809523809523814e+00,4.667375207974264520e-05,-4.797447739859860401e-05
2.124603174603174605e+00,4.642406767523066875e-05,-5.245310560646344173e-05
2.125396825396825395e+00,4.020287125248911197e-05,-5.224016008905931304e-05
2.126190476190476186e+00,2.994685777374832267e-05,-4.718227454256102455e-05
2.126984126984126977e+00,1.812686763664505450e-05,-3.812321081474916249e-05
2.127777777777777768e+00,7.109505059347948538e-06,-2.670717394281678836e-05
2.128571428571428559e+00,-1.367111027518885485e-06,-1.496094171220718415e-05
2.129365079365079350e+00,-6.479127623173507370e-06,-4.775372531435914112e-06
2.130158730158730140e+00,-8.327471612114568234e-06,2.569732545389572836e-06
2.130952380952380931e+00,-7.715309961948840043e-06,6.710701825140219661e-06
2.131746031746031722e+00,-5.788637835398350350e-06,8.258208424696851507e-06
2.132539682539682513e+00,-3.659293585852458803e-06,8.598021085387521628e-06
2.133333333333333304e+00,-2.119320673476257517e-06,9.486730281991183762e-06
2.134126984126984095e+00,-1.513693650318558983e-06,1.254198380929846431e-05
2.134920634920634885e+00,-1.777310763509884492e-06,1.875234681358233123e-05
2.135714285714285676e+00,-2.584861130315750850e-06,2.813208968764737536e-05
2.136507936507936467e+00,-3.533260800389864502e-06,3.961766102131739862e-05
2.137301587301587258e+00,-4.286345435397845137e-06,5.124592561540481349e-05
2.138095238095238049e+00,-4.648311498002896878e-06,6.057834179201425541e-05
2.138888888888888840e+00,-4.570935499944591513e-06,6.526128163905479430e-05
2.139682539682539630e+00,-4.120786962587488004e-06,6.357031705033363525e-05
2.140476190476190421e+00,-3.433362510405642576e-06,5.479661673106544308e-05
2.141269841269841212e+00,-2.670328580113236864e-06,3.939193272968087491e-05
2.142063492063492003e+00,-1.985315562990056777e-06,1.886565125824119990e-05
2.142857142857142794e+00,-1.499001815812456515e-06,-4.511617231051245986e-06
2.143650793650793585e+00,-1.284415677393892288e-06,-2.811646602082354054e-05
2.144444444444444375e+00,-1.364005863978534783e-06,-4.941154845485428451e-05
2.145238095238095166e+00,-1.717939237781360817e-06,-6.634012567279734204e-05
2.146031746031745957e+00,-2.298512197767680553e-06,-7.760643208314429032e-05
2.146825396825396748e+00,-3.042006653448604897e-06,-8.278576492156708726e-05
2.147619047619047539e+00,-3.870920423306264815e-06,-8.224485914628829942e-05
2.148412698412698330e+00,-4.686768000087710821e-06,-7.690664395458592898e-05
2.149206349206349120e+00,-5.362211772122597875e-06,-6.793842834366270325e-05
2.149999999999999911e+00,-5.745135289236134002e-06,-5.645826173180188833e-05
2.150793650793650702e+00,-5.682676107498657264e-06,-4.334059184667318028e-05
2.151587301587301493e+00,-5.061255804434179260e-06,-2.916911967636139229e-05
2.152380952380952284e+00,-3.846130630472793303e-06,-1.433716506937369733e-05
2.153174603174603075e+00,-2.100381520985376006e-06,7.591384829435862390e-07
2.153968253968253865e+00,2.724220243786576916e-08,1.553186483266127249e-05
2.154761904761904656e+00,2.339669266166254697e-06,2.911832976816247187e-05
2.155555555555555447e+00,4.635954971919737581e-06,4.046354356241204259e-05
2.156349206349206238e+00,6.744023539668039726e-06,4.855411646860523711e-05
2.157142857142857029e+00,8.531960130282113439e-06,5.271912241605290886e-05
2.157936507936507819e+00,9.900318497036116183e-06,5.287725211999841709e-05
2.158730158730158610e+00,1.076687712898580514e-05,4.962170306466196103e-05
2.159523809523809401e+00,1.105774442085790103e-05,4.409152762055068602e-05
2.160317460317460192e+00,1.071482991837821947e-05,3.766394777335645508e-05
2.161111111111110983e+00,9.721402566792588205e-06,3.158238398566238912e-05
2.161904761904761774e+00,8.137147677549463106e-06,2.666596112050773499e-05
2.162698412698412564e+00,6.125101204781762013e-06,2.320473673561196680e-05
2.163492063492063355e+00,3.949755089756625625e-06,2.105078238843057582e-05
2.164285714285714146e+00,1.932946091330273990e-06,1.982096225652615562e-05
2.165079365079364937e+00,3.722665766221394575e-07,1.908453069424606111e-05
2.165873015873015728e+00,-5.516209116333250339e-07,1.843948434709006108e-05
2.166666666666666519e+00,-8.403826152072240379e-07,1.746842852070252703e-05
2.167460317460317309e+00,-6.848659006493362722e-07,1.565806249371649866e-05
2.168253968253968100e+00,-4.053094962005559539e-07,1.240464982430124314e-05
2.169047619047618891e+00,-3.430315889195603668e-07,7.176214940586502965e-06
2.169841269841269682e+00,-7.392693774093776325e-07,-2.076558731649417524e-07
2.170634920634920473e+00,-1.641801162526004155e-06,-9.305174569894360747e-06
2.171428571428571264e+00,-2.873153465488581248e-06,-1.892880759711442935e-05
2.172222222222222054e+00,-4.076534930749580250e-06,-2.725352248550115485e-05
2.173015873015872845e+00,-4.829787492767204175e-06,-3.216513390861334536e-05
2.173809523809523636e+00,-4.791904404700788589e-06,-3.178381448071079162e-05
2.174603174603174427e+00,-3.832437381606052822e-06,-2.503976813089331882e-05
2.175396825396825218e+00,-2.098158753908329193e-06,-1.214744869659757114e-05
2.176190476190476009e+00,7.793320029943116089e-09,5.167853673616433395e-06
2.176984126984126799e+00,1.929085986888891696e-06,2.378977869004219076e-05
2.177777777777777590e+00,3.108708216220348563e-06,3.969653520791040083e-05
2.178571428571428381e+00,3.143276083220889886e-06,4.873945877305081443e-05
2.179365079365079172e+00,1.894685959998304813e-06,4.756062153561386156e-05
2.180158730158729963e+00,-4.689970934308572522e-07,3.444730389873517382e-05
2.180952380952380754e+00,-3.510485837520388955e-06,9.916316629052212281e-06
2.181746031746031544e+00,-6.625333034967838576e-06,-2.313635666371095554e-05
2.182539682539682335e+00,-9.180936904878435516e-06,-5.979868506282868873e-05
2.183333333333333126e+00,-1.065653977104451911e-05,-9.398227031656177346e-05
2.184126984126983917e+00,-1.075080494110946427e-05,-1.195855170904401425e-04
2.184920634920634708e+00,-9.434856148479874483e-06,-1.317330871920353646e-04
2.185714285714285499e+00,-6.943754822220193129e-06,-1.277998400380118082e-04
2.186507936507936289e+00,-3.713801999114566362e-06,-1.079610535404487318e-04
2.187301587301587080e+00,-2.841717352817547400e-07,-7.513080369581915904e-05
2.188095238095238315e+00,2.812706070513221898e-06,-3.432129076680116538e-05
2.188888888888889106e+00,5.148025273537420568e-06,8.390090868046461294e-06
2.189682539682539897e+00,6.462635733497806019e-06,4.701993999989564855e-05
2.190476190476190688e+00,6.692958318259186059e-06,7.670968954477894197e-05
2.191269841269841478e+00,5.956985420582788251e-06,9.444888098252094419e-05
2.192063492063492269e+00,4.509022055814892714e-06,9.940574755524744202e-05
2.192857142857143060e+00,2.677614501397070386e-06,9.285816797508209713e-05
2.193650793650793851e+00,8.026313447755048658e-07,7.777329709454615099e-05
2.194444444444444642e+00,-8.159694822347865684e-07,5.812874484550236380e-05
2.195238095238095433e+00,-1.952440885424032859e-06,3.810759114684765200e-05
2.196031746031746223e+00,-2.475429313254756568e-06,2.131993113210902549e-05
2.196825396825397014e+00,-2.361307008473633890e-06,1.018994341475048706e-05
2.197619047619047805e+00,-1.705245680876757556e-06,5.605229520355672170e-06
2.198412698412698596e+00,-7.254724662107976443e-07,6.874018787543890259e-06
2.199206349206349387e+00,2.532286793315916647e-07,1.198755717130729505e-05
2.200000000000000178e+00,8.518123752106686761e-07,1.813872753784589783e-05
2.200793650793650968e+00,7.285972500017990744e-07,2.240290101226679009e-05
2.201587301587301759e+00,-3.064239758716814804e-07,2.244995094143321417e-05
2.202380952380952550e+00,-2.189858302753409262e-06,1.713701193713982988e-05
2.203174603174603341e+00,-4.558146719152057018e-06,6.838771375664037928e-06
2.203968253968254132e+00,-6.788892740409287007e-06,-6.585978632426352887e-06
2.204761904761904923e+00,-8.138369604578416078e-06,-2.021461415686221397e-05
2.205555555555555713e+00,-7.948282459415458430e-06,-3.079131628502448768e-05
2.206349206349206504e+00,-5.862315412721436782e-06,-3.559937728215327527e-05
2.207142857142857295e+00,-1.978570456699927440e-06,-3.325052667003541862e-05
2.207936507936508086e+00,3.122618216245083033e-06,-2.416798190962594550e-05
2.208730158730158877e+00,8.497697520443907391e-06,-1.060756480213908609e-05
2.209523809523809668e+00,1.307866446402773237e-05,3.816828433686185354e-06
2.210317460317460458e+00,1.596316698272960092e-05,1.499628129631383652e-05
2.211111111111111249e+00,1.666983806715446425e-05,1.935783724534349714e-05
2.211904761904762040e+00,1.528355858807390003e-05,1.479682770316168816e-05
2.212698412698412831e+00,1.244674942557633542e-05,1.280479731138855718e-06
2.213492063492063622e+00,9.192103558528496928e-06,-1.901428684269352657e-05
2.214285714285714413e+00,6.651277551661165698e-06,-4.206534440990770241e-05
2.215079365079365203e+00,5.709591333863730660e-06,-6.282328596220667781e-05
2.215873015873015994e+00,6.702642459867813170e-06,-7.634648925480113236e-05
2.216666666666666785e+00,9.254953436174811907e-06,-7.901580236129536667e-05
2.217460317460317576e+00,1.233197629226869729e-05,-6.951373378215875668e-05
2.218253968253968367e+00,1.451512165199980299e-05,-4.926444017434648381e-05
2.219047619047619158e+00,1.443275039548339139e-05,-2.216370364356906115e-05
2.219841269841269948e+00,1.121827578219333130e-05,6.354640076997649178e-06
2.220634920634920739e+00,4.846996041769027847e-06,3.065615204770579178e-05
2.221428571428571530e+00,-3.763554010683005536e-06,4.626489206149872170e-05
2.222222222222222321e+00,-1.293049849084744327e-05,5.087002242759862966e-05
2.223015873015873112e+00,-2.061265586305616814e-05,4.472899581446848556e-05
2.223809523809523903e+00,-2.493157124171847415e-05,3.040377598749880288e-05
2.224603174603174693e+00,-2.466279342683993405e-05,1.195661966184431658e-05
2.225396825396825484e+00,-1.957032150401375722e-05,-6.129962170773098363e-06
2.226190476190476275e+00,-1.050325556101780541e-05,-1.999549271732418997e-05
2.226984126984127066e+00,7.694941935854336046e-07,-2.714201223487337105e-05
2.227777777777777857e+00,1.195316380173151761e-05,-2.673201918308590338e-05
2.228571428571428648e+00,2.076131264836594015e-05,-1.945125113106582323e-05
2.229365079365079438e+00,2.545696600278153155e-05,-7.066809060130447395e-06
2.230158730158730229e+00,2.525242269414711458e-05,8.123827090318886575e-06
2.230952380952381020e+00,2.045192364162481757e-05,2.376484092307680322e-05
2.231746031746031811e+00,1.229882291886266431e-05,3.772358968170156447e-05
2.232539682539682602e+00,2.585357822073656236e-06,4.818623246268975902e-05
2.233333333333333393e+00,-6.839127694049469440e-06,5.367239789566619410e-05
2.234126984126984183e+00,-1.450100647309782365e-05,5.310227323122781182e-05
2.234920634920634974e+00,-1.955669615147749831e-05,4.599023344528136044e-05
2.235714285714285765e+00,-2.183243352476175073e-05,3.272966712918345028e-05
2.236507936507936556e+00,-2.169340260589232012e-05,1.483833305292298631e-05
2.237301587301587347e+00,-1.982697912260951765e-05,-4.997781630170669826e-06
2.238095238095238138e+00,-1.702163287071811688e-05,-2.319987842517608331e-05
2.238888888888888928e+00,-1.399359415064898850e-05,-3.590950953790804644e-05
2.239682539682539719e+00,-1.127996868060601088e-05,-3.983778792720597546e-05
2.240476190476190510e+00,-9.194138529686953981e-06,-3.314618577274770056e-05
2.241269841269841301e+00,-7.830390116803479954e-06,-1.610613991313314351e-05
2.242063492063492092e+00,-7.104337403715029794e-06,8.686177271570980863e-06
2.242857142857142883e+00,-6.816186336398874215e-06,3.665921810650016858e-05
2.243650793650793673e+00,-6.722037565920985673e-06,6.214672500872120116e-05
2.244444444444444464e+00,-6.596960578067867289e-06,7.961184061573243901e-05
2.245238095238095255e+00,-6.276520531179376171e-06,8.491768856523488652e-05
2.246031746031746046e+00,-5.671366920789557413e-06,7.631939927242139860e-05
2.246825396825396837e+00,-4.759220345164962740e-06,5.491498104011319670e-05
2.247619047619047628e+00,-3.565829939018503956e-06,2.442877256361496995e-05
2.248412698412698418e+00,-2.147879275735549122e-06,-9.624691511739723781e-06
2.249206349206349209e+00,-5.854280162448612619e-07,-4.118539852624513256e-05
2.250000000000000000e+00,1.017666167841474081e-06,-6.498844213337775599e-05
2.250793650793650791e+00,2.533613381782904000e-06,-7.767957787178576855e-05
2.251587301587301582e+00,3.819086224513027946e-06,-7.846294827492265108e-05
2.252380952380952372e+00,4.735048241448402682e-06,-6.915911819298074543e-05
2.253174603174603163e+00,5.174953249510946083e-06,-5.367121473794409610e-05
2.253968253968253954e+00,5.094429812924857511e-06,-3.696517840101174628e-05
2.254761904761904745e+00,4.533668216696463740e-06,-2.377978011164223320e-05
2.255555555555555536e+00,3.623433639925104880e-06,-1.737958162021038206e-05
2.256349206349206327e+00,2.568143937043810298e-06,-1.869121966564061478e-05
2.257142857142857117e+00,1.605614624089419608e-06,-2.607187822583392542e-05
2.257936507936507908e+00,9.513766814396740678e-07,-3.577370672241322739e-05
2.258730158730158699e+00,7.427878371652878237e-07,-4.297358080034257010e-05
2.259523809523809490e+00,1.001119533121164100e-06,-4.310352241247135890e-05
2.260317460317460281e+00,1.625866687884755069e-06,-3.315796816781308581e-05
2.261111111111111072e+00,2.425260936348938247e-06,-1.265688671236265798e-05
2.261904761904761862e+00,3.174732524075484291e-06,1.599375196802781435e-05
2.262698412698412653e+00,3.685587676647766432e-06,4.787431518153590921e-05
2.263492063492063444e+00,3.861905081715373892e-06,7.660708893052275645e-05
2.264285714285714235e+00,3.725996875126605782e-06,9.585972988258379323e-05
2.265079365079365026e+00,3.402505731216118516e-06,1.009241416892105468e-04
2.265873015873015817e+00,3.066112924111039286e-06,8.995089447796968400e-05
2.266666666666666607e+00,2.871822175010120612e-06,6.448501955711865045e-05
2.267460317460317398e+00,2.893287156055577533e-06,2.913095052268456964e-05
2.268253968253968189e+00,3.091255907942913461e-06,-9.566377804463616666e-06
2.269047619047618980e+00,3.323545755063435236e-06,-4.469165360533009250e-05
2.269841269841269771e+00,3.394323801238814686e-06,-7.051940913207905269e-05
2.270634920634920562e+00,3.127070149926177291e-06,-8.364300852055558402e-05
2.271428571428571352e+00,2.435642690044178785e-06,-8.342934192178534951e-05
2.272222222222222143e+00,1.365958700924181164e-06,-7.178695229051770246e-05
2.273015873015872934e+00,9.059590069241202659e-08,-5.242390646584784748e-05
2.273809523809523725e+00,-1.142025874706157264e-06,-2.985912809127411221e-05
2.274603174603174516e+00,-2.082602410401539179e-06,-8.439230480664352557e-06
2.275396825396825307e+00,-2.549958318721715625e-06,8.451343209121176764e-06
2.276190476190476097e+00,-2.470414329909847518e-06,1.887221161922768016e-05
2.276984126984126888e+00,-1.879966220931292468e-06,2.245474543116109177e-05
2.277777777777777679e+00,-8.976784231457088035e-07,2.019666591115695670e-05
2.278571428571428470e+00,3.130389837720501160e-07,1.400943361504599192e-05
2.279365079365079261e+00,1.580125269918764137e-06,6.153244002348905543e-06
2.280158730158730052e+00,2.748744141690748984e-06,-1.290191901673092298e-06
2.280952380952380842e+00,3.698943737219957103e-06,-6.785438522376312230e-06
2.281746031746031633e+00,4.358720919285186307e-06,-9.494943322267925581e-06
2.282539682539682424e+00,4.711720035582823964e-06,-9.232120714453086026e-06
2.283333333333333215e+00,4.794781970832242750e-06,-6.286261909896802969e-06
2.284126984126984006e+00,4.682764116529808243e-06,-1.206009494053189753e-06
2.284920634920634797e+00,4.464765687028312660e-06,5.384977162380283976e-06
2.285714285714285587e+00,4.220598283716921592e-06,1.289483136662112359e-05
2.286507936507936378e+00,4.005203205206963055e-06,2.078062963062241744e-05
2.287301587301587169e+00,3.843490901597201056e-06,2.849539069963668946e-05
2.288095238095237960e+00,3.733107431916022351e-06,3.540892832287180437e-05
2.288888888888888751e+00,3.650774811103085658e-06,4.075877444230315179e-05
2.289682539682539542e+00,3.558889705593603822e-06,4.368266348867114223e-05
2.290476190476190332e+00,3.411126120749578558e-06,4.335992336657680567e-05
2.291269841269841123e+00,3.157578902417518180e-06,3.924827777422676428e-05
2.292063492063491914e+00,2.750974030527101433e-06,3.135430151646007930e-05
2.292857142857142705e+00,2.154908626043952179e-06,2.043636796674975435e-05
2.293650793650793496e+00,1.352855794469594161e-06,8.030089143628787811e-06
2.294444444444444287e+00,3.547619926227007261e-07,-3.774577212163309818e-06
2.295238095238095077e+00,-8.010760622334494065e-07,-1.279062824958629023e-05
2.296031746031745868e+00,-2.050032187336045327e-06,-1.731166457926240756e-05
2.296825396825396659e+00,-3.304280067106503035e-06,-1.662721999753102807e-05
2.297619047619047450e+00,-4.455906258046557609e-06,-1.129326007022119433e-05
2.298412698412698241e+00,-5.382703494604840300e-06,-3.048492259639675991e-06
2.299206349206349032e+00,-5.961300790854025738e-06,5.616910350038727214e-06
2.299999999999999822e+00,-6.089715590357040821e-06,1.212015354800565571e-05
2.300793650793650613e+00,-5.715413668222503249e-06,1.448077799865450695e-05
2.301587301587301404e+00,-4.859419458712000304e-06,1.185266913675367710e-05
2.302380952380952195e+00,-3.625592981629269157e-06,4.748935410376439956e-06
2.303174603174602986e+00,-2.188038381810538798e-06,-5.091159494181056978e-06
2.303968253968253777e+00,-7.571690492365558553e-07,-1.514664147696474942e-05
2.304761904761904567e+00,4.669138640404946642e-07,-2.275035094659429573e-05
2.305555555555555358e+00,1.339690083333839809e-06,-2.575760697345469351e-05
2.306349206349206149e+00,1.801722131487783157e-06,-2.308947084194769452e-05
2.307142857142856940e+00,1.882734341968665127e-06,-1.502467032508561062e-05
2.307936507936507731e+00,1.678296672254395213e-06,-3.173033343542915808e-06
2.308730158730158522e+00,1.305013771209491661e-06,9.863747123458919960e-06
2.309523809523809312e+00,8.472043021170691160e-07,2.106705613596668406e-05
2.310317460317460103e+00,3.141219674265612904e-07,2.768114823139860621e-05
2.311111111111110894e+00,-3.711645832567207554e-07,2.784176026870360004e-05
2.311904761904761685e+00,-1.337554668570145502e-06,2.100765857185101168e-05
2.312698412698412920e+00,-2.691604313456266225e-06,8.094085099343566287e-06
2.313492063492063711e+00,-4.431478415422513582e-06,-8.722748572222202947e-06
2.314285714285714501e+00,-6.390388808304862299e-06,-2.648105111509756659e-05
2.315079365079365292e+00,-8.242399754498233054e-06,-4.206938197666008661e-05
2.315873015873016083e+00,-9.576540051812266734e-06,-5.286466498457199941e-05
2.316666666666666874e+00,-1.001446131077271094e-05,-5.722040967409703900e-05
2.317460317460317665e+00,-9.328062334934580208e-06,-5.470187872618352982e-05
2.318253968253968456e+00,-7.513851198248309791e-06,-4.603662742415666741e-05
2.319047619047619246e+00,-4.798838835550334311e-06,-3.282214007902980177e-05
2.319841269841270037e+00,-1.580757517759216933e-06,-1.708998152554292913e-05
2.320634920634920828e+00,1.669107887099833374e-06,-8.558104624555014634e-07
2.321428571428571619e+00,4.502323607331996099e-06,1.422002202984678602e-05
2.322222222222222410e+00,6.561632364870779595e-06,2.697742413004751210e-05
2.323015873015873201e+00,7.616490378378325869e-06,3.669391440230847229e-05
2.323809523809523991e+00,7.578001442297154462e-06,4.288195849976961742e-05
2.324603174603174782e+00,6.505489544043118201e-06,4.507447759814608567e-05
2.325396825396825573e+00,4.604952513455889188e-06,4.273880768801868361e-05
2.326190476190476364e+00,2.209615523210872738e-06,3.540741763468802393e-05
2.326984126984127155e+00,-2.659980405351601907e-07,2.300537973326931843e-05
2.327777777777777946e+00,-2.395473824280523439e-06,6.231328193707395381e-06
2.328571428571428736e+00,-3.815447936092065877e-06,-1.322198560450762650e-05
2.329365079365079527e+00,-4.279140658247476907e-06,-3.278313278810242104e-05
2.330158730158730318e+00,-3.666528652600148390e-06,-4.948271743691824205e-05
2.330952380952381109e+00,-1.948931307295235715e-06,-6.064739188046442981e-05
2.331746031746031900e+00,8.695160189425781326e-07,-6.454597352692151161e-05
2.332539682539682691e+00,4.795980391126793240e-06,-6.075582411481553717e-05
2.333333333333333481e+00,9.844837999260811235e-06,-5.015926427790058753e-05
2.334126984126984272e+00,1.597240695993855581e-05,-3.463684365959591077e-05
2.334920634920635063e+00,2.296612668218292886e-05,-1.660995012079512985e-05
2.335714285714285854e+00,3.032897830770163873e-05,1.419276380680557077e-06
2.336507936507936645e+00,3.721245978488682202e-05,1.723924129898446461e-05
2.337301587301587436e+00,4.244578954517975555e-05,2.918026521201261102e-05
2.338095238095238226e+00,4.468514145957097546e-05,3.625325315756775099e-05
2.338888888888889017e+00,4.267065816376060293e-05,3.819766821267550676e-05
2.339682539682539808e+00,3.554189890265319009e-05,3.545980079907258201e-05
2.340476190476190599e+00,2.313709682281400677e-05,2.911151070459711815e-05
2.341269841269841390e+00,6.196037574116151704e-06,2.070504467359722824e-05
2.342063492063492181e+00,-1.360108318831680440e-05,1.205230369385701984e-05
2.342857142857142971e+00,-3.380159005203779205e-05,4.928846346892135248e-06
2.343650793650793762e+00,-5.156078377461761664e-05,7.358929507835194138e-07
2.344444444444444553e+00,-6.418759002353971086e-05,1.936686758530685046e-07
2.345238095238095344e+00,-6.974503985567018683e-05,3.160693456083081284e-06
2.346031746031746135e+00,-6.754672658485797387e-05,8.653997281379207596e-06
2.346825396825396925e+00,-5.838870608010257964e-05,1.508621859081931333e-05
2.347619047619047716e+00,-4.441827702384157698e-05,2.066459590839998789e-05
2.348412698412698507e+00,-2.865066192846041994e-05,2.384560804950553795e-05
2.349206349206349298e+00,-1.425758384472921144e-05,2.372257775177762025e-05
2.350000000000000089e+00,-3.821864110323761647e-06,2.024133769545749236e-05
2.350793650793650880e+00,1.242803832346450996e-06,1.418511424121278677e-05
2.351587301587301670e+00,9.609178586775439474e-07,6.934851990951789743e-06
2.352380952380952461e+00,-3.305230748373008611e-06,7.818397496796078932e-08
2.353174603174603252e+00,-9.287695542964619921e-06,-5.014131134966074591e-06
2.353968253968254043e+00,-1.445566372851387971e-05,-7.518795131350406659e-06
2.354761904761904834e+00,-1.669367711539441500e-05,-7.305998296155156717e-06
2.355555555555555625e+00,-1.483144373128726479e-05,-4.872252788076095930e-06
2.356349206349206415e+00,-8.888156887881673920e-06,-1.104696153764543274e-06
2.357142857142857206e+00,1.526645491737852231e-08,3.020917838053328209e-06
2.357936507936507997e+00,1.002309917824319417e-05,6.692100163799387886e-06
2.358730158730158788e+00,1.906650624358647650e-05,9.382821878918040707e-06
2.359523809523809579e+00,2.539061692850886780e-05,1.083827802349465502e-05
2.360317460317460370e+00,2.795581187180642242e-05,1.097473674197799050e-05
2.361111111111111160e+00,2.662943106748232310e-05,9.776389276905802386e-06
2.361904761904761951e+00,2.214426907604537720e-05,7.254458575398340044e-06
2.362698412698412742e+00,1.585846183627670017e-05,3.484636249019781342e-06
2.363492063492063533e+00,9.395114629467434783e-06,-1.312254534937491140e-06
2.364285714285714324e+00,4.259697360691780926e-06,-6.704568220753466786e-06
2.365079365079365115e+00,1.525336959995654571e-06,-1.204408704201946293e-05
2.365873015873015905e+00,1.646406052186216973e-06,-1.653157716188731856e-05
2.366666666666666696e+00,4.422542845514183620e-06,-1.933364455456188047e-05
2.367460317460317487e+00,9.100960587876712188e-06,-1.971574586881006411e-05
2.368253968253968278e+00,1.457895022203977555e-05,-1.716107711383669935e-05
2.369047619047619069e+00,1.965088324303927402e-05,-1.146419546891394044e-05
2.369841269841269860e+00,2.323940015208641210e-05,-2.805224883905032682e-06
2.370634920634920650e+00,2.456471854525472343e-05,8.191603154839809301e-06
2.371428571428571441e+00,2.323418506492674665e-05,2.043137545904848986e-05
2.372222222222222232e+00,1.926046615652924918e-05,3.238742000179044707e-05
2.373015873015873023e+00,1.302860445532500891e-05,4.223498910411561740e-05
2.373809523809523814e+00,5.229984339796932590e-06,4.808409495237299987e-05
2.374603174603174605e+00,-3.226546723074312021e-06,4.828499932485579704e-05
2.375396825396825395e+00,-1.132253577221080466e-05,4.175635088957383069e-05
2.376190476190476186e+00,-1.805465190140328173e-05,2.827630410077671043e-05
2.376984126984126977e+00,-2.256976708601586548e-05,8.680074622822567850e-06
2.377777777777777768e+00,-2.429425129518073787e-05,-1.508593472952903554e-05
2.378571428571428559e+00,-2.303254999231744190e-05,-4.009965883277035245e-05
2.379365079365079350e+00,-1.901015097158101361e-05,-6.282043128551951649e-05
2.380158730158730140e+00,-1.284672095702023632e-05,-7.964981177206759838e-05
2.380952380952380931e+00,-5.460246138965602433e-06,-8.759763134705610490e-05
2.381746031746031722e+00,2.083720934399439536e-06,-8.489131644402332622e-05
2.382539682539682513e+00,8.752476805913010128e-06,-7.137223639518418304e-05
2.383333333333333304e+00,1.372157131754295667e-05,-4.859934557480057342e-05
2.384126984126984095e+00,1.650737942066572640e-05,-1.967391818885487321e-05
2.384920634920634885e+00,1.702791124066115597e-05,1.115329934110876967e-05
2.385714285714285676e+00,1.558257413766682943e-05,3.904561081049884248e-05
2.386507936507936467e+00,1.276275870497252102e-05,5.929742586901557409e-05
2.387301587301587258e+00,9.318093422043736388e-06,6.816806640382224857e-05
2.388095238095238049e+00,6.005610775862592473e-06,6.371015571418164576e-05
2.388888888888888840e+00,3.446502020889267783e-06,4.637492633990240897e-05
2.389682539682539630e+00,2.014079863058918579e-06,1.915450391158518166e-05
2.390476190476190421e+00,1.776399944714521055e-06,-1.288460419499299115e-05
2.391269841269841212e+00,2.510325905585956404e-06,-4.363679656022310314e-05
2.392063492063492003e+00,3.785773108446609658e-06,-6.731517677878583899e-05
2.392857142857142794e+00,5.095142761971393622e-06,-7.974417789466331583e-05
2.393650793650793585e+00,5.987123204396741473e-06,-7.919566973964020120e-05
2.394444444444444375e+00,6.166154697572763494e-06,-6.653368603868356577e-05
2.395238095238095166e+00,5.536792310336595149e-06,-4.468793430012690316e-05
2.396031746031745957e+00,4.193863109641574620e-06,-1.770764294550660354e-05
2.396825396825396748e+00,2.373256046222864335e-06,1.024923295751015277e-05
2.397619047619047539e+00,3.815942398076270578e-07,3.568591227489678028e-05
2.398412698412698330e+00,-1.479785613686143286e-06,5.614256195325151592e-05
2.399206349206349120e+00,-2.984941185218080706e-06,7.019905700553617941e-05
2.399999999999999911e+00,-4.037846030822544392e-06,7.725231861929204055e-05
2.400793650793650702e+00,-4.701322522418460908e-06,7.725744510052205488e-05
2.401587301587301493e+00,-5.189961445076676044e-06,7.057743637712959319e-05
2.402380952380952284e+00,-5.820276331486598195e-06,5.798349371091904769e-05
2.403174603174603075e+00,-6.921961159774170532e-06,4.073684175339200295e-05
2.403968253968253865e+00,-8.729000434367901426e-06,2.062235688003515057e-05
2.404761904761904656e+00,-1.128076567795770157e-05,-1.719558644864559890e-07
2.405555555555555447e+00,-1.436403576463663564e-05,-1.934570375571880601e-05
2.406349206349206238e+00,-1.751586941376513014e-05,-3.486545038207209009e-05
2.407142857142857029e+00,-2.008961299544626664e-05,-4.530105333170994411e-05
2.407936507936507819e+00,-2.137029139769540241e-05,-5.000660766844532948e-05
2.408730158730158610e+00,-2.071728828851486783e-05,-4.910580025461346222e-05
2.409523809523809401e+00,-1.771129808132405900e-05,-4.332358263508609024e-05
2.410317460317460192e+00,-1.228325617064309433e-05,-3.375291712771418429e-05
2.411111111111110983e+00,-4.800420627847429563e-06,-2.164067604969781709e-05
2.411904761904761774e+00,3.918837319082573880e-06,-8.239360085504103393e-06
2.412698412698412564e+00,1.268591418611470728e-05,5.269397552492127323e-06
2.413492063492063355e+00,2.012387974052159815e-05,1.780001196581023861e-05
2.414285714285714146e+00,2.492472206312728754e-05,2.836671226971464356e-05
2.415079365079364937e+00,2.612653275963261714e-05,3.609344026595969059e-05
2.415873015873015728e+00,2.334106090042957875e-05,4.024957348508696091e-05
2.416666666666666519e+00,1.686961637904519983e-05,4.032073423648597599e-05
2.417460317460317309e+00,7.672071054624886720e-06,3.611064007132391693e-05
2.418253968253968100e+00,-2.808380932916654342e-06,2.785385891914656379e-05
2.419047619047618891e+00,-1.292474363118896170e-05,1.630389542701441260e-05
2.419841269841269682e+00,-2.114520897630186132e-05,2.752726490283233503e-06
2.420634920634920473e+00,-2.634042193050590988e-05,-1.105663605147773649e-05
2.421428571428571264e+00,-2.797823637557731349e-05,-2.314065888021149748e-05
2.422222222222222054e+00,-2.618706932674402048e-05,-3.158977383671386993e-05
2.423015873015872845e+00,-2.167785783316398244e-05,-3.493160162010178774e-05
2.423809523809523636e+00,-1.554693810728751985e-05,-3.246501935096304017e-05
2.424603174603174427e+00,-9.011694586605197520e-06,-2.448488730880094599e-05
2.425396825396825218e+00,-3.147527818370769873e-06,-1.233212463720905150e-05
2.426190476190476009e+00,1.309432144294559984e-06,1.768196354181744022e-06
2.426984126984126799e+00,4.052901043314988107e-06,1.507695037533160313e-05
2.427777777777777590e+00,5.182184327332246681e-06,2.486560605823124608e-05
2.428571428571428381e+00,5.086339179779225249e-06,2.899602242989411508e-05
2.429365079365079172e+00,4.282178205202341647e-06,2.642646105727333058e-05
2.430158730158729963e+00,3.259089511213582768e-06,1.750910449296682499e-05
2.430952380952380754e+00,2.373921554119924927e-06,3.972094929468286586e-06
2.431746031746031544e+00,1.815546032867135084e-06,-1.144972883181578666e-05
2.432539682539682335e+00,1.631539523661910588e-06,-2.566315996050072841e-05
2.433333333333333126e+00,1.790827216110007890e-06,-3.596387475782153844e-05
2.434126984126983917e+00,2.251749898607764275e-06,-4.065256542931394858e-05
2.434920634920634708e+00,3.011377363774032498e-06,-3.933744727477742276e-05
2.435714285714285499e+00,4.122276492859041510e-06,-3.286677959519058149e-05
2.436507936507936289e+00,5.673764630583058112e-06,-2.296946597234669299e-05
2.437301587301587080e+00,7.744966028459720751e-06,-1.175693956232458491e-05
2.438095238095238315e+00,1.034473859911706607e-05,-1.236710698132162344e-06
2.438888888888889106e+00,1.335628351819666078e-05,7.063421970063166498e-06
2.439682539682539897e+00,1.650267485812951520e-05,1.231660752884844002e-05
2.440476190476190688e+00,1.934701329545615610e-05,1.445259942845362548e-05
2.441269841269841478e+00,2.133796413881680385e-05,1.405412772692565606e-05
2.442063492063492269e+00,2.190361109082124928e-05,1.212359553967223274e-05
2.442857142857143060e+00,2.058050886358718209e-05,9.783493458885450335e-06
2.443650793650793851e+00,1.714573178979908582e-05,7.997035998707763130e-06
2.444444444444444642e+00,1.171001932255491512e-05,7.384576205504108660e-06
2.445238095238095433e+00,4.739311779916377145e-06,8.166523191865939174e-06
2.446031746031746223e+00,-3.003131383029903770e-06,1.021005657422940035e-05
2.446825396825397014e+00,-1.057586370844373928e-05,1.312510006396134072e-05
2.447619047619047805e+00,-1.700811178114033061e-05,1.635847703475330756e-05
2.448412698412698596e+00,-2.144831995424222376e-05,1.926487168056631750e-05
2.449206349206349387e+00,-2.329113263838992706e-05,2.116685067494901418e-05
2.450000000000000178e+00,-2.226951407047936092e-05,2.143272828114116079e-05
2.450793650793650968e+00,-1.850255838012560472e-05,1.959099100283452258e-05
2.451587301587301759e+00,-1.249057511490098517e-05,1.546910071892392756e-05
2.452380952380952550e+00,-5.050991266869209839e-06,9.311452810921904140e-06
2.453174603174603341e+00,2.804278330054912662e-06,1.818616841190435285e-06
2.453968253968254132e+00,1.003556720754681170e-05,-5.930380494478504768e-06
2.454761904761904923e+00,1.575528281983851962e-05,-1.266883066447100114e-05
2.455555555555555713e+00,1.937821283093037970e-05,-1.720315095721559081e-05
2.456349206349206504e+00,2.070094998383445115e-05,-1.868319854805944004e-05
2.457142857142857295e+00,1.988734428182670517e-05,-1.682239538444297225e-05
2.457936507936508086e+00,1.736831480594660721e-05,-1.201413669738920265e-05
2.458730158730158877e+00,1.369481282803444808e-05,-5.300967312852909400e-06
2.459523809523809668e+00,9.395941146198555615e-06,1.822677179377546563e-06
2.460317460317460458e+00,4.885186138104312688e-06,7.749903857692646821e-06
2.461111111111111249e+00,4.347950228527199765e-07,1.116830098356293994e-05
2.461904761904762040e+00,-3.787079601458397432e-06,1.142551108552494316e-05
2.462698412698412831e+00,-7.642715566497168143e-06,8.744846406133182905e-06
2.463492063492063622e+00,-1.095277918907124583e-05,4.219123943224543465e-06
2.464285714285714413e+00,-1.346278818841518084e-05,-4.299477243086554817e-07
2.465079365079365203e+00,-1.486941113380622198e-05,-3.278728038836233603e-06
2.465873015873015994e+00,-1.490334740760710982e-05,-2.719947770417086922e-06
2.466666666666666785e+00,-1.344174444852285043e-05,2.049746238290728660e-06
2.467460317460317576e+00,-1.060913923968313073e-05,1.069943664826837006e-05
2.468253968253968367e+00,-6.826274620288645982e-06,2.169384647957191948e-05
2.469047619047619158e+00,-2.780391588266835781e-06,3.253384725915254780e-05
2.469841269841269948e+00,6.856499314463643567e-07,4.028315483524435773e-05
2.470634920634920739e+00,2.741777175198101155e-06,4.227609193148128036e-05
2.471428571428571530e+00,2.752569192523245462e-06,3.683646306095394530e-05
2.472222222222222321e+00,4.223265703533873823e-07,2.381164378128370045e-05
2.473015873015873112e+00,-4.134560597772834854e-06,4.754613960542128193e-06
2.473809523809523903e+00,-1.040970980104463601e-05,-1.733055924480825715e-05
2.474603174603174693e+00,-1.758811107435695529e-05,-3.864648012236973385e-05
2.475396825396825484e+00,-2.467661292327136708e-05,-5.550718700430589590e-05
2.476190476190476275e+00,-3.064443801862001848e-05,-6.523743709344464873e-05
2.476984126984127066e+00,-3.455748406309459516e-05,-6.678313705954878334e-05
2.477777777777777857e+00,-3.569823872436041857e-05,-6.082626869886810419e-05
2.478571428571428648e+00,-3.366504085386646329e-05,-4.938331244681647787e-05
2.479365079365079438e+00,-2.843867781023890300e-05,-3.507929760322065253e-05
2.480158730158730229e+00,-2.039939608087939390e-05,-2.040743048241567452e-05
2.480952380952381020e+00,-1.028285163201161127e-05,-7.242334745977826092e-06
2.481746031746031811e+00,9.205724447398910239e-07,3.286598129602081499e-06
2.482539682539682602e+00,1.210325765489133673e-05,1.063666203658036674e-05
2.483333333333333393e+00,2.219004237059430320e-05,1.459365523326750767e-05
2.484126984126984183e+00,3.027983152716322228e-05,1.509692708889053597e-05
2.484920634920634974e+00,3.576314812960542722e-05,1.223374975215661758e-05
2.485714285714285765e+00,3.839931139635678929e-05,6.367054384928758189e-06
2.486507936507936556e+00,3.833654604123775886e-05,-1.716006362750006127e-06
2.487301587301587347e+00,3.606480416570845542e-05,-1.075169732839371908e-05
2.488095238095238138e+00,3.230533204681365909e-05,-1.911095919195520451e-05
2.488888888888888928e+00,2.785799326409007438e-05,-2.507074758406829476e-05
2.489682539682539719e+00,2.344076160542141123e-05,-2.717748621889678006e-05
2.490476190476190510e+00,1.956022904135114782e-05,-2.459607799484926009e-05
2.491269841269841301e+00,1.644405714559708592e-05,-1.733530462405068784e-05
2.492063492063492092e+00,1.404754115588303362e-05,-6.274385414571443410e-06
2.492857142857142883e+00,1.212413316320613204e-05,7.024174756344943082e-06
2.493650793650793673e+00,1.033282566279980547e-05,2.066464750736577335e-05
2.494444444444444464e+00,8.349095516475026735e-06,3.283168865962330941e-05
2.495238095238095255e+00,5.950943023039569101e-06,4.214851332949906939e-05
2.496031746031746046e+00,3.064245848261647319e-06,4.787603377474960580e-05
2.496825396825396837e+00,-2.331938675281090391e-07,4.990545815831033276e-05
2.497619047619047628e+00,-3.738530178856542020e-06,4.857975946270835587e-05
2.498412698412698418e+00,-7.168961585384681898e-06,4.444372321518213267e-05
2.499206349206349209e+00,-1.021642062975117879e-05,3.802835827769650772e-05
2.500000000000000000e+00,-1.260616647440843573e-05,2.973332648941649737e-05
2.500793650793650791e+00,-1.415099726463313420e-05,1.982332999270588334e-05
2.501587301587301582e+00,-1.478912664895732309e-05,8.524073199938233964e-06
2.502380952380952372e+00,-1.459540779743184647e-05,-3.818256603521869445e-06
2.503174603174603163e+00,-1.376226271326431164e-05,-1.657245376286790376e-05
2.503968253968253954e+00,-1.255367755792281993e-05,-2.872640098112875579e-05
2.504761904761904745e+00,-1.124127420598706674e-05,-3.892787641565244165e-05
2.505555555555555536e+00,-1.003715684790344541e-05,-4.569534932081920748e-05
2.506349206349206327e+00,-9.042772157452766809e-06,-4.776874095286665620e-05
2.507142857142857117e+00,-8.231629647712837268e-06,-4.449812831959510246e-05
2.507936507936507908e+00,-7.473476209880168124e-06,-3.612937192854826142e-05
2.508730158730158699e+00,-6.591867636829968052e-06,-2.387270749118728608e-05
2.509523809523809490e+00,-5.434179993482568382e-06,-9.720763541219749093e-06
2.510317460317460281e+00,-3.929774929736798441e-06,3.934309684223922207e-06
2.511111111111111072e+00,-2.118857843686539070e-06,1.478919044265971802e-05
2.511904761904761862e+00,-1.463462242871652102e-07,2.111844142513876510e-05
2.512698412698412653e+00,1.773930435406834418e-06,2.216162425792862756e-05
2.513492063492063444e+00,3.411572116633101801e-06,1.831010022712966159e-05
2.514285714285714235e+00,4.571481056428556402e-06,1.102052337721945372e-05
2.515079365079365026e+00,5.129805490427957262e-06,2.448347326447572492e-06
2.515873015873015817e+00,5.046146838505287899e-06,-5.111148324015238579e-06
2.516666666666666607e+00,4.354888988547704086e-06,-9.811031717946568981e-06
2.517460317460317398e+00,3.146146022897168947e-06,-1.069388436059033562e-05
2.518253968253968189e+00,1.546995292474647026e-06,-7.866069822573499713e-06
2.519047619047618980e+00,-2.924923841294463935e-07,-2.376663217472103472e-06
2.519841269841269771e+00,-2.210634988452161783e-06,4.143481290966860909e-06
2.520634920634920562e+00,-4.047306085794890587e-06,9.971338615297392139e-06
2.521428571428571352e+00,-5.660238549860908622e-06,1.377214022081002992e-05
2.522222222222222143e+00,-6.940735307877473360e-06,1.493703902087159772e-05
2.523015873015872934e+00,-7.821921217457995597e-06,1.368641204910073925e-05
2.523809523809523725e+00,-8.274203074621372619e-06,1.092219945947386163e-05
2.524603174603174516e+00,-8.288724031054558637e-06,7.896009776538167647e-06
2.525396825396825307e+00,-7.857009487878691348e-06,5.817036324317924083e-06
2.526190476190476097e+00,-6.959097748283007984e-06,5.529076612439624924e-06
2.526984126984126888e+00,-5.570209697927612429e-06,7.337918085644287922e-06
2.527777777777777679e+00,-3.687624088997387001e-06,1.099786694989188551e-05
2.528571428571428470e+00,-1.368446239342842955e-06,1.581120802233188869e-05
2.529365079365079261e+00,1.239089345748348652e-06,2.078280542699982274e-05
2.530158730158730052e+00,3.888939723264787941e-06,2.479681968238257804e-05
2.530952380952380842e+00,6.266047644595580470e-06,2.681150047230873153e-05
2.531746031746031633e+00,8.048135244289850884e-06,2.607074947541729090e-05
2.532539682539682424e+00,8.983129373442013291e-06,2.230443944876873090e-05
2.533333333333333215e+00,8.955353066901168148e-06,1.585850829744695536e-05
2.534126984126984006e+00,8.016032149138686862e-06,7.689955685155673787e-06
2.534920634920634797e+00,6.368199429600292053e-06,-8.074542243543069639e-07
2.535714285714285587e+00,4.314597995710320753e-06,-8.122316677067674092e-06
2.536507936507936378e+00,2.188800203369577952e-06,-1.300198525765508213e-05
2.537301587301587169e+00,2.896950936655532209e-07,-1.476486342445100033e-05
2.538095238095237960e+00,-1.167475864330342162e-06,-1.344872056809836567e-05
2.538888888888888751e+00,-2.076564961744216704e-06,-9.765029266042872324e-06
2.539682539682539542e+00,-2.439469782217853032e-06,-4.905954955233462068e-06
2.540476190476190332e+00,-2.341272544542309738e-06,-2.898646386341948152e-07
2.541269841269841123e+00,-1.911907620562979569e-06,2.680202950594634585e-06
2.542063492063491914e+00,-1.288739899915939543e-06,2.811981206374709739e-06
2.542857142857142705e+00,-5.907527702169079941e-07,-7.202180392521369394e-07
2.543650793650793496e+00,9.342793421126405267e-08,-8.237090270466538067e-06
2.544444444444444287e+00,7.079926071479848179e-07,-1.942767116913849778e-05
2.545238095238095077e+00,1.227965900643243497e-06,-3.327049763052230451e-05
2.546031746031745868e+00,1.654680508280933969e-06,-4.807490191672721678e-05
2.546825396825396659e+00,2.008210516091494937e-06,-6.170343690975360379e-05
2.547619047619047450e+00,2.316953464928030232e-06,-7.196354036162044138e-05
2.548412698412698241e+00,2.606332589529350581e-06,-7.706164098756155807e-05
2.549206349206349032e+00,2.888944823547026218e-06,-7.596276302294387552e-05
2.549999999999999822e+00,3.157967975264727509e-06,-6.853182844988625925e-05
2.550793650793650613e+00,3.386055338805045157e-06,-5.543032695441078676e-05
2.551587301587301404e+00,3.532456841174898424e-06,-3.784553093436313255e-05
2.552380952380952195e+00,3.558939689118934233e-06,-1.718411619088808779e-05
2.553174603174602986e+00,3.449745569510304109e-06,5.151232782239244063e-06
2.553968253968253777e+00,3.225689543078269826e-06,2.784625606220928550e-05
2.554761904761904567e+00,2.942044813676770631e-06,4.963974955650498228e-05
2.555555555555555358e+00,2.666126649375200211e-06,6.924091065878235866e-05
2.556349206349206149e+00,2.441540460197540006e-06,8.528466211401719706e-05
2.557142857142856940e+00,2.256039840440645358e-06,9.638417072360385080e-05
2.557936507936507731e+00,2.031525086660660390e-06,1.012932166455580410e-04
2.558730158730158522e+00,1.644773728640193537e-06,9.914708807712200288e-05
2.559523809523809312e+00,9.716462944370964749e-07,8.972413159757633872e-05
2.560317460317460103e+00,-6.341653833034983380e-08,7.366115805525963380e-05
2.561111111111110894e+00,-1.450563511709343312e-06,5.255645845607205872e-05
2.561904761904761685e+00,-3.080431084430670379e-06,2.890071377054689348e-05
2.562698412698412920e+00,-4.755088160830784996e-06,5.794657631740783587e-06
2.563492063492063711e+00,-6.222195886321340600e-06,-1.354694249083978618e-05
2.564285714285714501e+00,-7.227217887027249266e-06,-2.643792681064174966e-05
2.565079365079365292e+00,-7.572956432828485141e-06,-3.136328352328250635e-05
2.565873015873016083e+00,-7.170205441623529878e-06,-2.842604869704273469e-05
2.566666666666666874e+00,-6.063615832421884768e-06,-1.943254179322270207e-05
2.567460317460317665e+00,-4.424932086145450282e-06,-7.559450235824797700e-06
2.568253968253968456e+00,-2.516789944363793168e-06,3.322070916361302204e-06
2.569047619047619246e+00,-6.378018512856424837e-07,9.503281001775927217e-06
2.569841269841270037e+00,9.382254849852154481e-07,8.291638959153891408e-06
2.570634920634920828e+00,2.016832863817021509e-06,-1.307817667855826871e-06
2.571428571428571619e+00,2.520175351687344449e-06,-1.823398289236615670e-05
2.572222222222222410e+00,2.497733875667801187e-06,-3.946100869780065211e-05
2.573015873015873201e+00,2.105482464128822616e-06,-6.060344320718289091e-05
2.573809523809523991e+00,1.555920900887769099e-06,-7.696765093818049735e-05
2.574603174603174782e+00,1.050294672381922786e-06,-8.480592795371213349e-05
2.575396825396825573e+00,7.119068663670178280e-07,-8.239476689927792549e-05
2.576190476190476364e+00,5.423587381517264926e-07,-7.055988911120657453e-05
2.576984126984127155e+00,4.180428244942712302e-07,-5.243694298501672271e-05
2.577777777777777946e+00,1.322076938951313556e-07,-3.252205141931361558e-05
2.578571428571428736e+00,-5.276169378970208766e-07,-1.531422665048234096e-05
2.579365079365079527e+00,-1.690025317444435388e-06,-3.986412672774093965e-06
2.580158730158730318e+00,-3.326707578813867389e-06,4.941142098501087791e-07
2.580952380952381109e+00,-5.221068703835360356e-06,-4.727352230166944032e-07
2.581746031746031900e+00,-6.992087892253459424e-06,-3.706064821307423990e-06
2.582539682539682691e+00,-8.171037756229417547e-06,-5.356886760681578349e-06
2.583333333333333481e+00,-8.312523690739584908e-06,-2.157559676974126159e-06
2.584126984126984272e+00,-7.110236760406592398e-06,7.598881715707157369e-06
2.584920634920635063e+00,-4.486800474325348526e-06,2.362221744312798205e-05
2.585714285714285854e+00,-6.366019150203315778e-07,4.379545903021031663e-05
2.586507936507936645e+00,3.985415415665898875e-06,6.482456899741922398e-05
2.587301587301587436e+00,8.724747061851844957e-06,8.311995439797101488e-05
2.588095238095238226e+00,1.282782203922527713e-05,9.562849026635453177e-05
2.588888888888889017e+00,1.556813871570261130e-05,1.003836256923677946e-04
2.589682539682539808e+00,1.637979503338775681e-05,9.666036295031880628e-05
2.590476190476190599e+00,1.497475525547508741e-05,8.477959216808527430e-05
2.591269841269841390e+00,1.141711812612877297e-05,6.574127967985596819e-05
2.592063492063492181e+00,6.131877188058445641e-06,4.090964194039931984e-05
2.592857142857142971e+00,-1.600784057768130416e-07,1.189932573727674368e-05
2.593650793650793762e+00,-6.568143334225909320e-06,-1.933521196921074569e-05
2.594444444444444553e+00,-1.218852355348240353e-05,-5.033967465699420464e-05
2.595238095238095344e+00,-1.625317763633601825e-05,-7.811928171263117070e-05
2.596031746031746135e+00,-1.823952418116512057e-05,-9.937006549017752286e-05
2.596825396825396925e+00,-1.792501188641542099e-05,-1.110216963680772494e-04
2.597619047619047716e+00,-1.538885173772620190e-05,-1.109835126745127240e-04
2.598412698412698507e+00,-1.097609260199922739e-05,-9.885801138909839898e-05
2.599206349206349298e+00,-5.241317779029363583e-06,-7.633929071894703263e-05
2.600000000000000089e+00,1.118515363801527056e-06,-4.708542982447075511e-05
2.600793650793650880e+00,7.342252377098283276e-06,-1.602875765869445700e-05
2.601587301587301670e+00,1.269616155101839042e-05,1.170494270420607237e-05
2.602380952380952461e+00,1.657346437325331288e-05,3.195222463005827610e-05
2.603174603174603252e+00,1.858447886000190040e-05,4.240577502855840503e-05
2.603968253968254043e+00,1.861438014677959960e-05,4.300791345634502534e-05
2.604761904761904834e+00,1.683102080347493524e-05,3.576821460062585108e-05
2.605555555555555625e+00,1.363921854811193429e-05,2.409327857440721933e-05
2.606349206349206415e+00,9.593503320201061802e-06,1.183855082529098912e-05
2.607142857142857206e+00,5.292317616394392602e-06,2.350435317384984179e-06
2.607936507936507997e+00,1.280013755673444187e-06,-2.249129404813137791e-06
2.608730158730158788e+00,-2.021981798041087148e-06,-1.373238816221277643e-06
2.609523809523809579e+00,-4.345630801494512846e-06,4.149063214124773435e-06
2.610317460317460370e+00,-5.574035130541503582e-06,1.251415192159140005e-05
2.611111111111111160e+00,-5.722133342878840577e-06,2.152560494913671139e-05
2.611904761904761951e+00,-4.915634889713751286e-06,2.913568606882948524e-05
2.612698412698412742e+00,-3.374288064231946354e-06,3.382402830394739526e-05
2.613492063492063533e+00,-1.394761298491989532e-06,3.477209424218820946e-05
2.614285714285714324e+00,6.764001533763260655e-07,3.186282148192481640e-05
2.615079365079365115e+00,2.484932471303164389e-06,2.557250668454095468e-05
2.615873015873015905e+00,3.721420758000932349e-06,1.682115218199412197e-05
2.616666666666666696e+00,4.171749626314448736e-06,6.820463700674501863e-06
2.617460317460317487e+00,3.752025528289326224e-06,-3.074616190302460466e-06
2.618253968253968278e+00,2.519472584295857012e-06,-1.152627749842879135e-05
2.619047619047619069e+00,6.578192053115081966e-07,-1.739890161272697100e-05
2.619841269841269860e+00,-1.557726802087230582e-06,-1.995527779626643983e-05
2.620634920634920650e+00,-3.806432456643541845e-06,-1.901776153199214044e-05
2.621428571428571441e+00,-5.768998522990682629e-06,-1.503432780164121383e-05
2.622222222222222232e+00,-7.169189096643677435e-06,-9.007676989558622066e-06
2.623015873015873023e+00,-7.808659869880966244e-06,-2.287184281689413180e-06
2.623809523809523814e+00,-7.595692202838959298e-06,3.731700925852698391e-06
2.624603174603174605e+00,-6.566251751116681459e-06,7.924278727614769000e-06
2.625396825396825395e+00,-4.891487769393133066e-06,9.682462747153387198e-06
2.626190476190476186e+00,-2.864187508003508873e-06,9.017102138813423901e-06
2.626984126984126977e+00,-8.602339238349875670e-07,6.486250997622892002e-06
2.627777777777777768e+00,7.219292684721014346e-07,2.978113171958911539e-06
2.628571428571428559e+00,1.533974018382381835e-06,-5.721400734297560228e-07
2.629365079365079350e+00,1.348363745971867992e-06,-3.435764375216732693e-06
2.630158730158730140e+00,1.117469998479709810e-07,-5.239790091566757318e-06
2.630952380952380931e+00,-2.032383873158321111e-06,-5.982676170546173698e-06
2.631746031746031722e+00,-4.760176406515339860e-06,-5.933400116703470831e-06
2.632539682539682513e+00,-7.623008944929428871e-06,-5.464811095437812568e-06
2.633333333333333304e+00,-1.013193096540889067e-05,-4.885390417576431461e-06
2.634126984126984095e+00,-1.185230132093551965e-05,-4.325983184169829839e-06
2.634920634920634885e+00,-1.248686854349900041e-05,-3.714363885587284504e-06
2.635714285714285676e+00,-1.192885367744856222e-05,-2.839264812629103559e-06
2.636507936507936467e+00,-1.027479005347432796e-05,-1.476706720926676285e-06
2.637301587301587258e+00,-7.796890938320375601e-06,4.668181929179641744e-07
2.638095238095238049e+00,-4.883515683523532590e-06,2.843865599912547807e-06
2.638888888888888840e+00,-1.961918206972450983e-06,5.228606678495742218e-06
2.639682539682539630e+00,5.807273690506660942e-07,6.973725778485532787e-06
2.640476190476190421e+00,2.463554416579872230e-06,7.357782160618237244e-06
2.641269841269841212e+00,3.554771768386272344e-06,5.791928391804643763e-06
2.642063492063492003e+00,3.884933285310093890e-06,2.031590383584000956e-06
2.642857142857142794e+00,3.629274350117367475e-06,-3.671902633139611431e-06
2.643650793650793585e+00,3.062056085984304930e-06,-1.053449147037742377e-05
2.644444444444444375e+00,2.490416061361549701e-06,-1.734005965126482365e-05
2.645238095238095166e+00,2.179769052056135671e-06,-2.265900484116962121e-05
2.646031746031745957e+00,2.285952243145584094e-06,-2.513160009944472248e-05
2.646825396825396748e+00,2.809690051965390113e-06,-2.375073097776408165e-05
2.647619047619047539e+00,3.586420791945336852e-06,-1.808584924922276792e-05
2.648412698412698330e+00,4.319281773846446100e-06,-8.407828356231963513e-06
2.649206349206349120e+00,4.654472984984759988e-06,4.304783933700179362e-06
2.649999999999999911e+00,4.286394049051221843e-06,1.847826477669535210e-05
2.650793650793650702e+00,3.067909917409036198e-06,3.215844390165667011e-05
2.651587301587301493e+00,1.093933149592854126e-06,4.329582792920738134e-05
2.652380952380952284e+00,-1.271780237807016394e-06,5.005586963141420343e-05
2.653174603174603075e+00,-3.445037393657082907e-06,5.110277682407135693e-05
2.653968253968253865e+00,-4.743625727206804402e-06,4.581104355782238021e-05
2.654761904761904656e+00,-4.560283030924005209e-06,3.437535068626933237e-05
2.655555555555555447e+00,-2.544964946869801922e-06,1.780970068613305879e-05
2.656349206349206238e+00,1.252581221748921378e-06,-2.155569592642734080e-06
2.657142857142857029e+00,6.324396690689589451e-06,-2.325825072810196978e-05
2.657936507936507819e+00,1.175754206108427606e-05,-4.294532204689450577e-05
2.658730158730158610e+00,1.639886808506577293e-05,-5.864860635277684495e-05
2.659523809523809401e+00,1.909950285958739632e-05,-6.807810389090843009e-05
2.660317460317460192e+00,1.898236040871963167e-05,-6.951766465404053740e-05
2.661111111111110983e+00,1.566732787498947171e-05,-6.210238340465255901e-05
2.661904761904761774e+00,9.398782290155243815e-06,-4.604454743689011210e-05
2.662698412698412564e+00,1.044145361240675514e-06,-2.276055059304609644e-05
2.663492063492063355e+00,-8.037874274522536540e-06,5.152721954995873193e-06
2.664285714285714146e+00,-1.623311071305774548e-05,3.412806185059968380e-05
2.665079365079364937e+00,-2.196617506749849174e-05,6.003111324442265040e-05
2.665873015873015728e+00,-2.399847429460593264e-05,7.873051530104677382e-05
2.666666666666666519e+00,-2.167603399903035412e-05,8.677443754157211251e-05
2.667460317460317309e+00,-1.508097509759445523e-05,8.207050249758018597e-05
2.668253968253968100e+00,-5.053996082687275116e-06,6.442418207136992178e-05
2.669047619047618891e+00,6.925300373197949036e-06,3.577899008836204689e-05
2.669841269841269682e+00,1.898776177600588176e-05,4.752112195521405771e-08
2.670634920634920473e+00,2.921254212168267303e-05,-3.747919639101540706e-05
2.671428571428571264e+00,3.598796623052163138e-05,-7.104241858575885697e-05
2.672222222222222054e+00,3.831937744308055776e-05,-9.545620282169921646e-05
2.673015873015872845e+00,3.601728784124135201e-05,-1.070504127457621966e-04
2.673809523809523636e+00,2.972682115066566243e-05,-1.043137956000000270e-04
2.674603174603174427e+00,2.079634832807979498e-05,-8.811244299675070489e-05
2.675396825396825218e+00,1.101692142257683147e-05,-6.145937910696414627e-05
2.676190476190476009e+00,2.284997017833660221e-06,-2.890237831857866236e-05
2.676984126984126799e+00,-3.752448432956729846e-06,4.334201523487020716e-06
2.677777777777777590e+00,-6.013141425721373808e-06,3.327487608416755980e-05
2.678571428571428381e+00,-4.203228039061189248e-06,5.399936898063813998e-05
2.679365079365079172e+00,1.091676093113657271e-06,6.418167670464411704e-05
2.680158730158729963e+00,8.470812409842791725e-06,6.329140766093318258e-05
2.680952380952380754e+00,1.593809469290810883e-05,5.247559166799197963e-05
2.681746031746031544e+00,2.125583796033202199e-05,3.420457701263917986e-05
2.682539682539682335e+00,2.238883257778582101e-05,1.178895242735348932e-05
2.683333333333333126e+00,1.796927141175513814e-05,-1.113925535520202684e-05
2.684126984126983917e+00,7.686890766572489881e-06,-3.111825081712155057e-05
2.684920634920634708e+00,-7.504063376697806064e-06,-4.528469318271534507e-05
2.685714285714285499e+00,-2.545152532302455615e-05,-5.171299265736123939e-05
2.686507936507936289e+00,-4.317880842276791594e-05,-4.963649451811367742e-05
2.687301587301587080e+00,-5.750983409201210065e-05,-3.951755596229302955e-05
2.688095238095238315e+00,-6.580333080475063738e-05,-2.294559862762651507e-05
2.688888888888889106e+00,-6.659777080724257762e-05,-2.371554462594125496e-06
2.689682539682539897e+00,-5.997486551219394354e-05,1.927991021115738098e-05
2.690476190476190688e+00,-4.752590282496281662e-05,3.905631999478274000e-05
2.691269841269841478e+00,-3.193062820445186491e-05,5.440992178614452565e-05
2.692063492063492269e+00,-1.628209466690696758e-05,6.355161317674920508e-05
2.692857142857143060e+00,-3.359930803433995375e-06,6.567737294038453557e-05
2.693650793650793851e+00,4.952755042507569679e-06,6.103941961740493331e-05
2.694444444444444642e+00,7.979082115322511183e-06,5.085640005347580203e-05
2.695238095238095433e+00,6.243198030296668685e-06,3.707983207599277161e-05
2.696031746031746223e+00,1.191183487201886332e-06,2.205711113399767411e-05
2.696825396825397014e+00,-5.260363914538877946e-06,8.147440775655605529e-06
2.697619047619047805e+00,-1.121759580533708682e-05,-2.651576313465815708e-06
2.698412698412698596e+00,-1.522054959150899079e-05,-9.017339374685470667e-06
2.699206349206349387e+00,-1.648470741623629733e-05,-1.051142395368747886e-05
2.700000000000000178e+00,-1.493976322890775304e-05,-7.642015328767634165e-06
2.700793650793650968e+00,-1.108991547501386236e-05,-1.750978987732046482e-06
2.701587301587301759e+00,-5.765767241605985995e-06,5.268570936652650183e-06
2.702380952380952550e+00,1.422739474311986790e-07,1.137384427776403626e-05
2.703174603174603341e+00,5.891564753797799997e-06,1.480429422587147280e-05
2.703968253968254132e+00,1.099484635001347964e-05,1.443583874402666869e-05
2.704761904761904923e+00,1.522956756811097650e-05,9.964582786065296377e-06
2.705555555555555713e+00,1.858115722193445671e-05,1.885900075800238798e-06
2.706349206349206504e+00,2.116229580720661881e-05,-8.684350913430583636e-06
2.707142857142857295e+00,2.314125225361715515e-05,-2.024826425575713840e-05
2.707936507936508086e+00,2.469310471920833011e-05,-3.114325138630985660e-05
2.708730158730158877e+00,2.596864802029559923e-05,-3.972427636284725375e-05
2.709523809523809668e+00,2.706699759894717021e-05,-4.454617533334371312e-05
2.710317460317460458e+00,2.800409141004715270e-05,-4.456931663919012779e-05
2.711111111111111249e+00,2.868478809639659545e-05,-3.936110202721856732e-05
2.711904761904762040e+00,2.889807784689885932e-05,-2.923073810220170975e-05
2.712698412698412831e+00,2.835322089849782166e-05,-1.524160435813690322e-05
2.713492063492063622e+00,2.675929986353382705e-05,9.203999777558060486e-07
2.714285714285714413e+00,2.392906846793811039e-05,1.720497459951627028e-05
2.715079365079365203e+00,1.987015612646025845e-05,3.152655629415801220e-05
2.715873015873015994e+00,1.482340213500273342e-05,4.207938536189371673e-05
2.716666666666666785e+00,9.226265919407871573e-06,4.755510188431945703e-05
2.717460317460317576e+00,3.613063939055798643e-06,4.722809424747836119e-05
2.718253968253968367e+00,-1.505995794027356466e-06,4.094522746714021144e-05
2.719047619047619158e+00,-5.737180754226862695e-06,2.909771173647099130e-05
2.719841269841269948e+00,-8.836092509295823526e-06,1.262963648612366571e-05
2.720634920634920739e+00,-1.068441964932389286e-05,-6.931965156610058643e-06
2.721428571428571530e+00,-1.124501233678814952e-05,-2.750162743287840855e-05
2.722222222222222321e+00,-1.054024767373580813e-05,-4.659653074929548470e-05
2.723015873015873112e+00,-8.680783421171005645e-06,-6.166201371382748454e-05
2.723809523809523903e+00,-5.933236527688146769e-06,-7.050797549590967061e-05
2.724603174603174693e+00,-2.778318153517794030e-06,-7.173859426976888891e-05
2.725396825396825484e+00,1.002824052950994341e-07,-6.504358419157726826e-05
2.726190476190476275e+00,1.930726973599361264e-06,-5.126163941318002617e-05
2.726984126984127066e+00,2.054367991727407976e-06,-3.220490063152570934e-05
2.727777777777777857e+00,1.454813004665675656e-07,-1.030885139902854086e-05
2.728571428571428648e+00,-3.638886921962361879e-06,1.178931379979834604e-05
2.729365079365079438e+00,-8.643828054969853207e-06,3.164771000757083395e-05
2.730158730158730229e+00,-1.384824751637472465e-05,4.732955746787156128e-05
2.730952380952381020e+00,-1.810224344377945859e-05,5.759735791995587126e-05
2.731746031746031811e+00,-2.039873021509322959e-05,6.198521981551126262e-05
2.732539682539682602e+00,-2.010618031195705334e-05,6.075660306643516765e-05
2.733333333333333393e+00,-1.710931540042237784e-05,5.476778835712637836e-05
2.734126984126984183e+00,-1.183426007204615941e-05,4.526928872478793011e-05
2.734920634920634974e+00,-5.163252404091811496e-06,3.367921996564821535e-05
2.735714285714285765e+00,1.735757579462334014e-06,2.135498060309742291e-05
2.736507936507936556e+00,7.629875952744537309e-06,9.390079540962774916e-06
2.737301587301587347e+00,1.145602740695903673e-05,-1.518804625751003250e-06
2.738095238095238138e+00,1.253348325065152287e-05,-1.107772427797935868e-05
2.738888888888888928e+00,1.071694782303061959e-05,-1.925083034706404973e-05
2.739682539682539719e+00,6.454423085879499061e-06,-2.602029794339119918e-05
2.740476190476190510e+00,7.243556963889638957e-07,-3.117298655513485271e-05
2.741269841269841301e+00,-5.150973643361471840e-06,-3.422948310371453756e-05
2.742063492063492092e+00,-9.787595380840420026e-06,-3.455226067237819767e-05
2.742857142857142883e+00,-1.205879173497563239e-05,-3.158170053415409730e-05
2.743650793650793673e+00,-1.137377758413999533e-05,-2.510701117756233979e-05
2.744444444444444464e+00,-7.841026678102960642e-06,-1.548468989634401813e-05
2.745238095238095255e+00,-2.265663688344415201e-06,-3.740882144563077929e-06
2.746031746031746046e+00,4.026715625826890669e-06,8.482053763524427485e-06
2.746825396825396837e+00,9.497864406099666129e-06,1.914865376318565716e-05
2.747619047619047628e+00,1.275591178532218508e-05,2.620279881977071457e-05
2.748412698412698418e+00,1.287274145072406814e-05,2.802677403771152256e-05
2.749206349206349209e+00,9.583497439204400427e-06,2.388377610490544821e-05
2.750000000000000000e+00,3.328177482077847846e-06,1.421918849957463991e-05
2.750793650793650791e+00,-4.862814544784208174e-06,7.088408833088868300e-07
2.751587301587301582e+00,-1.360057584795728192e-05,-1.400412461318508995e-05
2.752380952380952372e+00,-2.142411893794995335e-05,-2.685563465998079517e-05
2.753174603174603163e+00,-2.707141034853190997e-05,-3.506546457413513350e-05
2.753968253968253954e+00,-2.967799244326442090e-05,-3.680686291599926188e-05
2.754761904761904745e+00,-2.887481610933663627e-05,-3.164608201051964697e-05
2.755555555555555536e+00,-2.478960577227144524e-05,-2.063212244940033891e-05
2.756349206349206327e+00,-1.797826763020447628e-05,-6.031106850915466241e-06
2.757142857142857117e+00,-9.316736722813443114e-06,9.204257033520881645e-06
2.757936507936507908e+00,1.266720236254140443e-07,2.209194200075436339e-05
2.758730158730158699e+00,9.230567195989292857e-06,3.025962355960298619e-05
2.759523809523809490e+00,1.696647571366435969e-05,3.243527672924483561e-05
2.760317460317460281e+00,2.253833293363666023e-05,2.868733449193173332e-05
2.761111111111111072e+00,2.549147174614241462e-05,2.035729425980331708e-05
2.761904761904761862e+00,2.576481947435667490e-05,9.692347289805921626e-06
2.762698412698412653e+00,2.367098200436919749e-05,-7.370993024095016901e-07
2.763492063492063444e+00,1.980904574821514545e-05,-8.682101716788033860e-06
2.764285714285714235e+00,1.493459134470829579e-05,-1.274267738197357966e-05
2.765079365079365026e+00,9.821020833215028786e-06,-1.263622085518625511e-05
2.765873015873015817e+00,5.142283602004185510e-06,-9.154464989053716424e-06
2.766666666666666607e+00,1.394019360932602379e-06,-3.855386414916174152e-06
2.767460317460317398e+00,-1.143639289971490096e-06,1.396588347732844938e-06
2.768253968253968189e+00,-2.407164225994930131e-06,4.909189538724115232e-06
2.769047619047618980e+00,-2.523173669474052500e-06,5.547689137581927021e-06
2.769841269841269771e+00,-1.762291624449163309e-06,2.957573235829598325e-06
2.770634920634920562e+00,-4.797612552535078578e-07,-2.401156504148716287e-06
2.771428571428571352e+00,9.508739692831840669e-07,-9.399059331331461250e-06
2.772222222222222143e+00,2.203078007256257194e-06,-1.652385090684163469e-05
2.773015873015872934e+00,3.051448149197617637e-06,-2.224130205888568860e-05
2.773809523809523725e+00,3.403832253487351762e-06,-2.533920787182813127e-05
2.774603174603174516e+00,3.303613106157133841e-06,-2.516366278399761628e-05
2.775396825396825307e+00,2.901313385906251801e-06,-2.169448096936441589e-05
2.776190476190476097e+00,2.403270424938638080e-06,-1.546675284448476831e-05
2.776984126984126888e+00,2.011581345228423106e-06,-7.394716689365745847e-06
2.777777777777777679e+00,1.871088357257873652e-06,1.430533491073848511e-06
2.778571428571428470e+00,2.035686388755453028e-06,9.914454605629630167e-06
2.779365079365079261e+00,2.460047693675357849e-06,1.708019238255961271e-05
2.780158730158730052e+00,3.017155481966115474e-06,2.214384995062167538e-05
2.780952380952380842e+00,3.537909110934202644e-06,2.456642138584595714e-05
2.781746031746031633e+00,3.864608632916935395e-06,2.410292444726849540e-05
2.782539682539682424e+00,3.904051026649004729e-06,2.085348260078509440e-05
2.783333333333333215e+00,3.661425328886520542e-06,1.530237015957471109e-05
2.784126984126984006e+00,3.238982941601802176e-06,8.319494371477194374e-06
2.784920634920634797e+00,2.795907297173707282e-06,1.098393432870972679e-06
2.785714285714285587e+00,2.482978627466610399e-06,-4.985516551752481584e-06
2.786507936507936378e+00,2.378056897480361246e-06,-8.594753578587851261e-06
2.787301587301587169e+00,2.448991627864347135e-06,-8.701041043145277284e-06
2.788095238095237960e+00,2.559256491318147307e-06,-4.854232476146112872e-06
2.788888888888888751e+00,2.514288339069651473e-06,2.624135719522209867e-06
2.789682539682539542e+00,2.130766640632567701e-06,1.259580801985135296e-05
2.790476190476190332e+00,1.302646269807933747e-06,2.325844728982299147e-05
2.791269841269841123e+00,3.902134607618660369e-08,3.249787607293438214e-05
2.792063492063491914e+00,-1.540753733695113477e-06,3.837600554219546624e-05
2.792857142857142705e+00,-3.252435762507833844e-06,3.962262294718521755e-05
2.793650793650793496e+00,-4.912500523657640901e-06,3.596513343110695530e-05
2.794444444444444287e+00,-6.393253964197570994e-06,2.816662622573418907e-05
2.795238095238095077e+00,-7.641781429255001509e-06,1.774912434077953693e-05
2.796031746031745868e+00,-8.657019254332474876e-06,6.506571981508035534e-06
2.796825396825396659e+00,-9.442230401033301575e-06,-4.004540001230430331e-06
2.797619047619047450e+00,-9.961756006047235571e-06,-1.281004736670715926e-05
2.798412698412698241e+00,-1.012582806164990777e-05,-1.959640911838556214e-05
2.799206349206349032e+00,-9.811800703949507339e-06,-2.454998004227916070e-05
2.799999999999999822e+00,-8.913877193818981829e-06,-2.809006479812321385e-05
2.800793650793650613e+00,-7.401445731146675572e-06,-3.064550416870055109e-05
2.801587301587301404e+00,-5.361069277786182577e-06,-3.254912034478493516e-05
2.802380952380952195e+00,-3.002409146155366359e-06,-3.402242586220787093e-05
2.803174603174602986e+00,-6.242065095965955775e-07,-3.517282800018444957e-05
2.803968253968253777e+00,1.445071772937572965e-06,-3.595243883685097646e-05
2.804761904761904567e+00,2.908289951236088662e-06,-3.609350823427045943e-05
2.805555555555555358e+00,3.544670727466441066e-06,-3.508196394513796949e-05
2.806349206349206149e+00,3.235496160877482327e-06,-3.222661336972995903e-05
2.807142857142856940e+00,1.977832147686763913e-06,-2.683770292222721737e-05
2.807936507936507731e+00,-1.069889888160670527e-07,-1.847620856939743408e-05
2.808730158730158522e+00,-2.772574085693945982e-06,-7.199483235801505476e-06
2.809523809523809312e+00,-5.665076725550371874e-06,6.280643845716069975e-06
2.810317460317460103e+00,-8.368650271649656213e-06,2.059345381640072242e-05
2.811111111111110894e+00,-1.047623737777120330e-05,3.388467736242074075e-05
2.811904761904761685e+00,-1.166839433165598110e-05,4.414833018099839206e-05
2.812698412698412920e+00,-1.177606881043212481e-05,4.964852136770960781e-05
2.813492063492063711e+00,-1.080927559084379195e-05,4.933818753972213573e-05
2.814285714285714501e+00,-8.947795183668422612e-06,4.317716829547628622e-05
2.815079365079365292e+00,-6.503104059523482506e-06,3.226652288473567834e-05
2.815873015873016083e+00,-3.866033386353880734e-06,1.873992818774357868e-05
2.816666666666666874e+00,-1.451279900977114249e-06,5.386898283281841592e-06
2.817460317460317665e+00,3.581812683835916707e-07,-4.957381468118666215e-06
2.818253968253968456e+00,1.269955854517033007e-06,-1.013273495479809302e-05
2.819047619047619246e+00,1.145772554642421202e-06,-9.285170911602329884e-06
2.819841269841270037e+00,6.037359302811500988e-08,-3.196873963151101719e-06
2.820634920634920828e+00,-1.666621440006143014e-06,5.821607994837232218e-06
2.821428571428571619e+00,-3.493354239776781307e-06,1.447872966266489312e-05
2.822222222222222410e+00,-4.750797095669366570e-06,1.935029032341283517e-05
2.823015873015873201e+00,-4.804401551736109240e-06,1.779981673591334341e-05
2.823809523809523991e+00,-3.246068722903330541e-06,8.732782141262382823e-06
2.824603174603174782e+00,-5.637676884777537958e-08,-6.993690684851422417e-06
2.825396825396825573e+00,4.326301437635983259e-06,-2.659814583506916094e-05
2.826190476190476364e+00,9.069698358486786378e-06,-4.585366709741601327e-05
2.826984126984127155e+00,1.314126362126877280e-05,-5.996237748874334769e-05
2.827777777777777946e+00,1.558243017592849292e-05,-6.468904510766130276e-05
2.828571428571428736e+00,1.578385142321665351e-05,-5.752720067364625880e-05
2.829365079365079527e+00,1.367637422002101332e-05,-3.860485275583970879e-05
2.830158730158730318e+00,9.773144660529960013e-06,-1.103804626446024481e-05
2.830952380952381109e+00,5.039989629280408979e-06,1.946810205003741728e-05
2.831746031746031900e+00,6.234737415620369349e-07,4.579366433703518544e-05
2.832539682539682691e+00,-2.487043853053445888e-06,6.114038347046405581e-05
2.833333333333333481e+00,-3.761608730397529315e-06,6.088999761761296209e-05
2.834126984126984272e+00,-3.300063500207662530e-06,4.402618089184591043e-05
2.834920634920635063e+00,-1.810855627448950725e-06,1.363441332851253659e-05
2.835714285714285854e+00,-3.948189250442421744e-07,-2.373865831667297638e-05
2.836507936507936645e+00,-1.895848250998360284e-07,-5.970988839898647014e-05
2.837301587301587436e+00,-1.974687178190641060e-06,-8.617936609257960737e-05
2.838095238095238226e+00,-5.854974846145140234e-06,-9.730809043881130378e-05
2.838888888888889017e+00,-1.112510037808902052e-05,-9.080262336349686407e-05
2.839682539682539808e+00,-1.637186135154658950e-05,-6.821370658161440435e-05
2.840476190476190599e+00,-1.980381705852814862e-05,-3.426902297769034102e-05
2.841269841269841390e+00,-1.972820792305250535e-05,4.476760939063009019e-06
2.842063492063492181e+00,-1.504763586023334296e-05,4.124749121761210499e-05
2.842857142857142971e+00,-5.639575881905126106e-06,7.047740295827745964e-05
2.843650793650793762e+00,7.490025351241937623e-06,8.875431820835648561e-05
2.844444444444444553e+00,2.233467995971360540e-05,9.513194631549809781e-05
2.845238095238095344e+00,3.628584808936718222e-05,9.084360433531015865e-05
2.846031746031746135e+00,4.671924526970605242e-05,7.858744512373246776e-05
2.846825396825396925e+00,5.162460209292521230e-05,6.163358827648805359e-05
2.847619047619047716e+00,5.010758667197794521e-05,4.301593737633248684e-05
2.848412698412698507e+00,4.261916092296973971e-05,2.501279189130929827e-05
2.849206349206349298e+00,3.084436593238648876e-05,9.003223100030989531e-06
2.850000000000000089e+00,1.728337849078423995e-05,-4.351973715887093849e-06
2.850793650793650880e+00,4.646803783516569803e-06,-1.476476767447948409e-05
2.851587301587301670e+00,-4.766499792242747049e-06,-2.201106711625475001e-05
2.852380952380952461e+00,-9.551436475044857178e-06,-2.581816979954252526e-05
2.853174603174603252e+00,-9.438128484389206441e-06,-2.599421046837780840e-05
2.853968253968254043e+00,-5.266580913754152619e-06,-2.270508020596142366e-05
2.854761904761904834e+00,1.269611293734889467e-06,-1.670953486044437857e-05
2.855555555555555625e+00,8.037097523076036564e-06,-9.370285177573850217e-06
2.856349206349206415e+00,1.294449554966572995e-05,-2.370145449099333658e-06
2.857142857142857206e+00,1.439916877540383148e-05,2.777935834777934839e-06
2.857936507936507997e+00,1.165042225401165340e-05,5.216306155927744093e-06
2.858730158730158788e+00,4.943794451913534655e-06,4.998729985509729948e-06
2.859523809523809579e+00,-4.557954027706987502e-06,2.995772599107763339e-06
2.860317460317460370e+00,-1.507838829922596418e-05,4.916131587811048396e-07
2.861111111111111160e+00,-2.468190697041936732e-05,-1.349103317370170119e-06
2.861904761904761951e+00,-3.175324814003422188e-05,-1.921147438353715074e-06
2.862698412698412742e+00,-3.536149705263805134e-05,-1.358496746399719768e-06
2.863492063492063533e+00,-3.540467238796773421e-05,-4.063554130941788181e-07
2.864285714285714324e+00,-3.250842111279283114e-05,-6.607705349957758090e-08
2.865079365079365115e+00,-2.773743747403617927e-05,-1.182343039059386377e-06
2.865873015873015905e+00,-2.223416827874933108e-05,-4.152738196966103891e-06
2.866666666666666696e+00,-1.690794718602762873e-05,-8.863994547375889487e-06
2.867460317460317487e+00,-1.226338780559630516e-05,-1.483690630391356133e-05
2.868253968253968278e+00,-8.397595728789646925e-06,-2.146316850308545838e-05
2.869047619047619069e+00,-5.134369651391748974e-06,-2.819160737173816142e-05
2.869841269841269860e+00,-2.221297637686720126e-06,-3.457052921828353785e-05
2.870634920634920650e+00,4.947524698373330066e-07,-4.014623335152181955e-05
2.871428571428571441e+00,2.976693528848608900e-06,-4.431083603387896770e-05
2.872222222222222232e+00,5.011677102224329017e-06,-4.623601163455050327e-05
2.873015873015873023e+00,6.307690398872913912e-06,-4.498853413394770758e-05
2.873809523809523814e+00,6.621538641802578043e-06,-3.981228672584459602e-05
2.874603174603174605e+00,5.865653138235109730e-06,-3.044955417563417708e-05
2.875396825396825395e+00,4.159246717093546193e-06,-1.734324892620456274e-05
2.876190476190476186e+00,1.813440982526578658e-06,-1.632845554185355511e-06
2.876984126984126977e+00,-7.395397900918357317e-07,1.503304604723489130e-05
2.877777777777777768e+00,-3.048587855544468131e-06,3.078142621007510870e-05
2.878571428571428559e+00,-4.745676950475430033e-06,4.381947580944981868e-05
2.879365079365079350e+00,-5.618373867491253310e-06,5.271698785914312100e-05
2.880158730158730140e+00,-5.635267715582036948e-06,5.663862933553582153e-05
2.880952380952380931e+00,-4.922705324573544370e-06,5.548713690045843015e-05
2.881746031746031722e+00,-3.706139731247308417e-06,4.991147265590878016e-05
2.882539682539682513e+00,-2.238936305058949416e-06,4.115241077405629844e-05
2.883333333333333304e+00,-7.427113446804957511e-07,3.074167003913765408e-05
2.884126984126984095e+00,6.245479359482695220e-07,2.012466848553806891e-05
2.884920634920634885e+00,1.770177978394455577e-06,1.031943685525541961e-05
2.885714285714285676e+00,2.649007921826673879e-06,1.732432849162061511e-06
2.886507936507936467e+00,3.242087378508498873e-06,-5.788253379796896744e-06
2.887301587301587258e+00,3.544207372961359466e-06,-1.266777391382636767e-05
2.888095238095238049e+00,3.563789373891106579e-06,-1.919810689696760774e-05
2.888888888888888840e+00,3.331040435063356997e-06,-2.519502203685119703e-05
2.889682539682539630e+00,2.906480075240051544e-06,-2.989572473890275212e-05
2.890476190476190421e+00,2.382221214352325806e-06,-3.217452517828716415e-05
2.891269841269841212e+00,1.871810143676777280e-06,-3.100475404716211605e-05
2.892063492063492003e+00,1.489339605821406459e-06,-2.597124158977723196e-05
2.892857142857142794e+00,1.322855689367878222e-06,-1.760401207975934536e-05
2.893650793650793585e+00,1.409455259867003473e-06,-7.379429905123908616e-06
2.894444444444444375e+00,1.719948854504970779e-06,2.622896431503077628e-06
2.895238095238095166e+00,2.159772337644813972e-06,1.028658690028737819e-05
2.896031746031745957e+00,2.589256231978534044e-06,1.405704033536169295e-05
2.896825396825396748e+00,2.860077948699134211e-06,1.337849200846958799e-05
2.897619047619047539e+00,2.857889173153319946e-06,8.828377613916392282e-06
2.898412698412698330e+00,2.537477204440057072e-06,1.904836471272831442e-06
2.899206349206349120e+00,1.938588940235773808e-06,-5.454757161145774993e-06
2.899999999999999911e+00,1.176951498571591539e-06,-1.144480980649291249e-05
2.900793650793650702e+00,4.133273579766187218e-07,-1.484448885220493934e-05
2.901587301587301493e+00,-1.895532763097551035e-07,-1.520866239423307078e-05
2.902380952380952284e+00,-5.089966547266909039e-07,-1.277285875401821059e-05
2.903174603174603075e+00,-4.911373745158144702e-07,-8.162400869124740487e-06
2.903968253968253865e+00,-1.592363351679518714e-07,-2.056941744168336755e-06
2.904761904761904656e+00,3.983678902883752343e-07,5.043703682036995966e-06
2.905555555555555447e+00,1.053206847929765292e-06,1.286652351715779635e-05
2.906349206349206238e+00,1.663915201815985426e-06,2.122810452685278747e-05
2.907142857142857029e+00,2.098090571332427473e-06,2.979933034735845031e-05
2.907936507936507819e+00,2.247336265701423969e-06,3.790123181278781217e-05
2.908730158730158610e+00,2.038356974815648078e-06,4.444805237589934512e-05
2.909523809523809401e+00,1.442936397625333490e-06,4.809281467886386584e-05
2.910317460317460192e+00,4.867479181797634787e-07,4.754983915277804184e-05
2.911111111111110983e+00,-7.458549149974884018e-07,4.200038347893389430e-05
2.911904761904761774e+00,-2.114868271592280230e-06,3.145370769012871239e-05
2.912698412698412564e+00,-3.438269897260799896e-06,1.694020254430440834e-05
2.913492063492063355e+00,-4.516679632898438647e-06,4.519932694342924393e-07
2.914285714285714146e+00,-5.166211327585198002e-06,-1.538328689132513417e-05
2.915079365079364937e+00,-5.253093240536906853e-06,-2.782388158849181129e-05
2.915873015873015728e+00,-4.721304938189751398e-06,-3.459440285173463823e-05
2.916666666666666519e+00,-3.605321650515497472e-06,-3.437960010281094684e-05
2.917460317460317309e+00,-2.024422262087509215e-06,-2.712686172459734957e-05
2.918253968253968100e+00,-1.608320824938347403e-07,-1.411058156477765553e-05
2.919047619047618891e+00,1.771872306054501327e-06,2.243798101731062922e-06
2.919841269841269682e+00,3.562962938601907588e-06,1.874841228666754479e-05
2.920634920634920473e+00,5.036240560914667593e-06,3.199870631626250438e-05
2.921428571428571264e+00,6.076317103321002250e-06,3.899071750472074885e-05
2.922222222222222054e+00,6.646979676295192275e-06,3.770222914988012760e-05
2.923015873015872845e+00,6.797697582269928290e-06,2.752745081279819319e-05
2.923809523809523636e+00,6.653548599291599264e-06,9.474031215904609688e-06
2.924603174603174427e+00,6.386160045115271611e-06,-1.393337612615356229e-05
2.925396825396825218e+00,6.168801809740726309e-06,-3.905231149033063127e-05
2.926190476190476009e+00,6.125292526731998915e-06,-6.177669620417009216e-05
2.926984126984126799e+00,6.287168308264975986e-06,-7.833219072812926196e-05
2.927777777777777590e+00,6.574503113399580248e-06,-8.603975324836885127e-05
2.928571428571428381e+00,6.811242968711866940e-06,-8.385485499099392488e-05
2.929365079365079172e+00,6.775512344698570584e-06,-7.253652136149661613e-05
2.930158730158729963e+00,6.271757542441838819e-06,-5.440371086396752408e-05
2.930952380952380754e+00,5.200961152619212798e-06,-3.275276099656493161e-05
2.931746031746031544e+00,3.603728478836941901e-06,-1.109600636690385420e-05
2.932539682539682335e+00,1.660293090250268099e-06,7.580827803294278376e-06
2.933333333333333126e+00,-3.530375381378572652e-07,2.135934081384820220e-05
2.934126984126983917e+00,-2.136530415262553219e-06,2.960728214888997528e-05
2.934920634920634708e+00,-3.445091025629532892e-06,3.285255532126891216e-05
2.935714285714285499e+00,-4.147366589775240255e-06,3.239088460893654425e-05
2.936507936507936289e+00,-4.249569524303058147e-06,2.977651050346222751e-05
2.937301587301587080e+00,-3.881193606186699713e-06,2.636169906353917294e-05
2.938095238095238315e+00,-3.252549956776246553e-06,2.301086154539217534e-05
2.938888888888889106e+00,-2.600583812074548503e-06,2.003889188515722689e-05
2.939682539682539897e+00,-2.138218514497697238e-06,1.734324883056817670e-05
2.940476190476190688e+00,-2.016400605970733481e-06,1.464299698949940746e-05
2.941269841269841478e+00,-2.301962700554892079e-06,1.171656817192374579e-05
2.942063492063492269e+00,-2.971345621531087579e-06,8.543238460024488536e-06
2.942857142857143060e+00,-3.919319580525637503e-06,5.300094807028328794e-06
2.943650793650793851e+00,-4.980936108947160860e-06,2.236271427596102707e-06
2.944444444444444642e+00,-5.963620752202862547e-06,-4.926827300162308373e-07
2.945238095238095433e+00,-6.685203701571308205e-06,-2.931642675226353383e-06
2.946031746031746223e+00,-7.012128917185365464e-06,-5.311322658169182235e-06
2.946825396825397014e+00,-6.889568139633543173e-06,-7.912235457445607523e-06
2.947619047619047805e+00,-6.354242919852690725e-06,-1.086769173954035613e-05
2.948412698412698596e+00,-5.524864865459476576e-06,-1.400439445126478293e-05
2.949206349206349387e+00,-4.573214114434396461e-06,-1.681361701867461765e-05
2.950000000000000178e+00,-3.685460073347127252e-06,-1.858671632105453672e-05
2.950793650793650968e+00,-3.024231543293957234e-06,-1.866293606729586536e-05
2.951587301587301759e+00,-2.698250905891317271e-06,-1.667817837564275978e-05
2.952380952380952550e+00,-2.742266125440889784e-06,-1.270491028851220522e-05
2.953174603174603341e+00,-3.108390971081909070e-06,-7.228480308917892810e-06
2.953968253968254132e+00,-3.670314301768383747e-06,-9.803326771094936336e-07
2.954761904761904923e+00,-4.241876123132478377e-06,5.293181933067011309e-06
2.955555555555555713e+00,-4.609567475603579322e-06,1.103124113379699995e-05
2.956349206349206504e+00,-4.574655422510062786e-06,1.595980819181394257e-05
2.957142857142857295e+00,-3.996429405846474135e-06,2.007478473741547862e-05
2.957936507936508086e+00,-2.825716517546217658e-06,2.353390733324884761e-05
2.958730158730158877e+00,-1.119183384864615115e-06,2.650950337853720716e-05
2.959523809523809668e+00,9.693606379712969428e-07,2.905646335563589783e-05
2.960317460317460458e+00,3.216255918025145011e-06,3.103637660636752326e-05
2.961111111111111249e+00,5.363504107944279265e-06,3.211947516524125544e-05
2.961904761904762040e+00,7.152889054722067687e-06,3.186682197583368050e-05
2.962698412698412831e+00,8.355758027622270216e-06,2.987680291162703313e-05
2.963492063492063622e+00,8.801392843815163865e-06,2.596125658716620831e-05
2.964285714285714413e+00,8.405990273405590971e-06,2.029920711293452631e-05
2.965079365079365203e+00,7.197352622686777900e-06,1.350714187965774629e-05
2.965873015873015994e+00,5.324194172302852632e-06,6.574121420211088728e-06
2.966666666666666785e+00,3.040172651590908104e-06,6.444559718547821187e-07
2.967460317460317576e+00,6.623063889140018928e-07,-3.313251712366564376e-06
2.968253968253968367e+00,-1.484685893235758829e-06,-4.852085606972937806e-06
2.969047619047619158e+00,-3.120789487920504506e-06,-4.275585383439007230e-06
2.969841269841269948e+00,-4.046376503666928246e-06,-2.637104946344900028e-06
2.970634920634920739e+00,-4.157245052363360337e-06,-1.473869292686216305e-06
2.971428571428571530e+00,-3.443351767750176831e-06,-2.341806838637190059e-06
2.972222222222222321e+00,-1.978639825881597756e-06,-6.299001294199998871e-06
2.973015873015873112e+00,9.222051293362832070e-08,-1.351253397400165130e-05
2.973809523809523903e+00,2.567607600227122385e-06,-2.312529238080770203e-05
2.974603174603174693e+00,5.202696124224160588e-06,-3.343063059489769352e-05
2.975396825396825484e+00,7.723094486067321669e-06,-4.229784296962085615e-05
2.976190476190476275e+00,9.839448248889830852e-06,-4.771072728013916358e-05
2.976984126984127066e+00,1.126726628476674924e-05,-4.825401981154990474e-05
2.977777777777777857e+00,1.175890708943656837e-05,-4.341540568064644845e-05
2.978571428571428648e+00,1.115225447562964286e-05,-3.364779509476770593e-05
2.979365079365079438e+00,9.430993167041825097e-06,-2.022127763400473981e-05
2.980158730158730229e+00,6.778318688800308065e-06,-4.946915462529278270e-06
2.980952380952381020e+00,3.598237750495898036e-06,1.014165145975862899e-05
2.981746031746031811e+00,4.836390522094919047e-07,2.309155547977650145e-05
2.982539682539682602e+00,-1.873482479049868017e-06,3.229086084123685329e-05
2.983333333333333393e+00,-2.815898976431708235e-06,3.666691315970646483e-05
2.984126984126984183e+00,-1.872831173216870493e-06,3.580049563879548439e-05
2.984920634920634974e+00,1.101573087366279769e-06,2.993799057103773374e-05
2.985714285714285765e+00,5.833188057623729323e-06,1.990840078334762383e-05
2.986507936507936556e+00,1.160347952868359054e-05,6.983971403996721552e-06
2.987301587301587347e+00,1.731805996786788646e-05,-7.263915485747522012e-06
2.988095238095238138e+00,2.167845271700617440e-05,-2.108301797095554566e-05
2.988888888888888928e+00,2.344106388179950643e-05,-3.264695241494033586e-05
2.989682539682539719e+00,2.171116781727948128e-05,-4.020207788843362356e-05
2.990476190476190510e+00,1.619202310220609867e-05,-4.230370139591700510e-05
2.991269841269841301e+00,7.309382706226102321e-06,-3.813728307355335797e-05
2.992063492063492092e+00,-3.835900640946333772e-06,-2.784009757425930172e-05
2.992857142857142883e+00,-1.568253786232308008e-05,-1.268225139981300688e-05
2.993650793650793673e+00,-2.653597488355738428e-05,5.020985392701291853e-06
2.994444444444444464e+00,-3.492353157755194611e-05,2.230433812069876264e-05
2.995238095238095255e+00,-3.989054794308469004e-05,3.617161483340810657e-05
2.996031746031746046e+00,-4.117033933693616866e-05,4.426447072340223486e-05
2.996825396825396837e+00,-3.919295766767935652e-05,4.538998405483496857e-05
2.997619047619047628e+00,-3.493441112596932255e-05,3.977028023894857005e-05
2.998412698412698418e+00,-2.964325014176484607e-05,2.896576466093306085e-05
2.999206349206349209e+00,-2.451044225724996733e-05,1.550696653851711308e-05
3.000000000000000000e+00,-2.036591524449322637e-05,2.327854697050301973e-06
3.000793650793650791e+00,-1.748337915028035365e-05,-7.875168202518424885e-06
3.001587301587301582e+00,-1.554776290946653606e-05,-1.322247220038277333e-05
3.002380952380952372e+00,-1.379084937532324410e-05,-1.303905191973634437e-05
3.003174603174603163e+00,-1.124787691544709758e-05,-7.955302713282598018e-06
3.003968253968253954e+00,-7.053168942072122175e-06,3.086189723396452266e-07
3.004761904761904745e+00,-6.897873413971170779e-07,9.418627573689423711e-06
3.005555555555555536e+00,7.865577420427536027e-06,1.703041004278194634e-05
3.006349206349206327e+00,1.812064390611508935e-05,2.134944408419831363e-05
3.007142857142857117e+00,2.914965762204512525e-05,2.149025290559902302e-05
3.007936507936507908e+00,3.974026061154437792e-05,1.754930123023867722e-05
3.008730158730158699e+00,4.856526069074842749e-05,1.041292747822328107e-05
3.009523809523809490e+00,5.435231048527640243e-05,1.412454218176280235e-06
3.010317460317460281e+00,5.603889548099237817e-05,-8.036475245305058001e-06
3.011111111111111072e+00,5.290761938396472424e-05,-1.671321461438114131e-05
3.011904761904761862e+00,4.469814018165100731e-05,-2.375031587380276588e-05
3.012698412698412653e+00,3.169212873228591324e-05,-2.866995110995702392e-05
3.013492063492063444e+00,1.476600393010011021e-05,-3.132303712977945338e-05
3.014285714285714235e+00,-4.603350114356058697e-06,-3.177720389934644016e-05
3.015079365079365026e+00,-2.441215531323845568e-05,-3.020740480578866242e-05
3.015873015873015817e+00,-4.232359874642390216e-05,-2.682720365200140660e-05
3.016666666666666607e+00,-5.599958548460393136e-05,-2.187309411528118338e-05
3.017460317460317398e+00,-6.352824593871907568e-05,-1.563565164324023812e-05
3.018253968253968189e+00,-6.383894581438269965e-05,-8.518312565464981260e-06
3.019047619047618980e+00,-5.697125149990275232e-05,-1.090250773210717455e-06
3.019841269841269771e+00,-4.410458962315295857e-05,5.908224940921370968e-06
3.020634920634920562e+00,-2.733933585010028737e-05,1.163745977720834306e-05
3.021428571428571352e+00,-9.297931056537422451e-06,1.530568403375176021e-05
3.022222222222222143e+00,7.349254292609191906e-06,1.635579648015921943e-05
3.023015873015872934e+00,2.033389635705430885e-05,1.463721617037453109e-05
3.023809523809523725e+00,2.814086034528752347e-05,1.051024575827932346e-05
3.024603174603174516e+00,3.021240069119322246e-05,4.845213844201934807e-06
3.025396825396825307e+00,2.698289922268960633e-05,-1.101261416821176794e-06
3.026190476190476097e+00,1.974939301017639124e-05,-5.925651972037440258e-06
3.026984126984126888e+00,1.041045929854900785e-05,-8.393664087657295506e-06
3.027777777777777679e+00,1.124522868204012691e-06,-7.759950829348574879e-06
3.028571428571428470e+00,-6.056428769968079684e-06,-3.995736959984252759e-06
3.029365079365079261e+00,-9.526595762229828903e-06,2.161658969443920770e-06
3.030158730158730052e+00,-8.395616385614446345e-06,9.372910143649647722e-06
3.030952380952380842e+00,-2.649243094052699662e-06,1.603636366087845977e-05
3.031746031746031633e+00,6.829250274123345598e-06,2.070471092576675612e-05
3.032539682539682424e+00,1.839309412192528893e-05,2.245981434608740262e-05
3.033333333333333215e+00,2.991287592908396274e-05,2.114893807991600751e-05
3.034126984126984006e+00,3.916382918466062148e-05,1.743090005540952702e-05
3.034920634920634797e+00,4.424952560488593182e-05,1.262657879893717325e-05
3.035714285714285587e+00,4.397523167599242804e-05,8.405268377124627954e-06
3.036507936507936378e+00,3.808794624143498227e-05,6.370318179653088450e-06
3.037301587301587169e+00,2.732596626731251821e-05,7.634925694442444040e-06
3.038095238095237960e+00,1.326388135872234938e-05,1.248990835743109083e-05
3.038888888888888751e+00,-2.011347028351340836e-06,2.024788855562994753e-05
3.039682539682539542e+00,-1.631524657057102073e-05,2.930697067802307454e-05
3.040476190476190332e+00,-2.777288188830892820e-05,3.742868551539921479e-05
3.041269841269841123e+00,-3.512819212141928460e-05,4.218246712032559852e-05
3.042063492063491914e+00,-3.790024188930979035e-05,4.147433406645034118e-05
3.042857142857142705e+00,-3.637545954898136424e-05,3.405233091362642816e-05
3.043650793650793496e+00,-3.146144395494776465e-05,1.987466066669690048e-05
3.044444444444444287e+00,-2.444808700651180807e-05,2.464045315702508047e-07
3.045238095238095077e+00,-1.672887100457710758e-05,-2.232731979100138658e-05
3.046031746031745868e+00,-9.535612856908831482e-06,-4.456982316074444868e-05
3.046825396825396659e+00,-3.734760337204798827e-06,-6.307420429016490299e-05
3.047619047619047450e+00,2.800092240487845663e-07,-7.501177072536658848e-05
3.048412698412698241e+00,2.585077778781988543e-06,-7.871028602292761583e-05
3.049206349206349032e+00,3.623648242902555747e-06,-7.393227072324306799e-05
3.049999999999999822e+00,4.032424264815258685e-06,-6.179660983867104663e-05
3.050793650793650613e+00,4.443511484760187129e-06,-4.442246044803657403e-05
3.051587301587301404e+00,5.311430235638558837e-06,-2.445409578733930643e-05
3.052380952380952195e+00,6.806200564528895929e-06,-4.616634805327974467e-06
3.053174603174602986e+00,8.793324942147398346e-06,1.261888213428268220e-05
3.053968253968253777e+00,1.089733986942103587e-05,2.526280804031159560e-05
3.054761904761904567e+00,1.262455914442214368e-05,3.197063228146114321e-05
3.055555555555555358e+00,1.350733708507716809e-05,3.217730197905872299e-05
3.056349206349206149e+00,1.322975725922921476e-05,2.619445724839316095e-05
3.057142857142856940e+00,1.170422400923825920e-05,1.522334868803931674e-05
3.057936507936507731e+00,9.086430899274499141e-06,1.225426686117553116e-06
3.058730158730158522e+00,5.734809694822371094e-06,-1.337717131404663544e-05
3.059523809523809312e+00,2.133012901151350654e-06,-2.613416800227144461e-05
3.060317460317460103e+00,-1.201972371651663243e-06,-3.502826152559357083e-05
3.061111111111110894e+00,-3.806709464781575869e-06,-3.883497774290019439e-05
3.061904761904761685e+00,-5.341581556245972687e-06,-3.728781286603874553e-05
3.062698412698412920e+00,-5.640875542931521168e-06,-3.102674228194750051e-05
3.063492063492063711e+00,-4.743123534614492319e-06,-2.136799647531557254e-05
3.064285714285714501e+00,-2.900740135270435207e-06,-9.960088322561982995e-06
3.065079365079365292e+00,-5.639272499059526330e-07,1.598450653504777489e-06
3.065873015873016083e+00,1.668229545292469353e-06,1.209161462649796294e-05
3.066666666666666874e+00,3.133577418166446193e-06,2.087753718624884940e-05
3.067460317460317665e+00,3.225964855027436878e-06,2.788077524792295636e-05
3.068253968253968456e+00,1.533112769235645235e-06,3.339637457588670957e-05
3.069047619047619246e+00,-2.033267162480453787e-06,3.778856936694573962e-05
3.069841269841270037e+00,-7.151699173708563317e-06,4.120372349089741889e-05
3.070634920634920828e+00,-1.308711733552304403e-05,4.340720246107207698e-05
3.071428571428571619e+00,-1.879187060566923185e-05,4.380737322979990598e-05
3.072222222222222410e+00,-2.310505774261516646e-05,4.166305452341965103e-05
3.073015873015873201e+00,-2.501011547562116395e-05,3.640252869004269439e-05
3.073809523809523991e+00,-2.388585047149475183e-05,2.793663688848601934e-05
3.074603174603174782e+00,-1.967945571149044072e-05,1.684545115071510243e-05
3.075396825396825573e+00,-1.294621099558409867e-05,4.360742718039095418e-06
3.076190476190476364e+00,-4.738166367742370465e-06,-7.860280045690875095e-06
3.076984126984127155e+00,3.628794277979342651e-06,-1.809817881769962584e-05
3.077777777777777946e+00,1.086339052363627725e-05,-2.495215677440059814e-05
3.078571428571428736e+00,1.596533412669323609e-05,-2.762294845129916181e-05
3.079365079365079527e+00,1.840622162660718916e-05,-2.603271941733531941e-05
3.080158730158730318e+00,1.819038005553441056e-05,-2.078274146939601549e-05
3.080952380952381109e+00,1.579329059381539809e-05,-1.299444612609305957e-05
3.081746031746031900e+00,1.200394861647418739e-05,-4.090338133426136117e-06
3.082539682539682691e+00,7.719150063112950515e-06,4.439979032738114688e-06
3.083333333333333481e+00,3.747347409873341817e-06,1.125952460611250466e-05
3.084126984126984272e+00,6.717994641839993077e-07,1.537128051503356394e-05
3.084920634920635063e+00,-1.202349089629951314e-06,1.625758110607923132e-05
3.085714285714285854e+00,-1.824003213880451504e-06,1.395361807386848017e-05
3.086507936507936645e+00,-1.324807887901074841e-06,9.039748355018584962e-06
3.087301587301587436e+00,6.445844547537440497e-08,2.550308032628203553e-06
3.088095238095238226e+00,2.083999915778503412e-06,-4.187523243833658155e-06
3.088888888888889017e+00,4.489081314406786424e-06,-9.763282374038717017e-06
3.089682539682539808e+00,7.065122324766574562e-06,-1.291922862014316462e-05
3.090476190476190599e+00,9.616340285289052604e-06,-1.278882783929828534e-05
3.091269841269841390e+00,1.193542040089561409e-05,-9.104765168200725119e-06
3.092063492063492181e+00,1.376824443100627109e-05,-2.331444977884234025e-06
3.092857142857142971e+00,1.479410862077880347e-05,6.327766006827301672e-06
3.093650793650793762e+00,1.464336877571015939e-05,1.508521483573894618e-05
3.094444444444444553e+00,1.296583549716844259e-05,2.188876418221732351e-05
3.095238095238095344e+00,9.542835368967592739e-06,2.486343393448056107e-05
3.096031746031746135e+00,4.410006056300761992e-06,2.278433385637157525e-05
3.096825396825396925e+00,-2.059550718056986153e-06,1.545665635704071152e-05
3.097619047619047716e+00,-9.158194250290021477e-06,3.875613464812442166e-06
3.098412698412698507e+00,-1.595135023589290684e-05,-9.918797366974922838e-06
3.099206349206349298e+00,-2.146748460730152217e-05,-2.329212093930183001e-05
3.100000000000000089e+00,-2.491356772257254283e-05,-3.366681402354500794e-05
3.100793650793650880e+00,-2.584859134485582779e-05,-3.918842817100478713e-05
3.101587301587301670e+00,-2.426526879849788692e-05,-3.919728203214173823e-05
3.102380952380952461e+00,-2.056393887287545359e-05,-3.434651315102880303e-05
3.103174603174603252e+00,-1.543601299248619925e-05,-2.631898732663736932e-05
3.103968253968254043e+00,-9.696359545137130535e-06,-1.723689809750458712e-05
3.104761904761904834e+00,-4.111735414636753509e-06,-8.977475994892145046e-06
3.105555555555555625e+00,7.331277366985825292e-07,-2.645065576455517325e-06
3.106349206349206415e+00,4.505388702895460344e-06,1.626161923750509770e-06
3.107142857142857206e+00,7.123413063345509728e-06,4.516653242831353411e-06
3.107936507936507997e+00,8.698387275063106620e-06,7.132006470683547577e-06
3.108730158730158788e+00,9.445382263901298909e-06,1.055466672405867898e-05
3.109523809523809579e+00,9.596459631438379503e-06,1.547616175225713242e-05
3.110317460317460370e+00,9.342444091522053161e-06,2.197609762245383985e-05
3.111111111111111160e+00,8.814125916767276764e-06,2.946074828948452655e-05
3.111904761904761951e+00,8.095305245435950589e-06,3.675543795023054742e-05
3.112698412698412742e+00,7.248676363434966311e-06,4.234091319107526638e-05
3.113492063492063533e+00,6.335598257184119430e-06,4.470908016617185248e-05
3.114285714285714324e+00,5.419508421750767127e-06,4.277604148972730157e-05
3.115079365079365115e+00,4.553804676276509613e-06,3.624229549524534788e-05
3.115873015873015905e+00,3.763273147116998684e-06,2.576678325461169243e-05
3.116666666666666696e+00,3.030991160764988050e-06,1.285875829783496130e-05
3.117460317460317487e+00,2.299532103420537727e-06,-5.087693978085571691e-07
3.118253968253968278e+00,1.487845078719793787e-06,-1.244035296972036796e-05
3.119047619047619069e+00,5.174074188368331119e-07,-2.161455118632800109e-05
3.119841269841269860e+00,-6.624139154547013425e-07,-2.755075703898290883e-05
3.120634920634920650e+00,-2.057903018050435267e-06,-3.056558057195322715e-05
3.121428571428571441e+00,-3.626227859838214542e-06,-3.147584774474636288e-05
3.122222222222222232e+00,-5.280314508185332271e-06,-3.120197341469632283e-05
3.123015873015873023e+00,-6.899804200248039602e-06,-3.043638621511087847e-05
3.123809523809523814e+00,-8.346315789397275843e-06,-2.947846004475004113e-05
3.124603174603174605e+00,-9.482881552968276689e-06,-2.824798489757996447e-05
3.125396825396825395e+00,-1.019507619016526231e-05,-2.641983674429650321e-05
3.126190476190476186e+00,-1.040615328830539895e-05,-2.359786683629691323e-05
3.126984126984126977e+00,-1.007751438967518782e-05,-1.946846125805805892e-05
3.127777777777777768e+00,-9.194153902724722089e-06,-1.392282824914275068e-05
3.128571428571428559e+00,-7.747129739358974576e-06,-7.170233805153983068e-06
3.129365079365079350e+00,-5.729794996607392744e-06,1.537781563291339207e-07
3.130158730158730140e+00,-3.156254155662677491e-06,6.940193217565875097e-06
3.130952380952380931e+00,-9.683751022864995905e-08,1.171744352211285692e-05
3.131746031746031722e+00,3.282370302143576068e-06,1.297892845117396482e-05
3.132539682539682513e+00,6.688667685862559483e-06,9.671699929868369849e-06
3.133333333333333304e+00,9.692372412576642272e-06,1.675616690770987258e-06
3.134126984126984095e+00,1.175176127997351499e-05,-9.935095976957034343e-06
3.134920634920634885e+00,1.228876179892711705e-05,-2.299125240801753585e-05
3.135714285714285676e+00,1.081906796900167083e-05,-3.469843683803233941e-05
3.136507936507936467e+00,7.114698254285884269e-06,-4.234259613109843937e-05
3.137301587301587258e+00,1.349449090365500578e-06,-4.400538737310817579e-05
3.138095238095238049e+00,-5.833413143028931100e-06,-3.906506013034082378e-05
3.138888888888888840e+00,-1.337503637059680783e-05,-2.834842248370940773e-05
3.139682539682539630e+00,-1.997998678808927649e-05,-1.392237732205182952e-05
3.140476190476190421e+00,-2.437848656418815354e-05,1.393576666551854821e-06
3.141269841269841212e+00,-2.560017892371058018e-05,1.467216457249994311e-05
3.142063492063492003e+00,-2.318518280201860131e-05,2.354892751607785359e-05
3.142857142857142794e+00,-1.728069918818343558e-05,2.678247858168316588e-05
3.143650793650793585e+00,-8.606767674949794734e-06,2.457274487457301372e-05
3.144444444444444375e+00,1.690804533360066300e-06,1.854039875563905185e-05
3.145238095238095166e+00,1.225839371783223380e-05,1.134514000432100672e-05
3.146031746031745957e+00,2.177190052113993531e-05,6.018049480044629047e-06
3.146825396825396748e+00,2.914558033260142845e-05,5.170625469628484948e-06
3.147619047619047539e+00,3.367707762834880688e-05,1.028734548639481794e-05
3.148412698412698330e+00,3.511060729889032200e-05,2.129115514304017221e-05
3.149206349206349120e+00,3.361814761530597422e-05,3.649619880344163585e-05
3.149999999999999911e+00,2.971367288268969350e-05,5.295600834795915714e-05
3.150793650793650702e+00,2.412545835734258682e-05,6.711499768585902552e-05
3.151587301587301493e+00,1.765550292039668267e-05,7.560337043619990414e-05
3.152380952380952284e+00,1.105339544087208341e-05,7.598917226514017513e-05
3.153174603174603075e+00,4.925168151199552557e-06,6.731605054484512810e-05
3.153968253968253865e+00,-3.126323729920863230e-07,5.030994112807153380e-05
3.154761904761904656e+00,-4.434485298866280384e-06,2.722312282613419869e-05
3.155555555555555447e+00,-7.373094079177301772e-06,1.375483171901931741e-06
3.156349206349206238e+00,-9.168479576021069095e-06,-2.348045328307239501e-05
3.157142857142857029e+00,-9.917344523772759745e-06,-4.382059902595719842e-05
3.157936507936507819e+00,-9.737705850159413933e-06,-5.690271613272433380e-05
3.158730158730158610e+00,-8.755577373966826754e-06,-6.112036040060542068e-05
3.159523809523809401e+00,-7.111768330420798694e-06,-5.612255365369946098e-05
3.160317460317460192e+00,-4.981614106837943446e-06,-4.272789158887943284e-05
3.161111111111110983e+00,-2.597705075817218672e-06,-2.271263070766430987e-05
3.161904761904761774e+00,-2.620454684841221229e-07,1.435346238984706569e-06
3.162698412698412564e+00,1.668949848508290287e-06,2.673971599676895682e-05
3.163492063492063355e+00,2.838135248875989135e-06,4.993971350847511948e-05
3.164285714285714146e+00,2.974125829558880413e-06,6.772755454995708576e-05
3.165079365079364937e+00,1.982941718815360723e-06,7.708117440545451796e-05
3.165873015873015728e+00,6.275965961022245502e-09,7.571695091605198718e-05
3.166666666666666519e+00,-2.583488466215351141e-06,6.261458572099557038e-05
3.167460317460317309e+00,-5.258540196730106236e-06,3.848356662684914391e-05
3.168253968253968100e+00,-7.463567867185717486e-06,5.984688064333069834e-06
3.169047619047618891e+00,-8.761101915941267189e-06,-3.046853034836737866e-05
3.169841269841269682e+00,-8.951348694924081593e-06,-6.540196541583349096e-05
3.170634920634920473e+00,-8.127793714542628142e-06,-9.336683508659092900e-05
3.171428571428571264e+00,-6.647671827318577858e-06,-1.101436917382079118e-04
3.172222222222222054e+00,-5.024267522623299400e-06,-1.136992849148780099e-04
3.173015873015872845e+00,-3.774822488300739148e-06,-1.045843687341590784e-04
3.173809523809523636e+00,-3.271446492698872289e-06,-8.564243075431763621e-05
3.174603174603174427e+00,-3.638235137884956347e-06,-6.113476122282796423e-05
3.175396825396825218e+00,-4.720268885306428608e-06,-3.557801495123988930e-05
3.176190476190476009e+00,-6.127617137111313904e-06,-1.266084470817549162e-05
3.176984126984126799e+00,-7.337352481288862098e-06,5.458735858820139849e-06
3.177777777777777590e+00,-7.824379667690746089e-06,1.832661757296420705e-05
3.178571428571428381e+00,-7.190090300766679968e-06,2.685896662172200218e-05
3.179365079365079172e+00,-5.264109704887045696e-06,3.266203998353812076e-05
3.180158730158729963e+00,-2.162726248487821507e-06,3.724775397170911333e-05
3.180952380952380754e+00,1.706780577020964770e-06,4.140459498885078952e-05
3.181746031746031544e+00,5.703253054142643154e-06,4.492769137160959212e-05
3.182539682539682335e+00,9.070693056153216022e-06,4.678481716920557791e-05
3.183333333333333126e+00,1.110430038157035656e-05,4.563303907311879950e-05
3.184126984126983917e+00,1.132759903361162128e-05,4.047266277451400362e-05
3.184920634920634708e+00,9.630048889975421030e-06,3.118827383933202898e-05
3.185714285714285499e+00,6.317664134939198822e-06,1.878525932235390136e-05
3.186507936507936289e+00,2.052293756422141774e-06,5.244481261144874010e-06
3.187301587301587080e+00,-2.309213423690513903e-06,-6.958343245619502112e-06
3.188095238095238315e+00,-5.930037848150206096e-06,-1.552154403087519871e-05
3.188888888888889106e+00,-8.197091263845113581e-06,-1.897412253598313193e-05
3.189682539682539897e+00,-8.852278394718720279e-06,-1.712753860355825853e-05
3.190476190476190688e+00,-8.017191111037666416e-06,-1.119362255496418707e-05
3.191269841269841478e+00,-6.114928273215720722e-06,-3.528313907217299849e-06
3.192063492063492269e+00,-3.724924912559818325e-06,2.954128187607907166e-06
3.192857142857143060e+00,-1.421249522193527875e-06,5.571424303332595422e-06
3.193650793650793851e+00,3.595346942125150324e-07,2.662354013274990159e-06
3.194444444444444642e+00,1.391612867757297353e-06,-5.876981736926962832e-06
3.195238095238095433e+00,1.666432039116402773e-06,-1.851210279555229115e-05
3.196031746031746223e+00,1.344539235305797660e-06,-3.248991575796121540e-05
3.196825396825397014e+00,6.777086904559267709e-07,-4.461080615879483831e-05
3.197619047619047805e+00,-7.089048572759623993e-08,-5.207859014538087841e-05
3.198412698412698596e+00,-6.873664296694096717e-07,-5.315748537581390856e-05
3.199206349206349387e+00,-1.039145672112739669e-06,-4.747602324214169527e-05
3.200000000000000178e+00,-1.079676752119242930e-06,-3.595951949888269938e-05
3.200793650793650968e+00,-8.332030455886677326e-07,-2.047955512666817986e-05
3.201587301587301759e+00,-3.688630744142924066e-07,-3.358271396127600957e-06
3.202380952380952550e+00,2.268166673036833296e-07,1.313438462867141476e-05
3.203174603174603341e+00,8.716063305085949334e-07,2.718175234815540332e-05
3.203968253968254132e+00,1.499605580444041485e-06,3.765207418856978197e-05
3.204761904761904923e+00,2.064168264632893426e-06,4.413716156910782527e-05
3.205555555555555713e+00,2.534862289333241363e-06,4.682306833550330089e-05
3.206349206349206504e+00,2.891725747258457808e-06,4.626320836325174948e-05
3.207142857142857295e+00,3.119212859327489921e-06,4.314526313303166131e-05
3.207936507936508086e+00,3.201547655737322634e-06,3.812321249958773079e-05
3.208730158730158877e+00,3.120889808545847017e-06,3.173736044231126330e-05
3.209523809523809668e+00,2.859596619041615815e-06,2.440388338973833323e-05
3.210317460317460458e+00,2.407038104693858623e-06,1.644696731004454169e-05
3.211111111111111249e+00,1.769187486970947582e-06,8.162726441325690406e-06
3.211904761904762040e+00,9.771097407832343222e-07,-8.602250201747378230e-08
3.212698412698412831e+00,9.075434715978573248e-08,-7.761381475759895025e-06
3.213492063492063622e+00,-8.033432049791244742e-07,-1.407758503101375002e-05
3.214285714285714413e+00,-1.600111626889303883e-06,-1.802903974103127981e-05
3.215079365079365203e+00,-2.188965916743516787e-06,-1.855955836091617781e-05
3.215873015873015994e+00,-2.470821561752287538e-06,-1.485227930811125099e-05
3.216666666666666785e+00,-2.377297269324468920e-06,-6.656067327055578341e-06
3.217460317460317576e+00,-1.888783724555472413e-06,5.467220806379666658e-06
3.218253968253968367e+00,-1.046252871879943222e-06,2.007629886653311690e-05
3.219047619047619158e+00,4.895414143245231199e-08,3.501588556088626133e-05
3.219841269841269948e+00,1.250503134561862227e-06,4.779483332638033660e-05
3.220634920634920739e+00,2.394813924733941378e-06,5.608884399319758455e-05
3.221428571428571530e+00,3.332642989647456374e-06,5.823526954683115858e-05
3.222222222222222321e+00,3.954623335214925139e-06,5.358257791693962129e-05
3.223015873015873112e+00,4.204493857704891706e-06,4.259134343660160555e-05
3.223809523809523903e+00,4.079114810599016387e-06,2.665154237382693454e-05
3.224603174603174693e+00,3.618325046271975243e-06,7.674770027761299230e-06
3.225396825396825484e+00,2.889361853841632932e-06,-1.238898882680114516e-05
3.226190476190476275e+00,1.970383091662377629e-06,-3.192465250327594688e-05
3.226984126984127066e+00,9.364169663082449998e-07,-4.978542884002969512e-05
3.227777777777777857e+00,-1.500442211964949920e-07,-6.518116826134631476e-05
3.228571428571428648e+00,-1.242008841361837143e-06,-7.743963276656663048e-05
3.229365079365079438e+00,-2.303456354284463221e-06,-8.580995967040290951e-05
3.230158730158730229e+00,-3.298704739862513536e-06,-8.943641042173400843e-05
3.230952380952381020e+00,-4.180569534441548180e-06,-8.753186354970961735e-05
3.231746031746031811e+00,-4.884152248667793330e-06,-7.968118708586796823e-05
3.232539682539682602e+00,-5.331359219145760694e-06,-6.614651049920462224e-05
3.233333333333333393e+00,-5.446267480718167513e-06,-4.804448093055717464e-05
3.234126984126984183e+00,-5.176122842442526371e-06,-2.731099471277803893e-05
3.234920634920634974e+00,-4.510278063530873221e-06,-6.437530821297759697e-06
3.235714285714285765e+00,-3.490821619330084786e-06,1.196904621544066944e-05
