Timestamp,Flexor carpi radialis,Extensor digitorum
2.000000000000000000e+00,5.063955624604070961e-06,3.535252133025053116e-05
2.000793650793650791e+00,5.112682389373457405e-06,2.910739315038426847e-05
2.001587301587301582e+00,4.782182780776457670e-06,1.996135553030223771e-05
2.002380952380952372e+00,4.175282048682843830e-06,8.865361209056511565e-06
2.003174603174603163e+00,3.457944019264956221e-06,-2.867780819355558465e-06
2.003968253968253954e+00,2.812126911629803341e-06,-1.368854703963830238e-05
2.004761904761904745e+00,2.381515935000231112e-06,-2.200083396181523043e-05
2.005555555555555536e+00,2.227382108868979095e-06,-2.640521240558894883e-05
2.006349206349206327e+00,2.308341564623922766e-06,-2.596419412167400413e-05
2.007142857142857117e+00,2.489994907467730889e-06,-2.044046221558590545e-05
2.007936507936507908e+00,2.581331420871317603e-06,-1.044939480112247625e-05
2.008730158730158699e+00,2.387133589541692139e-06,2.528887478785041298e-06
2.009523809523809490e+00,1.761409696441737850e-06,1.631325602220896141e-05
2.010317460317460281e+00,6.471835641402905864e-07,2.836188375441390987e-05
2.011111111111111072e+00,-9.074237643771688464e-07,3.624371208808339608e-05
2.011904761904761862e+00,-2.759557069105649815e-06,3.814726809236272800e-05
2.012698412698412653e+00,-4.703516045448676337e-06,3.330059144847719932e-05
2.013492063492063444e+00,-6.513650005272067626e-06,2.218068346759737204e-05
2.014285714285714235e+00,-7.985935794819681502e-06,6.441700481484023460e-06
2.015079365079365026e+00,-8.968426427431043011e-06,-1.142709731408064308e-05
2.015873015873015817e+00,-9.376372503199950192e-06,-2.862290277412670947e-05
2.016666666666666607e+00,-9.193850552778753157e-06,-4.259197822706507893e-05
2.017460317460317398e+00,-8.467217114861202160e-06,-5.149208782060999057e-05
2.018253968253968189e+00,-7.295277553726026296e-06,-5.445284664344326645e-05
2.019047619047618980e+00,-5.818088212479583543e-06,-5.159935818655621932e-05
2.019841269841269771e+00,-4.203666944418808274e-06,-4.387497138375322670e-05
2.020634920634920562e+00,-2.631396096016481717e-06,-3.274546535091594248e-05
2.021428571428571352e+00,-1.272200852025171268e-06,-1.987592107982403395e-05
2.022222222222222143e+00,-2.669980569401003591e-07,-6.850146749107682377e-06
2.023015873015872934e+00,2.946009437254693566e-07,5.030508784888424954e-06
2.023809523809523725e+00,3.928874811068313826e-07,1.486016251200566157e-05
2.024603174603174516e+00,8.961376917584681266e-08,2.216020871107431695e-05
2.025396825396825307e+00,-4.744373338692128942e-07,2.684286233874226817e-05
2.026190476190476097e+00,-1.103145977395297035e-06,2.912280503379928657e-05
2.026984126984126888e+00,-1.592783902258371167e-06,2.939908057797404600e-05
2.027777777777777679e+00,-1.797341087700416836e-06,2.813533012230458839e-05
2.028571428571428470e+00,-1.694058561446079881e-06,2.576592524961808384e-05
2.029365079365079261e+00,-1.423714274034745001e-06,2.264478553888187932e-05
2.030158730158730052e+00,-1.279853582132577583e-06,1.903694316578625028e-05
2.030952380952380842e+00,-1.632456104932836164e-06,1.513954461816249684e-05
2.031746031746031633e+00,-2.795437793500135406e-06,1.111446920689264266e-05
2.032539682539682424e+00,-4.876954631557845228e-06,7.116939714675914778e-06
2.033333333333333215e+00,-7.670565270379914920e-06,3.309269676301199333e-06
2.034126984126984006e+00,-1.063909409314789786e-05,-1.444692775747180160e-07
2.034920634920634797e+00,-1.301183876004848636e-05,-3.098797135657440045e-06
2.035714285714285587e+00,-1.397427884685555908e-05,-5.451939231351753259e-06
2.036507936507936378e+00,-1.289384216620907735e-05,-7.165509107331695927e-06
2.037301587301587169e+00,-9.507381999137295831e-06,-8.274335268698495717e-06
2.038095238095237960e+00,-4.005112162849408725e-06,-8.888103339339766107e-06
2.038888888888888751e+00,3.016420403518531164e-06,-9.186847432148467909e-06
2.039682539682539542e+00,1.070780352204393482e-05,-9.405655997392161797e-06
2.040476190476190332e+00,1.816292208299229025e-05,-9.796781385441326694e-06
2.041269841269841123e+00,2.458836150134505234e-05,-1.055970248008051258e-05
2.042063492063491914e+00,2.940376999868851774e-05,-1.174527582534722071e-05
2.042857142857142705e+00,3.227045758761999764e-05,-1.316149214128451019e-05
2.043650793650793496e+00,3.307331792051876828e-05,-1.432293880446966734e-05
2.044444444444444287e+00,3.188559104545899163e-05,-1.448492728861751148e-05
2.045238095238095077e+00,2.893245234629904255e-05,-1.278388328056422900e-05
2.046031746031745868e+00,2.455303482882257904e-05,-8.470913925021086123e-06
2.046825396825396659e+00,1.915404364499657602e-05,-1.184630405637712393e-06
2.047619047619047450e+00,1.315387239751127935e-05,8.821723477417843997e-06
2.048412698412698241e+00,6.927025090257471844e-06,2.058776242470739418e-05
2.049206349206349032e+00,7.657765557735164324e-07,3.254555705205043002e-05
2.049999999999999822e+00,-5.125968056854596829e-06,4.280916817992669375e-05
2.050793650793650613e+00,-1.060344358865421365e-05,4.958468955243690383e-05
2.051587301587301404e+00,-1.553035834528853371e-05,5.158264522542818257e-05
2.052380952380952195e+00,-1.973341626127841236e-05,4.830695100000785650e-05
2.053174603174602986e+00,-2.298688335332712090e-05,4.013598382394417430e-05
2.053968253968253777e+00,-2.503425820586255236e-05,2.818549906744028928e-05
2.054761904761904567e+00,-2.563167478908733469e-05,1.401553994583100735e-05
2.055555555555555358e+00,-2.458814561877088574e-05,-7.171512512854987790e-07
2.056349206349206149e+00,-2.178990068858092602e-05,-1.456231423385473223e-05
2.057142857142856940e+00,-1.721942245117238397e-05,-2.646799312193865865e-05
2.057936507936507731e+00,-1.099110996340251803e-05,-3.583629792758391661e-05
2.058730158730158522e+00,-3.410879477265473059e-06,-4.245830806013427901e-05
2.059523809523809312e+00,4.962196765167606349e-06,-4.637535478536619485e-05
2.060317460317460103e+00,1.329194028929950036e-05,-4.773240506109168645e-05
2.061111111111110894e+00,2.051098002813319908e-05,-4.668582970586284363e-05
2.061904761904761685e+00,2.544451880348091798e-05,-4.339880313154284466e-05
2.062698412698412920e+00,2.699670241180566785e-05,-3.811236185069354364e-05
2.063492063492063711e+00,2.437009477557440781e-05,-3.123985705902712525e-05
2.064285714285714501e+00,1.727876244695058272e-05,-2.341848340151163812e-05
2.065079365079365292e+00,6.104628791236000220e-06,-1.547192320974362617e-05
2.065873015873016083e+00,-8.058066942264050368e-06,-8.282456692930503732e-06
2.066666666666666874e+00,-2.350937763583475101e-05,-2.616186558331826200e-06
2.067460317460317665e+00,-3.819821863250919415e-05,1.031588830901249123e-06
2.068253968253968456e+00,-5.006855200303067613e-05,2.513620477016689952e-06
2.069047619047619246e+00,-5.740582970862857462e-05,2.009852331481310378e-06
2.069841269841270037e+00,-5.909800866495258079e-05,-6.993553272680319291e-08
2.070634920634920828e+00,-5.476869376230394048e-05,-3.212177047264606094e-06
2.071428571428571619e+00,-4.479177103647014296e-05,-6.905691216670612200e-06
2.072222222222222410e+00,-3.022408089741928774e-05,-1.069842509911903737e-05
2.073015873015873201e+00,-1.268428326722585733e-05,-1.420065315951010808e-05
2.073809523809523991e+00,5.820054104250830104e-06,-1.705004480035064211e-05
2.074603174603174782e+00,2.313003158628271637e-05,-1.886304658786725689e-05
2.075396825396825573e+00,3.723733864351128661e-05,-1.919941761722181696e-05
2.076190476190476364e+00,4.661393625384691383e-05,-1.756678053945848699e-05
2.076984126984127155e+00,5.049561148188226302e-05,-1.348645923730842482e-05
2.077777777777777946e+00,4.903232746739021410e-05,-6.623773212474756704e-06
2.078571428571428736e+00,4.324254077003992326e-05,3.043697413532638891e-06
2.079365079365079527e+00,3.476457226194439607e-05,1.507489637325251465e-05
2.080158730158730318e+00,2.546479575715170982e-05,2.849750311682360844e-05
2.080952380952381109e+00,1.701335606472462853e-05,4.187542806450051422e-05
2.081746031746031900e+00,1.055092302776067524e-05,5.352565192060305179e-05
2.082539682539682691e+00,6.536125699887621210e-06,6.184851985217150428e-05
2.083333333333333481e+00,4.795727804251554543e-06,6.568888599824942911e-05
2.084126984126984272e+00,4.728991848962220140e-06,6.461932970300284060e-05
2.084920634920635063e+00,5.574962930289941053e-06,5.904626074737703552e-05
2.085714285714285854e+00,6.649543219281395147e-06,5.008926833631727177e-05
2.086507936507936645e+00,7.489604786129820969e-06,3.925986546326324148e-05
2.087301587301587436e+00,7.884214765707081004e-06,2.804006385806561056e-05
2.088095238095238226e+00,7.809930488681577791e-06,1.750319234456823941e-05
2.088888888888889017e+00,7.308809691496596692e-06,8.107618560236992705e-06
2.089682539682539808e+00,6.356181820746579003e-06,-2.712707199820895787e-07
2.090476190476190599e+00,4.767472406925408641e-06,-8.097534411504673634e-06
2.091269841269841390e+00,2.190157591877043552e-06,-1.582408571362921079e-05
2.092063492063492181e+00,-1.791689446144387328e-06,-2.357196583342194930e-05
2.092857142857142971e+00,-7.454849416812701722e-06,-3.095741087310506534e-05
2.093650793650793762e+00,-1.470510754882545213e-05,-3.712859807727950166e-05
2.094444444444444553e+00,-2.292022079324095366e-05,-4.100237539818928447e-05
2.095238095238095344e+00,-3.096054326099818691e-05,-4.162570749035083862e-05
2.096031746031746135e+00,-3.737974180256808422e-05,-3.854583006377826213e-05
2.096825396825396925e+00,-4.078438673923307363e-05,-3.206725624906564380e-05
2.097619047619047716e+00,-4.022372310939245730e-05,-2.330112122711331481e-05
2.098412698412698507e+00,-3.547258938177241968e-05,-1.396596552515152909e-05
2.099206349206349298e+00,-2.711078705740611552e-05,-5.971423105803105367e-06
2.100000000000000089e+00,-1.638058494940027713e-05,-8.924626654984749899e-07
2.100793650793650880e+00,-4.880354543388654991e-06,5.056918187733124416e-07
2.101587301587301670e+00,5.806950159633688842e-06,-1.468647154218818638e-06
2.102380952380952461e+00,1.445128673588556858e-05,-5.481727487996819542e-06
2.103174603174603252e+00,2.040148460347111081e-05,-9.533871305536279311e-06
2.103968253968254043e+00,2.365270769375038605e-05,-1.152531577218152047e-05
2.104761904761904834e+00,2.474896999206655489e-05,-9.854840664280545981e-06
2.105555555555555625e+00,2.456109654625842568e-05,-3.872022473277508365e-06
2.106349206349206415e+00,2.401500063604544905e-05,5.939688038626971333e-06
2.107142857142857206e+00,2.385078611632547794e-05,1.808425191484943901e-05
2.107936507936507997e+00,2.447119644695479633e-05,3.043337576842200203e-05
2.108730158730158788e+00,2.590036347548600970e-05,4.076380255190710169e-05
2.109523809523809579e+00,2.783327349867056229e-05,4.731133635301847096e-05
2.110317460317460370e+00,2.972802316835914196e-05,4.918506411596974663e-05
2.111111111111111160e+00,3.089380784460930618e-05,4.651440258803341482e-05
2.111904761904761951e+00,3.056094149070033475e-05,4.028920881730913369e-05
2.112698412698412742e+00,2.796171540025098714e-05,3.196864284976970975e-05
2.113492063492063533e+00,2.246532338305697873e-05,2.301759359973152967e-05
2.114285714285714324e+00,1.377725101890361410e-05,1.453713167618004727e-05
2.115079365079365115e+00,2.153016251949245417e-06,7.091327946802518533e-06
2.115873015873015905e+00,-1.146712078696071376e-05,7.396857747592650321e-07
2.116666666666666696e+00,-2.548896242227312968e-05,-4.787515131939975594e-06
2.117460317460317487e+00,-3.789413220722787209e-05,-9.859751286798118199e-06
2.118253968253968278e+00,-4.663364722681799008e-05,-1.474158117939279379e-05
2.119047619047619069e+00,-5.009581616025620039e-05,-1.946892825996000107e-05
2.119841269841269860e+00,-4.753373666044892986e-05,-2.383755824230992447e-05
2.120634920634920650e+00,-3.934307512626071426e-05,-2.750534953952562812e-05
2.121428571428571441e+00,-2.710923790657101081e-05,-3.017507825606112788e-05
2.122222222222222232e+00,-1.338426474965575241e-05,-3.179260845763552966e-05
2.123015873015873023e+00,-1.204392043839948893e-06,-3.267940337542269411e-05
2.123809523809523814e+00,6.578068094032998976e-06,-3.352930374776712924e-05
2.124603174603174605e+00,8.006491870840379361e-06,-3.523987450871956189e-05
2.125396825396825395e+00,2.585381193372061889e-06,-3.860665483579799544e-05
2.126190476190476186e+00,-8.483573557552658587e-06,-4.396367620609470508e-05
2.126984126984126977e+00,-2.249982565452968974e-05,-5.088669730387190463e-05
2.127777777777777768e+00,-3.587198576872915965e-05,-5.807436822763346380e-05
2.128571428571428559e+00,-4.497818217304795006e-05,-6.348156068917157552e-05
2.129365079365079350e+00,-4.703941225549862699e-05,-6.470550423267957456e-05
2.130158730158730140e+00,-4.076687145673656875e-05,-5.954463446584304078e-05
2.130952380952380931e+00,-2.662334982874068503e-05,-4.659573243233559701e-05
2.131746031746031722e+00,-6.662639729437777093e-06,-2.574463876272170825e-05
2.132539682539682513e+00,1.596712192858327611e-05,1.569731990393214909e-06
2.133333333333333304e+00,3.769185964587259551e-05,3.239922938490967996e-05
2.134126984126984095e+00,5.517590009158972821e-05,6.267175523557668348e-05
2.134920634920634885e+00,6.585386871197578906e-05,8.788399193328746040e-05
2.135714285714285676e+00,6.827006255164795210e-05,1.039759875481895655e-04
2.136507936507936467e+00,6.221525928765940397e-05,1.081786854915648040e-04
2.137301587301587258e+00,4.867395244057129623e-05,9.960684840800863643e-05
2.138095238095238049e+00,2.960887994074842819e-05,7.944366284625115863e-05
2.138888888888888840e+00,7.628378261157393450e-06,5.069424624275407166e-05
2.139682539682539630e+00,-1.440114077162055312e-05,1.760412748500841634e-05
2.140476190476190421e+00,-3.373503629872079868e-05,-1.509949048531966104e-05
2.141269841269841212e+00,-4.807790902202804779e-05,-4.298140167598817329e-05
2.142063492063492003e+00,-5.583518915860360602e-05,-6.255505079413937520e-05
2.142857142857142794e+00,-5.627516976697418630e-05,-7.173401266467710187e-05
2.143650793650793585e+00,-4.958717115223761703e-05,-7.003416282945728851e-05
2.144444444444444375e+00,-3.682371616949416072e-05,-5.852121890122215849e-05
2.145238095238095166e+00,-1.972967983577994283e-05,-3.953160956404959105e-05
2.146031746031745957e+00,-4.856985854965252250e-07,-1.622322971391037963e-05
2.146825396825396748e+00,1.858761214259143136e-05,7.963844038785986189e-06
2.147619047619047539e+00,3.531632279072739381e-05,2.984154839276810373e-05
2.148412698412698330e+00,4.791745432522527700e-05,4.690794734249372053e-05
2.149206349206349120e+00,5.518594358740813380e-05,5.760792796354741304e-05
2.149999999999999911e+00,5.661765389298108615e-05,6.139050787056181521e-05
2.150793650793650702e+00,5.245854267813674683e-05,5.858778995682030781e-05
2.151587301587301493e+00,4.366494602686867298e-05,5.018645257627823552e-05
2.152380952380952284e+00,3.176232376570285829e-05,3.757735148860344383e-05
2.153174603174603075e+00,1.860358702685824280e-05,2.234650263342656491e-05
2.153968253968253865e+00,6.052872887004068835e-06,6.127740426759662883e-06
2.154761904761904656e+00,-4.350291740307934366e-06,-9.501284151301766273e-06
2.155555555555555447e+00,-1.167195215629231181e-05,-2.311443210208963294e-05
2.156349206349206238e+00,-1.573762955858578995e-05,-3.354746297899264342e-05
2.157142857142857029e+00,-1.711284560943076246e-05,-4.001801336461121829e-05
2.157936507936507819e+00,-1.690666143100055715e-05,-4.222242327495620567e-05
2.158730158730158610e+00,-1.644393030919789057e-05,-4.037115798236318409e-05
2.159523809523809401e+00,-1.689300021610930179e-05,-3.514473829085855742e-05
2.160317460317460192e+00,-1.895080709286210653e-05,-2.758152507408159152e-05
2.161111111111110983e+00,-2.266733308023125137e-05,-1.892589591804997933e-05
2.161904761904761774e+00,-2.744422870236183458e-05,-1.046391439280828500e-05
2.162698412698412564e+00,-3.218965207508384292e-05,-3.363444212101525931e-06
2.163492063492063355e+00,-3.557443348603930232e-05,1.473471848390505593e-06
2.164285714285714146e+00,-3.632207461521537575e-05,3.544079452381977216e-06
2.165079365079364937e+00,-3.347202431463663566e-05,2.861327582962340737e-06
2.165873015873015728e+00,-2.657319945203407622e-05,3.541456740560783545e-08
2.166666666666666519e+00,-1.578617543643692753e-05,-3.722176328770186958e-06
2.167460317460317309e+00,-1.892059306742396890e-06,-6.728036620626950985e-06
2.168253968253968100e+00,1.378253540979895597e-05,-7.123904752304842047e-06
2.169047619047618891e+00,2.951380560949020310e-05,-3.317142367119239819e-06
2.169841269841269682e+00,4.339391585009367614e-05,5.530611704682463059e-06
2.170634920634920473e+00,5.359535374032916769e-05,1.911012112473471826e-05
2.171428571428571264e+00,5.865690137647584855e-05,3.581155703705098651e-05
2.172222222222222054e+00,5.774280111224893650e-05,5.290460260071649170e-05
2.173015873015872845e+00,5.081768027113360483e-05,6.704861052300283898e-05
2.173809523809523636e+00,3.868966539719113093e-05,7.502025720241149221e-05
2.174603174603174427e+00,2.290302394147653847e-05,7.446660766638684250e-05
2.175396825396825218e+00,5.499674484290683310e-06,6.447720215047935235e-05
2.176190476190476009e+00,-1.129978902300527394e-05,4.582525424888067952e-05
2.176984126984126799e+00,-2.543282239931832629e-05,2.082883725766514310e-05
2.177777777777777590e+00,-3.529488037088570718e-05,-7.113026345825450208e-06
2.178571428571428381e+00,-3.996600535228189406e-05,-3.417931854960997481e-05
2.179365079365079172e+00,-3.934197452162201082e-05,-5.681777624775332649e-05
2.180158730158729963e+00,-3.415349675946085351e-05,-7.231382613603334550e-05
2.180952380952380754e+00,-2.585799723194526529e-05,-7.913181391510082905e-05
2.181746031746031544e+00,-1.639520902980071612e-05,-7.699492150340483444e-05
2.182539682539682335e+00,-7.820154739869123072e-06,-6.674312368129537007e-05
2.183333333333333126e+00,-1.866494419814371167e-06,-5.005631558618376894e-05
2.184126984126983917e+00,4.638847440348945270e-07,-2.913790329284187433e-05
2.184920634920634708e+00,-8.337177440337758086e-07,-6.428032361389728419e-06
2.185714285714285499e+00,-4.746965558360163738e-06,1.562474929935412911e-05
2.186507936507936289e+00,-9.507804847785893425e-06,3.473983263359466789e-05
2.187301587301587080e+00,-1.307792602467689043e-05,4.895598645862942339e-05
2.188095238095238315e+00,-1.372079165437639222e-05,5.678729828544852988e-05
2.188888888888889106e+00,-1.049152816082226393e-05,5.739415157537609738e-05
2.189682539682539897e+00,-3.505079574127084092e-06,5.074501455860888540e-05
2.190476190476190688e+00,6.085819967267231632e-06,3.771366691778865672e-05
2.191269841269841478e+00,1.638723399340941375e-05,2.005024392212336758e-05
2.192063492063492269e+00,2.524579232970187542e-05,1.884593724246074320e-07
2.192857142857143060e+00,3.077865363035388476e-05,-1.910516511543663726e-05
2.193650793650793851e+00,3.180714408805661970e-05,-3.518620343321608528e-05
2.194444444444444642e+00,2.808872712966132155e-05,-4.599874856672098167e-05
2.195238095238095433e+00,2.031337891898521214e-05,-5.044538797195492584e-05
2.196031746031746223e+00,9.900442511456256680e-06,-4.857082290319036369e-05
2.196825396825397014e+00,-1.327693439500315078e-06,-4.151667717104364549e-05
2.197619047619047805e+00,-1.151180526610451528e-05,-3.126314743504496894e-05
2.198412698412698596e+00,-1.909121556623400915e-05,-2.022132051106524040e-05
2.199206349206349387e+00,-2.305607717076669545e-05,-1.076646073828626648e-05
2.200000000000000178e+00,-2.308214612798994072e-05,-4.804509496862902160e-06
2.200793650793650968e+00,-1.953073638665582003e-05,-3.445476678061622685e-06
2.201587301587301759e+00,-1.331725154212444707e-05,-6.828066074022906598e-06
2.202380952380952550e+00,-5.678874155924141228e-06,-1.411043647593445173e-05
2.203174603174603341e+00,2.100536764069110691e-06,-2.361863231981466564e-05
2.203968253968254132e+00,8.936708582221217399e-06,-3.312798267070719913e-05
2.204761904761904923e+00,1.410167326272471441e-05,-4.024180186140672460e-05
2.205555555555555713e+00,1.726279631192655662e-05,-4.282166293881085737e-05
2.206349206349206504e+00,1.841599129913397461e-05,-3.940911248877489512e-05
2.207142857142857295e+00,1.775655904696289461e-05,-2.956176067333596248e-05
2.207936507936508086e+00,1.554338763720464661e-05,-1.402162629240126641e-05
2.208730158730158877e+00,1.200311780478262552e-05,5.342975535886397327e-06
2.209523809523809668e+00,7.297832524501837864e-06,2.582854115495341279e-05
2.210317460317460458e+00,1.554768852612620189e-06,4.436670783406003704e-05
2.211111111111111249e+00,-5.062203940333799483e-06,5.807855296394363160e-05
2.211904761904762040e+00,-1.226959807622386448e-05,6.480806985055819229e-05
2.212698412698412831e+00,-1.960223269769640131e-05,6.354376505387884821e-05
2.213492063492063622e+00,-2.640051471362935502e-05,5.465655286653824899e-05
2.214285714285714413e+00,-3.186558335753544169e-05,3.989944070201794778e-05
2.215079365079365203e+00,-3.518320648950394038e-05,2.213832052782057069e-05
2.215873015873015994e+00,-3.569317051580314963e-05,4.827488881660379657e-06
2.216666666666666785e+00,-3.305905030155450335e-05,-8.687964288098773915e-06
2.217460317460317576e+00,-2.738568222919773564e-05,-1.588817109303501110e-05
2.218253968253968367e+00,-1.924356229094202015e-05,-1.562225324176801707e-05
2.219047619047619158e+00,-9.586222843709427122e-06,-8.322872409901113186e-06
2.219841269841269948e+00,4.209091384877970346e-07,4.166052456393492677e-06
2.220634920634920739e+00,9.614514423254351641e-06,1.908232192131936576e-05
2.221428571428571530e+00,1.703419493306440716e-05,3.339945602629111387e-05
2.222222222222222321e+00,2.206627527930516116e-05,4.445714410206572049e-05
2.223015873015873112e+00,2.451326292573422814e-05,5.042678596710262754e-05
2.223809523809523903e+00,2.459325787135690055e-05,5.054474894451805933e-05
2.224603174603174693e+00,2.287895335974254014e-05,4.510937256431274536e-05
2.225396825396825484e+00,2.018313191907179641e-05,3.527679341824904166e-05
2.226190476190476275e+00,1.740211954321007525e-05,2.271640328911400159e-05
2.226984126984127066e+00,1.534314197958424312e-05,9.209445931219241918e-06
2.227777777777777857e+00,1.457388986265947464e-05,-3.712139541488379896e-06
2.228571428571428648e+00,1.533019630032884690e-05,-1.500004614877658656e-05
2.229365079365079438e+00,1.749842847506308542e-05,-2.415157375786432229e-05
2.230158730158730229e+00,2.066177652290130602e-05,-3.111278677888492473e-05
2.230952380952381020e+00,2.417838272775113797e-05,-3.608707636893874234e-05
2.231746031746031811e+00,2.725671389313236812e-05,-3.933256505569192947e-05
2.232539682539682602e+00,2.901213900000053494e-05,-4.101607833719853253e-05
2.233333333333333393e+00,2.851731372710508041e-05,-4.115682052471845916e-05
2.234126984126984183e+00,2.488094293722429293e-05,-3.965843889601746255e-05
2.234920634920634974e+00,1.739266256573295284e-05,-3.640276513353418925e-05
2.235714285714285765e+00,5.750126038154280296e-06,-3.136382392572127371e-05
2.236507936507936556e+00,-9.663335984258129442e-06,-2.469885063226723342e-05
2.237301587301587347e+00,-2.754424866634844711e-05,-1.678623683225414725e-05
2.238095238095238138e+00,-4.561419467907847520e-05,-8.204108017027767971e-06
2.238888888888888928e+00,-6.086120459524291379e-05,3.351429275015035898e-07
2.239682539682539719e+00,-7.009599411403215406e-05,8.071923258395206137e-06
2.240476190476190510e+00,-7.070493935161616453e-05,1.429304463315313065e-05
2.241269841269841301e+00,-6.137962519073029088e-05,1.842614091857509392e-05
2.242063492063492092e+00,-4.259202147774122465e-05,2.012913354323891954e-05
2.242857142857142883e+00,-1.666656076314877868e-05,1.936062726998917641e-05
2.243650793650793673e+00,1.257282189923362615e-05,1.641032479135184062e-05
2.244444444444444464e+00,4.049002577203605582e-05,1.187122792816302296e-05
2.245238095238095255e+00,6.249954885449332022e-05,6.548425532661952575e-06
2.246031746031746046e+00,7.492041876500220180e-05,1.317996150757843482e-06
2.246825396825396837e+00,7.564741342880317119e-05,-3.033360596353911373e-06
2.247619047619047628e+00,6.451121579041139780e-05,-5.949221110987616978e-06
2.248412698412698418e+00,4.327223897063522663e-05,-7.191044393437760018e-06
2.249206349206349209e+00,1.527007735326313252e-05,-6.854893127269784607e-06
2.250000000000000000e+00,-1.519004534756421680e-05,-5.319799894734585210e-06
2.250793650793650791e+00,-4.359286865079553866e-05,-3.145703151434712455e-06
2.251587301587301582e+00,-6.596287082832971054e-05,-9.456735244630579787e-07
2.252380952380952372e+00,-7.945349284470777976e-05,7.422641454596490249e-07
2.253174603174603163e+00,-8.265527701604184687e-05,1.560096949253879224e-06
2.253968253968253954e+00,-7.558530073393618267e-05,1.391241498949937170e-06
2.254761904761904745e+00,-5.942444481112006503e-05,3.651709370381975243e-07
2.255555555555555536e+00,-3.614237993151930394e-05,-1.195606900456075019e-06
2.256349206349206327e+00,-8.154081804610427054e-06,-2.871488250857487343e-06
2.257142857142857117e+00,2.190876329945426308e-05,-4.256869040050807775e-06
2.257936507936507908e+00,5.131249997796211404e-05,-5.054796522602844528e-06
2.258730158730158699e+00,7.728981749139910318e-05,-5.131804387715479909e-06
2.259523809523809490e+00,9.715507200310977403e-05,-4.525986766986557921e-06
2.260317460317460281e+00,1.085391486635585537e-04,-3.416959335003416126e-06
2.261111111111111072e+00,1.097520290184777407e-04,-2.072941417981708946e-06
2.261904761904761862e+00,1.001948695576309207e-04,-7.870165698903251293e-07
2.262698412698412653e+00,8.067661236870091147e-05,1.907774938830033957e-07
2.263492063492063444e+00,5.347998200624829812e-05,7.180054488951037744e-07
2.264285714285714235e+00,2.207501410940261913e-05,8.060319069405215658e-07
2.265079365079365026e+00,-9.521552909678654433e-06,6.277803004092821415e-07
2.265873015873015817e+00,-3.761798513660156274e-05,4.736453935066717362e-07
2.266666666666666607e+00,-5.971040671700408587e-05,6.602902699524052371e-07
2.267460317460317398e+00,-7.503749492562204445e-05,1.416865213072704709e-06
2.268253968253968189e+00,-8.457607570825330379e-05,2.784454053631498069e-06
2.269047619047618980e+00,-9.039853568538100642e-05,4.563476274286251954e-06
2.269841269841269771e+00,-9.456236656980855865e-05,6.331802148625489623e-06
2.270634920634920562e+00,-9.792740172039817045e-05,7.536552391892763160e-06
2.271428571428571352e+00,-9.938703574433426619e-05,7.639377757446294635e-06
2.272222222222222143e+00,-9.589623564683469174e-05,6.275782543378743164e-06
2.273015873015872934e+00,-8.340494210733934209e-05,3.382208306936469725e-06
2.273809523809523725e+00,-5.845957938020629094e-05,-7.462895615932331731e-07
2.274603174603174516e+00,-1.995188510971696724e-05,-5.484708821531502905e-06
2.275396825396825307e+00,2.961507587599285332e-05,-9.987873198714013293e-06
2.276190476190476097e+00,8.386465236837422786e-05,-1.335840201274945811e-05
2.276984126984126888e+00,1.335133179361939538e-04,-1.483843564261667768e-05
2.277777777777777679e+00,1.683979081871041412e-04,-1.398493150017548156e-05
2.278571428571428470e+00,1.800249734938621105e-04,-1.078854546303937473e-05
2.279365079365079261e+00,1.638892116840176614e-04,-5.703085036199043434e-06
2.280158730158730052e+00,1.208476699468461038e-04,4.328429329595866836e-07
2.280952380952380842e+00,5.713515146610275661e-05,6.577543680547185160e-06
2.281746031746031633e+00,-1.695424694050325684e-05,1.173727013082418266e-05
2.282539682539682424e+00,-8.929881798316652340e-05,1.522291188951634854e-05
2.283333333333333215e+00,-1.484625079702012781e-04,1.683248645344266966e-05
2.284126984126984006e+00,-1.858643896286035454e-04,1.689130201092808791e-05
2.284920634920634797e+00,-1.971501924960689111e-04,1.612474742189368745e-05
2.285714285714285587e+00,-1.825679097593406583e-04,1.539844665867169912e-05
2.286507936507936378e+00,-1.464128510381722866e-04,1.541086585060117117e-05
2.287301587301587169e+00,-9.580973538947967533e-05,1.644225623787811362e-05
2.288095238095237960e+00,-3.919478738934157138e-05,1.824413110478364239e-05
2.288888888888888751e+00,1.515654356173964400e-05,2.010450943271219703e-05
2.289682539682539542e+00,6.030729432644898612e-05,2.106500631032572158e-05
2.290476190476190332e+00,9.141992674750524758e-05,2.021707464168651488e-05
2.291269841269841123e+00,1.060935115447096699e-04,1.698140358156829973e-05
2.292063492063491914e+00,1.043461958571500716e-04,1.128305611702877410e-05
2.292857142857142705e+00,8.833636567887380800e-05,3.572559358421781390e-06
2.293650793650793496e+00,6.189922205082659017e-05,-5.302821955621566744e-06
2.294444444444444287e+00,2.994902911138603880e-05,-1.432408754054731956e-05
2.295238095238095077e+00,-2.209556499569282214e-06,-2.254396152619355639e-05
2.296031746031745868e+00,-2.959922527287922408e-05,-2.927845145242434635e-05
2.296825396825396659e+00,-4.822958299350697407e-05,-3.420525432977372134e-05
2.297619047619047450e+00,-5.560360481662132871e-05,-3.736125525963613833e-05
2.298412698412698241e+00,-5.099749922673319467e-05,-3.905618895641003497e-05
2.299206349206349032e+00,-3.548318719882942793e-05,-3.973171577942511399e-05
2.299999999999999822e+00,-1.170784327025592042e-05,-3.979864917005323079e-05
2.300793650793650613e+00,1.652410303165128489e-05,-3.948627960356300740e-05
2.301587301587301404e+00,4.481040471791017214e-05,-3.873868300252367278e-05
2.302380952380952195e+00,6.879605197872587193e-05,-3.718907894098883609e-05
2.303174603174602986e+00,8.484132755865031179e-05,-3.422937108925470966e-05
2.303968253968253777e+00,9.062697488812908211e-05,-2.916886456525400956e-05
2.304761904761904567e+00,8.558269833571982566e-05,-2.145119849539299942e-05
2.305555555555555358e+00,7.102047075265762051e-05,-1.087960358575492126e-05
2.306349206349206149e+00,4.989706164884606242e-05,2.208604766785537979e-06
2.307142857142856940e+00,2.622111292248684706e-05,1.687525481383701965e-05
2.307936507936507731e+00,4.227233223046828084e-06,3.166148521500587699e-05
2.308730158730158522e+00,-1.248366524121954842e-05,4.481696129656569084e-05
2.309523809523809312e+00,-2.162450796479617360e-05,5.463215153782422829e-05
2.310317460317460103e+00,-2.256213381144474511e-05,5.979112299008845457e-05
2.311111111111110894e+00,-1.625727333129420684e-05,5.965669010476303414e-05
2.311904761904761685e+00,-4.859307029587117695e-06,5.442409855532986463e-05
2.312698412698412920e+00,8.898282007912824171e-06,4.511608484791736093e-05
2.313492063492063711e+00,2.231735573867650588e-05,3.342362935917619210e-05
2.314285714285714501e+00,3.320686716615211121e-05,2.141751421765664677e-05
2.315079365079365292e+00,4.011438186204812891e-05,1.117234149412218082e-05
2.315873015873016083e+00,4.231867280977687592e-05,4.364841107199490076e-06
2.316666666666666874e+00,3.966941116166777809e-05,1.928731770733282883e-06
2.317460317460317665e+00,3.240089618844072672e-05,3.852947612335118753e-06
2.318253968253968456e+00,2.102397407973154286e-05,9.183186876658402787e-06
2.319047619047619246e+00,6.327048542097023235e-06,1.623032500875383257e-05
2.319841269841270037e+00,-1.056131307448447976e-05,2.292694941181264978e-05
2.320634920634920828e+00,-2.813206068406811635e-05,2.723624717199399096e-05
2.321428571428571619e+00,-4.454363100617070585e-05,2.752154450187066116e-05
2.322222222222222410e+00,-5.777988667204972384e-05,2.281987838650679674e-05
2.323015873015873201e+00,-6.590348798564457774e-05,1.300331282081327699e-05
2.323809523809523991e+00,-6.737043835022742751e-05,-1.164792015199329081e-06
2.324603174603174782e+00,-6.135581449756841502e-05,-1.807150855794605716e-05
2.325396825396825573e+00,-4.802514178798765015e-05,-3.540292706560417899e-05
2.326190476190476364e+00,-2.868332862999662815e-05,-5.042298281255994531e-05
2.326984126984127155e+00,-5.750312095472514962e-06,-6.039942574259816045e-05
2.327777777777777946e+00,1.746186889133390416e-05,-6.315454410833274269e-05
2.328571428571428736e+00,3.717287337279519607e-05,-5.765299814174413965e-05
2.329365079365079527e+00,4.973342407646401506e-05,-4.447562949977700220e-05
2.330158730158730318e+00,5.232795824939882537e-05,-2.600405347601426317e-05
2.330952380952381109e+00,4.364402922761220354e-05,-6.182543527072856395e-06
2.331746031746031900e+00,2.432145027101042159e-05,1.017264914182125104e-05
2.332539682539682691e+00,-2.995922998614373086e-06,1.841419169645851521e-05
2.333333333333333481e+00,-3.408620826397378028e-05,1.523501881499082070e-05
2.334126984126984272e+00,-6.397672175823373086e-05,-3.172335077286049352e-07
2.334920634920635063e+00,-8.795279225380997425e-05,-2.626748647563141969e-05
2.335714285714285854e+00,-1.024735474214630922e-04,-5.778877728234944948e-05
2.336507936507936645e+00,-1.057732268118306070e-04,-8.798884849266824164e-05
2.337301587301587436e+00,-9.804427041287771649e-05,-1.092882135235548769e-04
2.338095238095238226e+00,-8.121592992586200964e-05,-1.150970116782469783e-04
2.338888888888889017e+00,-5.842350723911469702e-05,-1.013928694722945580e-04
2.339682539682539808e+00,-3.330871872543729277e-05,-6.780680384235844777e-05
2.340476190476190599e+00,-9.309403892345294150e-06,-1.793780956161872186e-05
2.341269841269841390e+00,1.091409136823362806e-05,4.119998238021945212e-05
2.342063492063492181e+00,2.581003060430501472e-05,1.004904277277975387e-04
2.342857142857142971e+00,3.498308948374374551e-05,1.505012462868622841e-04
2.343650793650793762e+00,3.899105143780856836e-05,1.833362050723488670e-04
2.344444444444444553e+00,3.898339668335698891e-05,1.941269428342593461e-04
2.345238095238095344e+00,3.630286575002460695e-05,1.818372603654354162e-04
2.346031746031746135e+00,3.215711099163177618e-05,1.492484102417456762e-04
2.346825396825396925e+00,2.742386482691447987e-05,1.022117157358124021e-04
2.347619047619047716e+00,2.260470700301904539e-05,4.841163570189870849e-05
2.348412698412698507e+00,1.790493700704705307e-05,-4.060208812872133806e-06
2.349206349206349298e+00,1.339021492559841519e-05,-4.804576775740590055e-05
2.350000000000000089e+00,9.154172652510521009e-06,-7.837285207138559059e-05
2.350793650793650880e+00,5.432199803287185334e-06,-9.249732757206244414e-05
2.351587301587301670e+00,2.619347163189226040e-06,-9.068485873083603397e-05
2.352380952380952461e+00,1.188151844477269741e-06,-7.573837880721172571e-05
2.353174603174603252e+00,1.541929939965044841e-06,-5.232772941925427476e-05
2.353968253968254043e+00,3.866275057052588237e-06,-2.603149490983589339e-05
2.354761904761904834e+00,8.043373501043362423e-06,-2.256768729246935197e-06
2.355555555555555625e+00,1.366649502537628040e-05,1.475478936051510287e-05
2.356349206349206415e+00,2.014765911573490384e-05,2.262138902398070199e-05
2.357142857142857206e+00,2.687188735440660189e-05,2.105870205306523615e-05
2.357936507936507997e+00,3.333363792005425837e-05,1.162254474136081622e-05
2.358730158730158788e+00,3.919918264712501964e-05,-2.933431160847950392e-06
2.359523809523809579e+00,4.426741380804704082e-05,-1.946275364874348044e-05
2.360317460317460370e+00,4.834177901238656370e-05,-3.514818996650345462e-05
2.361111111111111160e+00,5.106689420065171805e-05,-4.796338792684619882e-05
2.361904761904761951e+00,5.181113753763534954e-05,-5.681162430779164310e-05
2.362698412698412742e+00,4.967620317128890542e-05,-6.138824675947360178e-05
2.363492063492063533e+00,4.367749576445481362e-05,-6.188554720669695497e-05
2.364285714285714324e+00,3.307203598972020787e-05,-5.868368057175222727e-05
2.365079365079365115e+00,1.773819510359548574e-05,-5.214830674107683679e-05
2.365873015873015905e+00,-1.531651896036124131e-06,-4.259454469232036746e-05
2.366666666666666696e+00,-2.295447306034079216e-05,-3.040089462478755402e-05
2.367460317460317487e+00,-4.396287149051566117e-05,-1.619449583640780174e-05
2.368253968253968278e+00,-6.167055865296500422e-05,-1.000026049079422153e-06
2.369047619047619069e+00,-7.348479764058127360e-05,1.374526468430823501e-05
2.369841269841269860e+00,-7.769682561817375856e-05,2.636244808030002598e-05
2.370634920634920650e+00,-7.387827464217826203e-05,3.527145365229994472e-05
2.371428571428571441e+00,-6.296784517053332644e-05,3.941480914779591811e-05
2.372222222222222232e+00,-4.702948252874166059e-05,3.863204277107108031e-05
2.373015873015873023e+00,-2.876386650047072928e-05,3.385047650313937815e-05
2.373809523809523814e+00,-1.092071384944722074e-05,2.700387459405814784e-05
2.374603174603174605e+00,4.230161017284242345e-06,2.066640773867632356e-05
2.375396825396825395e+00,1.525022322375919412e-05,1.747002419555905976e-05
2.376190476190476186e+00,2.165246259698318931e-05,1.943888156697181591e-05
2.376984126984126977e+00,2.380274470269531296e-05,2.741011340474636845e-05
2.377777777777777768e+00,2.266377978843475460e-05,4.069934042321111608e-05
2.378571428571428559e+00,1.946840725744954599e-05,5.710644933361338593e-05
2.379365079365079350e+00,1.540951792428876436e-05,7.326644107902073285e-05
2.380158730158730140e+00,1.141462950628973444e-05,8.527175607174013172e-05
2.380952380952380931e+00,8.041155403923075636e-06,8.944535881432393747e-05
2.381746031746031722e+00,5.491601003782916370e-06,8.311816539516387269e-05
2.382539682539682513e+00,3.715270881129879335e-06,6.525255387054922876e-05
2.383333333333333304e+00,2.544395145059696987e-06,3.676904768827506125e-05
2.384126984126984095e+00,1.813304892625347513e-06,4.897651501585669567e-07
2.384920634920634885e+00,1.425865475441627936e-06,-3.929990408127879189e-05
2.385714285714285676e+00,1.359752514717535371e-06,-7.757909201424830923e-05
2.386507936507936467e+00,1.618689090833390296e-06,-1.094501948586050315e-04
2.387301587301587258e+00,2.160900031965673186e-06,-1.309475535286372513e-04
2.388095238095238049e+00,2.840016991510268986e-06,-1.396432970658996074e-04
2.388888888888888840e+00,3.390614226698591616e-06,-1.349609413228771988e-04
2.389682539682539630e+00,3.474698673010049738e-06,-1.181712439707614305e-04
2.390476190476190421e+00,2.781539022608164425e-06,-9.208607947244584855e-05
2.391269841269841212e+00,1.147981632686348816e-06,-6.049590779194183332e-05
2.392063492063492003e+00,-1.349374517305473690e-06,-2.744071973861655353e-05
2.392857142857142794e+00,-4.373261603368409216e-06,3.537855661840916132e-06
2.393650793650793585e+00,-7.390434239554836023e-06,2.998265307237948867e-05
2.394444444444444375e+00,-9.799554148042356158e-06,5.079519893538310404e-05
2.395238095238095166e+00,-1.107707317447243992e-05,6.613993129643157189e-05
2.396031746031745957e+00,-1.089661854214032172e-05,7.703263872546900362e-05
2.396825396825396748e+00,-9.193789171295874290e-06,8.475628882235702161e-05
2.397619047619047539e+00,-6.167700627222325916e-06,9.029062906579248980e-05
2.398412698412698330e+00,-2.226660169184090791e-06,9.393233326255331743e-05
2.399206349206349120e+00,2.102658969466952669e-06,9.521786787202980934e-05
2.399999999999999911e+00,6.275947702637046652e-06,9.315351021338298405e-05
2.400793650793650702e+00,9.815651358670450977e-06,8.664453246505031522e-05
2.401587301587301493e+00,1.236236341133874112e-05,7.495131326431286769e-05
2.402380952380952284e+00,1.369194317183243195e-05,5.801501194946917772e-05
2.403174603174603075e+00,1.371054531605132502e-05,3.657300342654645130e-05
2.403968253968253865e+00,1.244443184760446455e-05,1.207516230137873423e-05
2.404761904761904656e+00,1.003542642727468593e-05,-1.352806160819021542e-05
2.405555555555555447e+00,6.740201502602283637e-06,-3.804273309320452848e-05
2.406349206349206238e+00,2.920779878152389817e-06,-5.927686054444892487e-05
2.407142857142857029e+00,-9.871355558906597560e-07,-7.525746908971408166e-05
2.407936507936507819e+00,-4.531188001460402971e-06,-8.443158689986652048e-05
2.408730158730158610e+00,-7.314441897631050189e-06,-8.586763924388617379e-05
2.409523809523809401e+00,-9.064205161423196245e-06,-7.945274991108220396e-05
2.410317460317460192e+00,-9.679471947892443463e-06,-6.604401268810424961e-05
2.411111111111110983e+00,-9.244724869496729006e-06,-4.749704895092384291e-05
2.411904761904761774e+00,-8.006252612363470679e-06,-2.649141372083972640e-05
2.412698412698412564e+00,-6.315944362770133946e-06,-6.121291071459121990e-06
2.413492063492063355e+00,-4.555058990360033381e-06,1.068612157809493649e-05
2.414285714285714146e+00,-3.055260733862384111e-06,2.176693814466956875e-05
2.415079365079364937e+00,-2.034956775579222735e-06,2.613668269311976685e-05
2.415873015873015728e+00,-1.565048346535150847e-06,2.408571497653263355e-05
2.416666666666666519e+00,-1.570501774240645572e-06,1.693820233434844996e-05
2.417460317460317309e+00,-1.864901545131720528e-06,6.587081545093669429e-06
2.418253968253968100e+00,-2.206985021476076968e-06,-5.015010156265223217e-06
2.419047619047618891e+00,-2.363434405231611709e-06,-1.624347775364867443e-05
2.419841269841269682e+00,-2.162411539931703919e-06,-2.597735046430047601e-05
2.420634920634920473e+00,-1.527046888651680461e-06,-3.356560276824617912e-05
2.421428571428571264e+00,-4.848572495535103439e-07,-3.866272419120592152e-05
2.422222222222222054e+00,8.449639488653112218e-07,-4.104524031354334079e-05
2.423015873015872845e+00,2.280651242542512727e-06,-4.050528227841956446e-05
2.423809523809523636e+00,3.615987102649805764e-06,-3.686577191372743652e-05
2.424603174603174427e+00,4.660058189127837940e-06,-3.009975700699527758e-05
2.425396825396825218e+00,5.272212043532545560e-06,-2.048950309285428850e-05
2.426190476190476009e+00,5.386809650117783207e-06,-8.745011280261306665e-06
2.426984126984126799e+00,5.023331203945889785e-06,3.981262983468466373e-06
2.427777777777777590e+00,4.279259441380219950e-06,1.620804995584188015e-05
2.428571428571428381e+00,3.306878327514679131e-06,2.635054305070302512e-05
2.429365079365079172e+00,2.279956399684807612e-06,3.301081096731921499e-05
2.430158730158729963e+00,1.359674366281259679e-06,3.526970680653806578e-05
2.430952380952380754e+00,6.686866205193775304e-07,3.290823171025697658e-05
2.431746031746031544e+00,2.779593048500715707e-07,2.649198232226834918e-05
2.432539682539682335e+00,2.055986809446027428e-07,1.728321017913192850e-05
2.433333333333333126e+00,4.231187279586382011e-07,6.997430243396397688e-06
2.434126984126983917e+00,8.638707749076126056e-07,-2.529811707811442017e-06
2.434920634920634708e+00,1.430482163203470118e-06,-9.681216226556224453e-06
2.435714285714285499e+00,2.001651636265719039e-06,-1.333050142045949267e-05
2.436507936507936289e+00,2.441238332301626896e-06,-1.301018018664600184e-05
2.437301587301587080e+00,2.612628521721030653e-06,-8.962533836503617498e-06
2.438095238095238315e+00,2.399167108460129844e-06,-2.076442572467442322e-06
2.438888888888889106e+00,1.728447859848327754e-06,6.281850296432325677e-06
2.439682539682539897e+00,5.954872045578873611e-07,1.452772246507051074e-05
2.440476190476190688e+00,-9.220939021029529769e-07,2.117182015426671325e-05
2.441269841269841478e+00,-2.663659703406692757e-06,2.512917325655702948e-05
2.442063492063492269e+00,-4.403682979974056612e-06,2.595066995895908870e-05
2.442857142857143060e+00,-5.886985350003788920e-06,2.391315780045704398e-05
2.443650793650793851e+00,-6.874569334904759237e-06,1.993642129520285263e-05
2.444444444444444642e+00,-7.190450199351078530e-06,1.533783177893996750e-05
2.445238095238095433e+00,-6.759494927350186455e-06,1.147717745621627668e-05
2.446031746031746223e+00,-5.627941969406232797e-06,9.378314224695034993e-06
2.446825396825397014e+00,-3.960960532688183185e-06,9.431173035292218879e-06
2.447619047619047805e+00,-2.014981318266667119e-06,1.126408219978040680e-05
2.448412698412698596e+00,-8.735505950906212209e-08,1.382955710567592154e-05
2.449206349206349387e+00,1.547488632475871642e-06,1.568334076414651669e-05
2.450000000000000178e+00,2.699720114666529882e-06,1.538148055815164602e-05
2.450793650793650968e+00,3.305440655415150254e-06,1.189003448861878493e-05
2.451587301587301759e+00,3.433964732179248304e-06,4.900858646010792971e-06
2.452380952380952550e+00,3.258174570609332916e-06,-5.027594437375424469e-06
2.453174603174603341e+00,2.997593742218923141e-06,-1.654022216931145899e-05
2.453968253968254132e+00,2.852472258858352864e-06,-2.774863101532931977e-05
2.454761904761904923e+00,2.948682699987494999e-06,-3.662469615644625107e-05
2.455555555555555713e+00,3.307694864898336578e-06,-4.143402769179779896e-05
2.456349206349206504e+00,3.846274538456270908e-06,-4.111397335816779284e-05
2.457142857142857295e+00,4.401372832258282826e-06,-3.551385972616708528e-05
2.457936507936508086e+00,4.770591020642422549e-06,-2.544185007216866504e-05
2.458730158730158877e+00,4.758059741010496212e-06,-1.250141272983765309e-05
2.459523809523809668e+00,4.217194606175771365e-06,1.251985996657875519e-06
2.460317460317460458e+00,3.083306623931971477e-06,1.375675817699303353e-05
2.461111111111111249e+00,1.390291125638213645e-06,2.338618072754175707e-05
2.461904761904762040e+00,-7.321810526897975200e-07,2.927490725677026119e-05
2.462698412698412831e+00,-3.080740608540635215e-06,3.144932183221975863e-05
2.463492063492063622e+00,-5.414930653338036181e-06,3.073090978739181120e-05
2.464285714285714413e+00,-7.500168341440516454e-06,2.844284040526289420e-05
2.465079365079365203e+00,-9.147665267005921605e-06,2.600380005924770829e-05
2.465873015873015994e+00,-1.024302799013386182e-05,2.452154553602839063e-05
2.466666666666666785e+00,-1.075822150301142938e-05,2.449185190439315553e-05
2.467460317460317576e+00,-1.074564360446275387e-05,2.567200575762795342e-05
2.468253968253968367e+00,-1.031704167169279390e-05,2.714850439713057770e-05
2.469047619047619158e+00,-9.612810776280371100e-06,2.757298550666405758e-05
2.469841269841269948e+00,-8.768673130927665555e-06,2.550762691491537110e-05
2.470634920634920739e+00,-7.887191296526031424e-06,1.980294246468348237e-05
2.471428571428571530e+00,-7.020794098300516443e-06,9.926282007525011135e-06
2.472222222222222321e+00,-6.170429312100502852e-06,-3.831450294132230288e-06
2.473015873015873112e+00,-5.299919108883821422e-06,-2.031985292616266735e-05
2.473809523809523903e+00,-4.361994934442366725e-06,-3.767730292780057934e-05
2.474603174603174693e+00,-3.329019740785537770e-06,-5.363650785153689215e-05
2.475396825396825484e+00,-2.219756356239924606e-06,-6.592560025247690407e-05
2.476190476190476275e+00,-1.113360396481561649e-06,-7.268242174803492598e-05
2.476984126984127066e+00,-1.437855282432271483e-07,-7.279675579344425343e-05
2.477777777777777857e+00,5.278347474056302050e-07,-6.610995010437775471e-05
2.478571428571428648e+00,7.594853132808798028e-07,-5.343161316349354805e-05
2.479365079365079438e+00,4.839003937965137663e-07,-3.637382667596436911e-05
2.480158730158730229e+00,-2.408687727518230074e-07,-1.704519625255826188e-05
2.480952380952381020e+00,-1.202562387846508812e-06,2.321584792097622909e-06
2.481746031746031811e+00,-2.041659911212708000e-06,1.972429289615099701e-05
2.482539682539682602e+00,-2.301160191526060186e-06,3.365757115410025866e-05
2.483333333333333393e+00,-1.516059563541812818e-06,4.325324266332444644e-05
2.484126984126984183e+00,6.716382014503386552e-07,4.829183226539852762e-05
2.484920634920634974e+00,4.396812582995072381e-06,4.910705643991452576e-05
2.485714285714285765e+00,9.485645159624227167e-06,4.641672756944701587e-05
2.486507936507936556e+00,1.543212934498474246e-05,4.111971465246687412e-05
2.487301587301587347e+00,2.145627124883909347e-05,3.410431630044533942e-05
2.488095238095238138e+00,2.663981175612062190e-05,2.611375048687959705e-05
2.488888888888888928e+00,3.010841077145251106e-05,1.769974289861590613e-05
2.489682539682539719e+00,3.121267410804783688e-05,9.263597760927911936e-06
2.490476190476190510e+00,2.966248189941071426e-05,1.149006799213508761e-06
2.491269841269841301e+00,2.558636776797913791e-05,-6.267419717537679330e-06
2.492063492063492092e+00,1.950912797916913477e-05,-1.253396828119270530e-05
2.492857142857142883e+00,1.225804378716838836e-05,-1.715106349632315464e-05
2.493650793650793673e+00,4.819417606273004321e-06,-1.966243247079554291e-05
2.494444444444444464e+00,-1.826947140428739212e-06,-1.978401121695369202e-05
2.495238095238095255e+00,-6.867093965615583624e-06,-1.753011656378976858e-05
2.496031746031746046e+00,-9.780952762435028914e-06,-1.329047213587393841e-05
2.496825396825396837e+00,-1.041833416230975052e-05,-7.819271525134296840e-06
2.497619047619047628e+00,-9.008341772565642798e-06,-2.121052315126544007e-06
2.498412698412698418e+00,-6.098388401639883932e-06,2.747977974217268745e-06
2.499206349206349209e+00,-2.434430940609584562e-06,5.913557864760901610e-06
2.500000000000000000e+00,1.190642959688145832e-06,6.887652220871170882e-06
2.500793650793650791e+00,4.085468832816802037e-06,5.685909467059862985e-06
2.501587301587301582e+00,5.773869389863993643e-06,2.824038788255938283e-06
2.502380952380952372e+00,6.054688398061643962e-06,-8.107759006090908720e-07
2.503174603174603163e+00,5.003481124344707855e-06,-4.186890659832590811e-06
2.503968253968253954e+00,2.922589783234200455e-06,-6.400862990210678049e-06
2.504761904761904745e+00,2.522219986479861467e-07,-6.925665337041897183e-06
2.505555555555555536e+00,-2.540993025921571747e-06,-5.763124441112693467e-06
2.506349206349206327e+00,-5.077783363234678744e-06,-3.450189476395641848e-06
2.507142857142857117e+00,-7.158298926349453028e-06,-9.100152663662100080e-07
2.507936507936507908e+00,-8.806532855999145399e-06,8.118480988792655052e-07
2.508730158730158699e+00,-1.024648021104759940e-05,8.471466895192242803e-07
2.509523809523809490e+00,-1.180681374304412932e-05,-1.251161027359006399e-06
2.510317460317460281e+00,-1.377833993589045058e-05,-5.393251849695989000e-06
2.511111111111111072e+00,-1.627450811448412612e-05,-1.099299755224559471e-05
2.511904761904761862e+00,-1.915368586786646957e-05,-1.713982449203153599e-05
2.512698412698412653e+00,-2.204248946964957866e-05,-2.283681615476507444e-05
2.513492063492063444e+00,-2.445689537835682317e-05,-2.722716360063840964e-05
2.514285714285714235e+00,-2.597175722289414167e-05,-2.974644893838852193e-05
2.515079365079365026e+00,-2.636336616877377388e-05,-3.017073005561991472e-05
2.515873015873015817e+00,-2.565858975161162476e-05,-2.856548303954567421e-05
2.516666666666666607e+00,-2.406647603115411412e-05,-2.516845125460119443e-05
2.517460317460317398e+00,-2.182573898898911390e-05,-2.025627600362681096e-05
2.518253968253968189e+00,-1.904516813918245930e-05,-1.404745324697321014e-05
2.519047619047618980e+00,-1.561846846339991316e-05,-6.680051790020282660e-06
2.519841269841269771e+00,-1.125710511365145684e-05,1.725886472925809253e-06
2.520634920634920562e+00,-5.628069696998887035e-06,1.094521324681432882e-05
2.521428571428571352e+00,1.459295776769730472e-06,2.051542557026757974e-05
2.522222222222222143e+00,9.885012170882685525e-06,2.965870407028201543e-05
2.523015873015872934e+00,1.912342947805906968e-05,3.731143024905154434e-05
2.523809523809523725e+00,2.825626713933645113e-05,4.228172440413928483e-05
2.524603174603174516e+00,3.610901387819597880e-05,4.350904054205231316e-05
2.525396825396825307e+00,4.149712576756269108e-05,4.035692839097874962e-05
2.526190476190476097e+00,4.352498327466868265e-05,3.284957280798021686e-05
2.526984126984126888e+00,4.184295187840064234e-05,2.177444660108575553e-05
2.527777777777777679e+00,3.676768608556747032e-05,8.612423171540167519e-06
2.528571428571428470e+00,2.921664292607774576e-05,-4.694021083036607711e-06
2.529365079365079261e+00,2.047628534972736588e-05,-1.608386912693361188e-05
2.530158730158730052e+00,1.188034887865012580e-05,-2.376126739611093139e-05
2.530952380952380842e+00,4.497337922145990617e-06,-2.654671691701741303e-05
2.531746031746031633e+00,-1.087578153166012130e-06,-2.412861448039361760e-05
2.532539682539682424e+00,-4.849115849931438170e-06,-1.715879894465397585e-05
2.533333333333333215e+00,-7.253437023227685871e-06,-7.155943691465944938e-06
2.534126984126984006e+00,-9.076304387465850926e-06,3.783743999602312767e-06
2.534920634920634797e+00,-1.115971618338568884e-05,1.341972986586766735e-05
2.535714285714285587e+00,-1.416505608134757610e-05,1.984654331618148661e-05
2.536507936507936378e+00,-1.837567614312434153e-05,2.189573300041420728e-05
2.537301587301587169e+00,-2.358866932581585662e-05,1.935198721484474846e-05
2.538095238095237960e+00,-2.911819161013933015e-05,1.293097465475041117e-05
2.538888888888888751e+00,-3.391376176409660435e-05,4.042103596981040904e-06
2.539682539682539542e+00,-3.677616194919829578e-05,-5.576239164731421686e-06
2.540476190476190332e+00,-3.663034957587616721e-05,-1.423366221814115861e-05
2.541269841269841123e+00,-3.279374071596681648e-05,-2.057767912129736140e-05
2.542063492063491914e+00,-2.516937379762122548e-05,-2.374393760666194020e-05
2.542857142857142705e+00,-1.430588246005656403e-05,-2.336899466696311048e-05
2.543650793650793496e+00,-1.300518385074891867e-06,-1.951222018949008691e-05
2.544444444444444287e+00,1.243243884920949366e-05,-1.255484159552351958e-05
2.545238095238095077e+00,2.546402202176351444e-05,-3.134341524083255785e-06
2.546031746031745868e+00,3.663737864081618539e-05,7.866382444868223202e-06
2.546825396825396659e+00,4.525629376097728976e-05,1.930424195338195490e-05
2.547619047619047450e+00,5.112150822932405038e-05,2.979688872105383505e-05
2.548412698412698241e+00,5.440914053892269671e-05,3.784080272272582487e-05
2.549206349206349032e+00,5.544097301865944405e-05,4.205498157050134648e-05
2.549999999999999822e+00,5.443872467858247170e-05,4.152125080828708011e-05
2.550793650793650613e+00,5.136255539402761658e-05,3.612907688782915794e-05
2.551587301587301404e+00,4.590119129020392549e-05,2.679227742030771770e-05
2.552380952380952195e+00,3.762219268691132138e-05,1.541358310816379440e-05
2.553174603174602986e+00,2.623206333693847602e-05,4.538560578640179861e-06
2.553968253968253777e+00,1.185697128970446256e-05,-3.254466756224894483e-06
2.554761904761904567e+00,-4.757073169402976905e-06,-6.074040283506372714e-06
2.555555555555555358e+00,-2.221041603577912952e-05,-3.323364766800842658e-06
2.556349206349206149e+00,-3.862679269419756707e-05,4.016995788898943578e-06
2.557142857142856940e+00,-5.202405999990527402e-05,1.355430250558612145e-05
2.557936507936507731e+00,-6.079528848639440355e-05,2.207463438892195743e-05
2.558730158730158522e+00,-6.416765818118602325e-05,2.639363940212705961e-05
2.559523809523809312e+00,-6.249190094893338637e-05,2.421529405704991734e-05
2.560317460317460103e+00,-5.724368070641555834e-05,1.475012107496201643e-05
2.561111111111110894e+00,-5.069056036429723177e-05,-1.072222840793828195e-06
2.561904761904761685e+00,-4.528153643534945803e-05,-2.083313379837767299e-05
2.562698412698412920e+00,-4.292017389624971766e-05,-4.120663891656429296e-05
2.563492063492063711e+00,-4.434435463113539188e-05,-5.871301610046979208e-05
2.564285714285714501e+00,-4.881992985632973957e-05,-7.044398518244281691e-05
2.565079365079365292e+00,-5.425984690309550097e-05,-7.460060027755580894e-05
2.565873015873016083e+00,-5.774513650799784124e-05,-7.075786653623764900e-05
2.566666666666666874e+00,-5.630672870168287690e-05,-5.984177310839992880e-05
2.567460317460317665e+00,-4.776173214955585868e-05,-4.385998527941222452e-05
2.568253968253968456e+00,-3.138599016655662174e-05,-2.546359994810197752e-05
2.569047619047619246e+00,-8.238225464911351760e-06,-7.432719826242424778e-06
2.569841269841270037e+00,1.897022890598117184e-05,7.823494160653324692e-06
2.570634920634920828e+00,4.644617003105054788e-05,1.867146838721154528e-05
2.571428571428571619e+00,7.017925685552962325e-05,2.449376796065629367e-05
2.572222222222222410e+00,8.686074625839938692e-05,2.571727533207736642e-05
2.573015873015873201e+00,9.460647215455019366e-05,2.361858723807338438e-05
2.573809523809523991e+00,9.331082099660434510e-05,1.994705851261687149e-05
2.574603174603174782e+00,8.457602593645740683e-05,1.645067648955957415e-05
2.575396825396825573e+00,7.126462675942687043e-05,1.441159937446480580e-05
2.576190476190476364e+00,5.679073286763074797e-05,1.429581026096199474e-05
2.576984126984127155e+00,4.430806645494811516e-05,1.560324206521218724e-05
2.577777777777777946e+00,3.597671661055232701e-05,1.697217497459515241e-05
2.578571428571428736e+00,3.248350388213471407e-05,1.653888753496424711e-05
2.579365079365079527e+00,3.293790981700321673e-05,1.248402424896171116e-05
2.580158730158730318e+00,3.517083082166281378e-05,3.632031626025645055e-06
2.580952380952381109e+00,3.635413367445582714e-05,-1.006285298701645834e-05
2.581746031746031900e+00,3.377354199988819776e-05,-2.729371549492146318e-05
2.582539682539682691e+00,2.555534234777446967e-05,-4.552692223304830792e-05
2.583333333333333481e+00,1.117313100542432914e-05,-6.147135495118910900e-05
2.584126984126984272e+00,-8.374152363950596598e-06,-7.179133296564602605e-05
2.584920634920635063e+00,-3.074083209284524955e-05,-7.388927048634095010e-05
2.585714285714285854e+00,-5.271767638039725801e-05,-6.655070326508877407e-05
2.586507936507936645e+00,-7.090174285853131182e-05,-5.026929361134606779e-05
2.587301587301587436e+00,-8.239801746627487911e-05,-2.715426605042966390e-05
2.588095238095238226e+00,-8.539942544010661950e-05,-4.437407380749990553e-07
2.588888888888889017e+00,-7.952771681338886432e-05,2.623752193019797751e-05
2.589682539682539808e+00,-6.587367266677408623e-05,4.966829396033852628e-05
2.590476190476190599e+00,-4.673622500914209089e-05,6.765675117909289069e-05
2.591269841269841390e+00,-2.511824035088258415e-05,7.934533293880668514e-05
2.592063492063492181e+00,-4.089637388922626700e-06,8.513705441257918706e-05
2.592857142857142971e+00,1.383047100157436978e-05,8.630448066440976943e-05
2.593650793650793762e+00,2.711279031534019000e-05,8.444172260320902644e-05
2.594444444444444553e+00,3.536529258826500170e-05,8.095332694679940910e-05
2.595238095238095344e+00,3.917181527314142459e-05,7.672379213107568922e-05
2.596031746031746135e+00,3.970525978816733073e-05,7.201171060358137459e-05
2.596825396825396925e+00,3.825764993732025431e-05,6.652559640034277151e-05
2.597619047619047716e+00,3.582895280167688830e-05,5.960448991541287173e-05
2.598412698412698507e+00,3.287418015302810600e-05,5.043966936414610419e-05
2.599206349206349298e+00,2.925503380712294067e-05,3.830277567969079416e-05
2.600000000000000089e+00,2.439720496436000231e-05,2.276488594890538821e-05
2.600793650793650880e+00,1.761299639218009806e-05,3.892856706450284304e-06
2.601587301587301670e+00,8.501209716241214771e-06,-1.760167258446174057e-05
2.602380952380952461e+00,-2.705780491360219456e-06,-4.029934238244533385e-05
2.603174603174603252e+00,-1.498164232928924436e-05,-6.214198189299647559e-05
2.603968253968254043e+00,-2.661279814830273807e-05,-8.066911427212452820e-05
2.604761904761904834e+00,-3.556109879454746745e-05,-9.342328579958464449e-05
2.605555555555555625e+00,-3.998459669439427528e-05,-9.846925033352286777e-05
2.606349206349206415e+00,-3.876945671548402277e-05,-9.491255841658395793e-05
2.607142857142857206e+00,-3.192226310254255034e-05,-8.326765523692694594e-05
2.607936507936507997e+00,-2.070575907226086053e-05,-6.553610121550729303e-05
2.608730158730158788e+00,-7.461763994941266114e-06,-4.491763262172590267e-05
2.609523809523809579e+00,4.858580506570440019e-06,-2.517702007597645764e-05
2.610317460317460370e+00,1.335954208362913799e-05,-9.799310414351053875e-06
2.611111111111111160e+00,1.590290666479437742e-05,-1.148986661629900635e-06
2.611904761904761951e+00,1.166742555268386288e-05,1.279549404253318280e-07
2.612698412698412742e+00,1.412988901527842490e-06,-4.727099935702455752e-06
2.613492063492063533e+00,-1.263066071587735413e-05,-1.291378813165666247e-05
2.614285714285714324e+00,-2.723593182183485823e-05,-2.082483070608189059e-05
2.615079365079365115e+00,-3.890540001942022446e-05,-2.503095430803651007e-05
2.615873015873015905e+00,-4.468592405366071375e-05,-2.324304072270291387e-05
2.616666666666666696e+00,-4.287049388246116054e-05,-1.498749017562637717e-05
2.617460317460317487e+00,-3.340739501854895192e-05,-1.782591487077293051e-06
2.618253968253968278e+00,-1.790528598798729864e-05,1.327519788115337883e-05
2.619047619047619069e+00,7.671466114228898004e-07,2.642695649675936434e-05
2.619841269841269860e+00,1.916822876264510841e-05,3.439801457068500243e-05
2.620634920634920650e+00,3.405482522227018641e-05,3.540174099149543248e-05
2.621428571428571441e+00,4.302817402576383321e-05,2.966534941253987472e-05
2.622222222222222232e+00,4.491321399385944532e-05,1.931480897149455772e-05
2.623015873015873023e+00,3.983658388804280385e-05,7.682971437167244544e-06
2.623809523809523814e+00,2.905772760051519065e-05,-1.709413943936329028e-06
2.624603174603174605e+00,1.464904768283202926e-05,-6.167680051855696396e-06
2.625396825396825395e+00,-8.847355332180843177e-07,-4.531511500144422868e-06
2.626190476190476186e+00,-1.499094027071625326e-05,2.605673446639847754e-06
2.626984126984126977e+00,-2.543403932097691893e-05,1.319189037734546238e-05
2.627777777777777768e+00,-3.063183899270087353e-05,2.440111497350659858e-05
2.628571428571428559e+00,-2.993823650035933910e-05,3.347625662153211210e-05
2.629365079365079350e+00,-2.381702956537358259e-05,3.846835996794013813e-05
2.630158730158730140e+00,-1.382863535501419931e-05,3.866461616391173717e-05
2.630952380952380931e+00,-2.363691072804389215e-06,3.461746118853045734e-05
2.631746031746031722e+00,7.880752891597205134e-06,2.782093295127393182e-05
2.632539682539682513e+00,1.458611547435925039e-05,2.017722973085786541e-05
2.633333333333333304e+00,1.646463029265557223e-05,1.343065349530855841e-05
2.634126984126984095e+00,1.364995453532666810e-05,8.722898430861728518e-06
2.634920634920634885e+00,7.661883503700185648e-06,6.366617916755605416e-06
2.635714285714285676e+00,9.319170440173132677e-07,5.867971610889993305e-06
2.636507936507936467e+00,-3.955908276072773316e-06,6.167121511526082421e-06
2.637301587301587258e+00,-5.050690593203757857e-06,6.014669985538430102e-06
2.638095238095238049e+00,-1.590482373793828231e-06,4.370696904555639347e-06
2.638888888888888840e+00,5.832288348500330211e-06,7.123723034502770588e-07
2.639682539682539630e+00,1.551287049750617013e-05,-4.831126000136328766e-06
2.640476190476190421e+00,2.516644090825116887e-05,-1.154209986318770168e-05
2.641269841269841212e+00,3.255679229319378466e-05,-1.834200841417639728e-05
2.642063492063492003e+00,3.603111176541487661e-05,-2.410280476661201730e-05
2.642857142857142794e+00,3.483809033089197110e-05,-2.794160085500142692e-05
2.643650793650793585e+00,2.919631547536029204e-05,-2.941067700981909043e-05
2.644444444444444375e+00,2.015114288137639188e-05,-2.853597333210362968e-05
2.645238095238095166e+00,9.292886487836283466e-06,-2.571373612204265100e-05
2.646031746031745957e+00,-1.586460136479023598e-06,-2.152509577175026957e-05
2.646825396825396748e+00,-1.082916300115715547e-05,-1.654965362749473643e-05
2.647619047619047539e+00,-1.718222515391799364e-05,-1.124253371304354272e-05
2.648412698412698330e+00,-1.996093488663209695e-05,-5.897127034223412841e-06
2.649206349206349120e+00,-1.909230963526906388e-05,-6.743018207336164870e-07
2.649999999999999911e+00,-1.505705459806280586e-05,4.339464185018030488e-06
2.650793650793650702e+00,-8.765927065342617660e-06,9.073971433993029975e-06
2.651587301587301493e+00,-1.401574240582123603e-06,1.342598009407039339e-05
2.652380952380952284e+00,5.757812466325340556e-06,1.721624251497544004e-05
2.653174603174603075e+00,1.152355203545223327e-05,2.015613046311067681e-05
2.653968253968253865e+00,1.497453571814055805e-05,2.184019595179003266e-05
2.654761904761904656e+00,1.560164319009785350e-05,2.178698420864821255e-05
2.655555555555555447e+00,1.338737010062273639e-05,1.954260554696240338e-05
2.656349206349206238e+00,8.797616441598915061e-06,1.484005099648300542e-05
2.657142857142857029e+00,2.681913152988740246e-06,7.774699905806722910e-06
2.657936507936507819e+00,-3.899225523831249568e-06,-1.074684304143894891e-06
2.658730158730158610e+00,-9.885003950991505794e-06,-1.065411582052722251e-05
2.659523809523809401e+00,-1.442164938622149945e-05,-1.960466414065866768e-05
2.660317460317460192e+00,-1.702514193269810498e-05,-2.655611923307899804e-05
2.661111111111110983e+00,-1.766411533410211398e-05,-3.044706155317291333e-05
2.661904761904761774e+00,-1.674154051890970867e-05,-3.076443536667911494e-05
2.662698412698412564e+00,-1.497592314112962741e-05,-2.763415230708896170e-05
2.663492063492063355e+00,-1.320779248328061686e-05,-2.175216367934209113e-05
2.664285714285714146e+00,-1.217739116515643397e-05,-1.419142570478096125e-05
2.665079365079364937e+00,-1.232858084903847000e-05,-6.142004318502317233e-06
2.665873015873015728e+00,-1.368882876332247515e-05,1.353354698479197906e-06
2.666666666666666519e+00,-1.585583185280215609e-05,7.606889911067740930e-06
2.667460317460317309e+00,-1.809262451770678049e-05,1.238256671855164504e-05
2.668253968253968100e+00,-1.950404335057812357e-05,1.584986594447345223e-05
2.669047619047618891e+00,-1.924828181593485566e-05,1.840401617599499712e-05
2.669841269841269682e+00,-1.673417378355720209e-05,2.041173620807780232e-05
2.670634920634920473e+00,-1.176649369815617226e-05,2.197622679617701038e-05
2.671428571428571264e+00,-4.618948848130293256e-06,2.281512829954295717e-05
2.672222222222222054e+00,3.973318094907474175e-06,2.230778323701396098e-05
2.673015873015872845e+00,1.290582659930174510e-05,1.970751164902898462e-05
2.673809523809523636e+00,2.088001326422473376e-05,1.445233225460389892e-05
2.674603174603174427e+00,2.664193765122480607e-05,6.465759026619131338e-06
2.675396825396825218e+00,2.923700979738280939e-05,-3.664172669410733755e-06
2.676190476190476009e+00,2.821503499117017870e-05,-1.470001093808805452e-05
2.676984126984126799e+00,2.372814587637656105e-05,-2.496979077528537586e-05
2.677777777777777590e+00,1.649771298193350062e-05,-3.272172607335091862e-05
2.678571428571428381e+00,7.666872282502111240e-06,-3.651703089576120595e-05
2.679365079365079172e+00,-1.416905826851895445e-06,-3.555145939983981690e-05
2.680158730158729963e+00,-9.437603174912799063e-06,-2.982235790916422000e-05
2.680952380952380754e+00,-1.532092313156037527e-05,-2.010914640606595790e-05
2.681746031746031544e+00,-1.838764354479514320e-05,-7.791721956664153346e-06
2.682539682539682335e+00,-1.843054456121339486e-05,5.429149912159811438e-06
2.683333333333333126e+00,-1.570709600930141091e-05,1.783452010910888024e-05
2.684126984126983917e+00,-1.085313816225424335e-05,2.795054122357698066e-05
2.684920634920634708e+00,-4.736599220584976013e-06,3.473165298290457420e-05
2.685714285714285499e+00,1.718498814766920652e-06,3.764562060242667677e-05
2.686507936507936289e+00,7.702540990821318915e-06,3.666560227831494389e-05
2.687301587301587080e+00,1.265161757304014960e-05,3.219565172106156364e-05
2.688095238095238315e+00,1.631183635545327030e-05,2.496614481184745789e-05
2.688888888888889106e+00,1.872002243581533156e-05,1.592837752320637167e-05
2.689682539682539897e+00,2.010320670964259112e-05,6.158144764886445101e-06
2.690476190476190688e+00,2.072408830173832404e-05,-3.240152972142469242e-06
2.691269841269841478e+00,2.072162218425898535e-05,-1.124171807175483457e-05
2.692063492063492269e+00,2.000472852683652086e-05,-1.702206339549900863e-05
2.692857142857143060e+00,1.824572861403374357e-05,-2.007056767224418202e-05
2.693650793650793851e+00,1.498841383983309528e-05,-2.026561970546972318e-05
2.694444444444444642e+00,9.843011590643191441e-06,-1.788513456572990947e-05
2.695238095238095433e+00,2.702820154890754493e-06,-1.354476789280223454e-05
2.696031746031746223e+00,-6.098611984308214747e-06,-8.078374666207217955e-06
2.696825396825397014e+00,-1.575453393930003948e-05,-2.391156872682793167e-06
2.697619047619047805e+00,-2.509492370803509352e-05,2.680673655418319773e-06
2.698412698412698596e+00,-3.280294317885443722e-05,6.479069905870903957e-06
2.699206349206349387e+00,-3.766748414471163628e-05,8.592536042208928705e-06
2.700000000000000178e+00,-3.880430290716806077e-05,8.885240778994467055e-06
2.700793650793650968e+00,-3.580728816453847328e-05,7.490708222769959396e-06
2.701587301587301759e+00,-2.882083749678016638e-05,4.771629879305563586e-06
2.702380952380952550e+00,-1.853813866715585003e-05,1.248416144150096667e-06
2.703174603174603341e+00,-6.132789728231279778e-06,-2.493553293884454881e-06
2.703968253968254132e+00,6.865555201176226454e-06,-5.899407420495524467e-06
2.704761904761904923e+00,1.873526561851165831e-05,-8.522242704877460297e-06
2.705555555555555713e+00,2.775007885773003518e-05,-1.006929814796551554e-05
2.706349206349206504e+00,3.238175107804950009e-05,-1.041644843414702719e-05
2.707142857142857295e+00,3.151979746224972613e-05,-9.600552889247735672e-06
2.707936507936508086e+00,2.470787921213058261e-05,-7.800600463732953698e-06
2.708730158730158877e+00,1.237329699409300133e-05,-5.312964610771330169e-06
2.709523809523809668e+00,-4.011683509698589851e-06,-2.520159692360356963e-06
2.710317460317460458e+00,-2.192577918460581160e-05,1.488391467183158093e-07
2.711111111111111249e+00,-3.803137837639566107e-05,2.266935786031453148e-06
2.711904761904762040e+00,-4.866919050004585041e-05,3.465080381907759659e-06
2.712698412698412831e+00,-5.056022755198623657e-05,3.494015914251693984e-06
2.713492063492063622e+00,-4.158402359972810872e-05,2.283693057231899789e-06
2.714285714285714413e+00,-2.145148392993503287e-05,-1.614005815123375521e-08
2.715079365079365203e+00,7.920149795066389690e-06,-3.034274330863444378e-06
2.715873015873015994e+00,4.248527958633375036e-05,-6.227650397723339092e-06
2.716666666666666785e+00,7.666735467659613334e-05,-8.977792149355553136e-06
2.717460317460317576e+00,1.044116380361141905e-04,-1.071301123657175599e-05
2.718253968253968367e+00,1.204823771093460047e-04,-1.102709654952162399e-05
2.719047619047619158e+00,1.216743162661927197e-04,-9.766887358476578556e-06
2.719841269841269948e+00,1.075758344067867739e-04,-7.069135978555109466e-06
2.720634920634920739e+00,8.062241786294090595e-05,-3.337601212653664409e-06
2.721428571428571530e+00,4.540606801465530101e-05,8.368017622882163157e-07
2.722222222222222321e+00,7.471347439955533392e-06,4.796851862819161170e-06
2.723015873015873112e+00,-2.799392153690508854e-05,7.953226384654352784e-06
2.723809523809523903e+00,-5.716171488145836883e-05,9.899516776210541598e-06
2.724603174603174693e+00,-7.801219377989440445e-05,1.048087317605238898e-05
2.725396825396825484e+00,-9.021828630381954230e-05,9.802727841247274178e-06
2.726190476190476275e+00,-9.465562050956043540e-05,8.182693524679513796e-06
2.726984126984127066e+00,-9.280673137806511779e-05,6.063499168385823506e-06
2.727777777777777857e+00,-8.628542411742358583e-05,3.913751703980397802e-06
2.728571428571428648e+00,-7.659138687323407675e-05,2.143082682600190961e-06
2.729365079365079438e+00,-6.507706694471492232e-05,1.048343579439314050e-06
2.730158730158730229e+00,-5.301537052922125089e-05,7.926740372567914812e-07
2.730952380952381020e+00,-4.162965902458891929e-05,1.407733873908103639e-06
2.731746031746031811e+00,-3.199618532351789434e-05,2.807050194124995112e-06
2.732539682539682602e+00,-2.482758624518733158e-05,4.803796155489011805e-06
2.733333333333333393e+00,-2.023900321362396789e-05,7.132232446017133193e-06
2.734126984126984183e+00,-1.763185251653767770e-05,9.473564637384379914e-06
2.734920634920634974e+00,-1.578511598566964872e-05,1.148599655345815875e-05
2.735714285714285765e+00,-1.314792813094417165e-05,1.283895912159390357e-05
2.736507936507936556e+00,-8.236512063420327467e-06,1.325169976096982359e-05
2.737301587301587347e+00,-1.732106646254797807e-09,1.253322080944699381e-05
2.738095238095238138e+00,1.193778047738851081e-05,1.061525513465351040e-05
2.738888888888888928e+00,2.723377764562536204e-05,7.568081738910617217e-06
2.739682539682539719e+00,4.488622469869108086e-05,3.593441063937782535e-06
2.740476190476190510e+00,6.339022840268466552e-05,-1.002957021114177734e-06
2.741269841269841301e+00,8.088554936441360189e-05,-5.849642947047114419e-06
2.742063492063492092e+00,9.528627234168187570e-05,-1.054611762476319797e-05
2.742857142857142883e+00,1.044283740208236410e-04,-1.468962321131337885e-05
2.743650793650793673e+00,1.063066767942483248e-04,-1.789226209839761604e-05
2.744444444444444464e+00,9.944166751174634265e-05,-1.979830353980687179e-05
2.745238095238095255e+00,8.332161661265166902e-05,-2.011583259423407251e-05
2.746031746031746046e+00,5.876225110839450549e-05,-1.867197977390384886e-05
2.746825396825396837e+00,2.799554160929309832e-05,-1.548754440924346437e-05
2.747619047619047628e+00,-5.617896108684515167e-06,-1.084995697542463009e-05
2.748412698412698418e+00,-3.820080646205914086e-05,-5.350453028993075962e-06
2.749206349206349209e+00,-6.610484742943114169e-05,1.501832698576373881e-07
2.750000000000000000e+00,-8.655577778736194201e-05,4.647507086933949170e-06
2.750793650793650791e+00,-9.802720613271575676e-05,7.200900937843760294e-06
2.751587301587301582e+00,-1.002891693657930388e-04,7.178884984365669787e-06
2.752380952380952372e+00,-9.418551036653242232e-05,4.475325184337965338e-06
2.753174603174603163e+00,-8.125759334854221313e-05,-3.736532674417860279e-07
2.753968253968253954e+00,-6.334886086519322165e-05,-6.223455664579981145e-06
2.754761904761904745e+00,-4.230414872358765813e-05,-1.151999683275224845e-05
2.755555555555555536e+00,-1.982897448763282054e-05,-1.463244591251984484e-05
2.756349206349206327e+00,2.491663710407809171e-06,-1.424658332492500674e-05
2.757142857142857117e+00,2.308223844569635792e-05,-9.722268619106729385e-06
2.757936507936507908e+00,4.028599560125609174e-05,-1.322684293512612631e-06
2.758730158730158699e+00,5.240640916302754181e-05,9.747901706850669608e-06
2.759523809523809490e+00,5.793492928106647654e-05,2.151963439923521314e-05
2.760317460317460281e+00,5.592293439340334022e-05,3.162439126893359470e-05
2.761111111111111072e+00,4.636555738997700241e-05,3.779069708352057484e-05
2.761904761904761862e+00,3.042967267499445478e-05,3.836229837440363122e-05
2.762698412698412653e+00,1.040130414238845337e-05,3.271421143907033232e-05
2.763492063492063444e+00,-1.067015398208384956e-05,2.145484774657995092e-05
2.764285714285714235e+00,-2.954269388725226211e-05,6.357497411833912979e-06
2.765079365079365026e+00,-4.340917011137886502e-05,-9.964822810379246533e-06
2.765873015873015817e+00,-5.041522885232688417e-05,-2.457073754559316553e-05
2.766666666666666607e+00,-4.994551344185691925e-05,-3.478525804723711548e-05
2.767460317460317398e+00,-4.262822477211309166e-05,-3.875810631648013936e-05
2.768253968253968189e+00,-3.008523308021445191e-05,-3.586262197295920297e-05
2.769047619047618980e+00,-1.451548517062250439e-05,-2.683520819120307352e-05
2.769841269841269771e+00,1.773024031841311493e-06,-1.361148440333261830e-05
2.770634920634920562e+00,1.677483198969796340e-05,1.108575207409536640e-06
2.771428571428571352e+00,2.906485509301085876e-05,1.446426671561888739e-05
2.772222222222222143e+00,3.790578233619623633e-05,2.406166097137582972e-05
2.773015873015872934e+00,4.319007298679822363e-05,2.847323656953653308e-05
2.773809523809523725e+00,4.525805434538812010e-05,2.748673653458947008e-05
2.774603174603174516e+00,4.465855230192700994e-05,2.204100490607402240e-05
2.775396825396825307e+00,4.192726320138077505e-05,1.386868494149506555e-05
2.776190476190476097e+00,3.744960721746330240e-05,4.948891885895054906e-06
2.776984126984126888e+00,3.145069612964540871e-05,-3.069155428245692786e-06
2.777777777777777679e+00,2.411628654412759887e-05,-9.300037914535261294e-06
2.778571428571428470e+00,1.579852458563348424e-05,-1.378627936723444247e-05
2.779365079365079261e+00,7.213700803197827632e-06,-1.735251951752940814e-05
2.780158730158730052e+00,-4.786751314326570860e-07,-2.120975442201372430e-05
2.780952380952380842e+00,-5.797434096622668936e-06,-2.644491159888935812e-05
2.781746031746031633e+00,-7.274126432757023529e-06,-3.355355938722266149e-05
2.782539682539682424e+00,-3.927849699750964036e-06,-4.214361146810567465e-05
2.783333333333333215e+00,4.260378144250557667e-06,-5.088069678566003458e-05
2.784126984126984006e+00,1.604363737922956051e-05,-5.768806818884149610e-05
2.784920634920634797e+00,2.892208679891470008e-05,-6.016405048166699178e-05
2.785714285714285587e+00,3.954284484307314001e-05,-5.613364237010516682e-05
2.786507936507936378e+00,4.444055464250306958e-05,-4.421142353921534443e-05
2.787301587301587169e+00,4.094661406421516378e-05,-2.423925568643520948e-05
2.788095238095237960e+00,2.800464358551662441e-05,2.510528972392124160e-06
2.788888888888888751e+00,6.623518899099829011e-06,3.341803389465521426e-05
2.789682539682539542e+00,-2.020088404965148020e-05,6.487544832380759408e-05
2.790476190476190332e+00,-4.809177008163077131e-05,9.286560295577952920e-05
2.791269841269841123e+00,-7.225279616078706313e-05,1.136606789340086288e-04
2.792063492063491914e+00,-8.851391579192408997e-05,1.245045819780372129e-04
2.792857142857142705e+00,-9.418768629915145866e-05,1.241228783233899052e-04
2.793650793650793496e+00,-8.853922255608228774e-05,1.129275992166173633e-04
2.794444444444444287e+00,-7.279528157175673851e-05,9.285956599268681386e-05
2.795238095238095077e+00,-4.974262254857229659e-05,6.691649103142210085e-05
2.796031746031745868e+00,-2.305621172599446123e-05,3.850792807827306882e-05
2.796825396825396659e+00,3.462579428055226141e-06,1.081869953232319967e-05
2.797619047619047450e+00,2.656427229145721599e-05,-1.366316007516154699e-05
2.798412698412698241e+00,4.401204212790941502e-05,-3.337280168288249145e-05
2.799206349206349032e+00,5.475330876246953997e-05,-4.765565050639279453e-05
2.799999999999999822e+00,5.880919484975616113e-05,-5.658488443142241202e-05
2.800793650793650613e+00,5.696805310146471374e-05,-6.070239736277657636e-05
2.801587301587301404e+00,5.041695001418429023e-05,-6.076954043366585711e-05
2.802380952380952195e+00,4.043283162841391468e-05,-5.759212426306891037e-05
2.803174603174602986e+00,2.819222965176797018e-05,-5.194956387951620025e-05
2.803968253968253777e+00,1.469228654020066953e-05,-4.461072459323794448e-05
2.804761904761904567e+00,7.466810905629083413e-07,-3.637685277151292217e-05
2.805555555555555358e+00,-1.297630279880974057e-05,-2.808224652047588049e-05
2.806349206349206149e+00,-2.589783227504991641e-05,-2.051435992891228747e-05
2.807142857142856940e+00,-3.747668318040494635e-05,-1.426698381522852631e-05
2.807936507936507731e+00,-4.717916509271205370e-05,-9.583713770754694508e-06
2.808730158730158522e+00,-5.448002443090411116e-05,-6.266194420224565285e-06
2.809523809523809312e+00,-5.889866540355212727e-05,-3.709888486072582885e-06
2.810317460317460103e+00,-6.007262032845258985e-05,-1.093177414958286055e-06
2.811111111111110894e+00,-5.785738460280388090e-05,2.311160148653470525e-06
2.811904761904761685e+00,-5.241590963691159687e-05,6.795727841164101293e-06
2.812698412698412920e+00,-4.424347668941501526e-05,1.198263118848410506e-05
2.813492063492063711e+00,-3.409009260359629372e-05,1.680950868652139379e-05
2.814285714285714501e+00,-2.279224735970833345e-05,1.977836742414822803e-05
2.815079365079365292e+00,-1.107788509957770835e-05,1.940263496607028801e-05
2.815873015873016083e+00,5.711090888605814085e-07,1.470504066696538775e-05
2.816666666666666874e+00,1.193647460087603891e-05,5.597298942823157147e-06
2.817460317460317665e+00,2.294964348318062291e-05,-6.981426597997846744e-06
2.818253968253968456e+00,3.349154739776023933e-05,-2.120340783536424521e-05
2.819047619047619246e+00,4.319197867984127676e-05,-3.472058302332594676e-05
2.819841269841270037e+00,5.132296803026176538e-05,-4.516326932912938014e-05
2.820634920634920828e+00,5.685260350925861697e-05,-5.065348883383220910e-05
2.821428571428571619e+00,5.866897657498997074e-05,-5.022040182035520468e-05
2.822222222222222410e+00,5.591672102249301099e-05,-4.402418419412553228e-05
2.823015873015873201e+00,4.833539510918882619e-05,-3.333200343976080397e-05
2.823809523809523991e+00,3.647438742518920317e-05,-2.024453198489408211e-05
2.824603174603174782e+00,2.169584292356645141e-05,-7.235087186982000322e-06
2.825396825396825573e+00,5.953036617101170209e-06,3.381621402169466595e-06
2.826190476190476364e+00,-8.588793014687745123e-06,9.913891050891916799e-06
2.826984126984127155e+00,-1.997529633845235037e-05,1.158503144308351561e-05
2.827777777777777946e+00,-2.681591478044530896e-05,8.617771905872104212e-06
2.828571428571428736e+00,-2.848962027871718451e-05,2.144168943960057469e-06
2.829365079365079527e+00,-2.517644703060387666e-05,-5.995391897178211450e-06
2.830158730158730318e+00,-1.773297278863374693e-05,-1.351179164931989771e-05
2.830952380952381109e+00,-7.462415795516935448e-06,-1.796266366491493989e-05
2.831746031746031900e+00,4.151362098874656510e-06,-1.708176960080478414e-05
2.832539682539682691e+00,1.567550073479181784e-05,-9.139029515814243136e-06
2.833333333333333481e+00,2.587643384681753193e-05,6.691198137457525594e-06
2.834126984126984272e+00,3.377553428481950594e-05,3.000081876596969705e-05
2.834920634920635063e+00,3.864287957032442548e-05,5.892689567452020621e-05
2.835714285714285854e+00,3.998013605563341410e-05,9.012433962383952890e-05
2.836507936507936645e+00,3.753516844789646557e-05,1.190197856324868209e-04
2.837301587301587436e+00,3.135956453097647257e-05,1.403996721673567497e-04
2.838095238095238226e+00,2.188181278898691841e-05,1.493017307196720393e-04
2.838888888888889017e+00,9.944266966049232566e-06,1.420681242174262713e-04
2.839682539682539808e+00,-3.243100505831771903e-06,1.173290666777675699e-04
2.840476190476190599e+00,-1.624587651361943477e-05,7.665596135798947552e-05
2.841269841269841390e+00,-2.761541343100036764e-05,2.466479872486831187e-05
2.842063492063492181e+00,-3.610555969721743354e-05,-3.153981175112770540e-05
2.842857142857142971e+00,-4.083423267974467573e-05,-8.353134919797229282e-05
2.843650793650793762e+00,-4.135775289085232080e-05,-1.231270959571308609e-04
2.844444444444444553e+00,-3.766896065029101752e-05,-1.440258239041515456e-04
2.845238095238095344e+00,-3.015921487824541931e-05,-1.431540032160410049e-04
2.846031746031746135e+00,-1.958206183277959867e-05,-1.214012975600542590e-04
2.846825396825396925e+00,-7.028486453636509272e-06,-8.354031173618408376e-05
2.847619047619047716e+00,6.108504758455052086e-06,-3.729760369285480573e-05
2.848412698412698507e+00,1.821870124057878862e-05,8.251674233171739465e-06
2.849206349206349298e+00,2.763919627716265526e-05,4.460531000378762506e-05
2.850000000000000089e+00,3.289787027848652356e-05,6.560762354612488718e-05
2.850793650793650880e+00,3.299367860713721314e-05,6.863791227150661453e-05
2.851587301587301670e+00,2.763833641594168274e-05,5.493295828948047826e-05
2.852380952380952461e+00,1.737753620884679420e-05,2.900012979559949365e-05
2.853174603174603252e+00,3.538950333392952619e-06,-2.677000950848088146e-06
2.853968253968254043e+00,-1.198992440145221148e-05,-3.325812552893833078e-05
2.854761904761904834e+00,-2.709432139593755847e-05,-5.704720750134887160e-05
2.855555555555555625e+00,-3.978612056020097736e-05,-7.050874669527743737e-05
2.856349206349206415e+00,-4.849882948871634336e-05,-7.261990317305948403e-05
2.857142857142857206e+00,-5.227693440654315363e-05,-6.460167673013559328e-05
2.857936507936507997e+00,-5.084905783414245744e-05,-4.924069339790199253e-05
2.858730158730158788e+00,-4.459856034702360558e-05,-3.006863519945541984e-05
2.859523809523809579e+00,-3.445520082517718825e-05,-1.061351252642843437e-05
2.860317460317460370e+00,-2.173276503769751704e-05,6.167118768161818975e-06
2.861111111111111160e+00,-7.937633544901475730e-06,1.824939319836080408e-05
2.861904761904761951e+00,5.424718460211214830e-06,2.471849831965952960e-05
2.862698412698412742e+00,1.701798339761071178e-05,2.576781347391498794e-05
2.863492063492063533e+00,2.579777541320116800e-05,2.252589714364637517e-05
2.864285714285714324e+00,3.108299763401597087e-05,1.673391252577904458e-05
2.865079365079365115e+00,3.258446315959246417e-05,1.033659454444214184e-05
2.865873015873015905e+00,3.040557258080123129e-05,5.081262350514712237e-06
2.866666666666666696e+00,2.502515397727502730e-05,2.214765584879581929e-06
2.867460317460317487e+00,1.726198322675163670e-05,2.328732121709535557e-06
2.868253968253968278e+00,8.211378667273140671e-06,5.353473687991745582e-06
2.869047619047619069e+00,-8.585712598217334021e-07,1.066637942043926319e-05
2.869841269841269860e+00,-8.657429092047477443e-06,1.727294121498809955e-05
2.870634920634920650e+00,-1.405926643188099484e-05,2.402972622941792759e-05
2.871428571428571441e+00,-1.629333484423492131e-05,2.988673872010331889e-05
2.872222222222222232e+00,-1.509010805969293083e-05,3.411421761040267817e-05
2.873015873015873023e+00,-1.073740788800070952e-05,3.645336539847688874e-05
2.873809523809523814e+00,-4.024558161305962416e-06,3.712247853566016866e-05
2.874603174603174605e+00,3.914962699369506373e-06,3.664643726158157863e-05
2.875396825396825395e+00,1.182396998605930159e-05,3.555379872922864802e-05
2.876190476190476186e+00,1.855269348736284608e-05,3.406116040228923404e-05
2.876984126984126977e+00,2.325030851916425246e-05,3.188848366544541911e-05
2.877777777777777768e+00,2.548126401419777414e-05,2.829991378124310078e-05
2.878571428571428559e+00,2.525128291171930918e-05,2.236700009477625575e-05
2.879365079365079350e+00,2.294821488065470366e-05,1.335754761937408835e-05
2.880158730158730140e+00,1.921926340303024952e-05,1.107770492314274963e-06
2.880952380952380931e+00,1.481634559196589774e-05,-1.375004379752323090e-05
2.881746031746031722e+00,1.044424881672880572e-05,-2.977644941864999737e-05
2.882539682539682513e+00,6.641770090175923883e-06,-4.493651356141207002e-05
2.883333333333333304e+00,3.715477764755356517e-06,-5.698685578131009393e-05
2.884126984126984095e+00,1.731560219615151830e-06,-6.395499468146660562e-05
2.884920634920634885e+00,5.569479029759723595e-07,-6.460655305226548073e-05
2.885714285714285676e+00,-6.928587952337772765e-08,-5.878965105521186048e-05
2.886507936507936467e+00,-4.562112078423549078e-07,-4.756169389140583532e-05
2.887301587301587258e+00,-8.908160604617248926e-07,-3.304477280856700852e-05
2.888095238095238049e+00,-1.587171075947783519e-06,-1.801648953032795435e-05
2.888888888888888840e+00,-2.657562116699789380e-06,-5.312313374339436136e-06
2.889682539682539630e+00,-4.103870659211642381e-06,2.822896945372486909e-06
2.890476190476190421e+00,-5.826110860556066130e-06,5.266419099921593895e-06
2.891269841269841212e+00,-7.645157132170257025e-06,2.284812135127160184e-06
2.892063492063492003e+00,-9.336909936643608628e-06,-4.542957200377988583e-06
2.892857142857142794e+00,-1.067445813193920441e-05,-1.273507098058103456e-05
2.893650793650793585e+00,-1.147261835939807019e-05,-1.954978595535504697e-05
2.894444444444444375e+00,-1.162623756428893994e-05,-2.269635627950215796e-05
2.895238095238095166e+00,-1.113248508653461166e-05,-2.092215581350181439e-05
2.896031746031745957e+00,-1.009061282700359020e-05,-1.431227652977087457e-05
2.896825396825396748e+00,-8.679484112069326725e-06,-4.218963364687484393e-06
2.897619047619047539e+00,-7.119606810175305664e-06,7.151450553662532804e-06
2.898412698412698330e+00,-5.629271658195296086e-06,1.736386066654659643e-05
2.899206349206349120e+00,-4.383627707179014139e-06,2.440233157830137698e-05
2.899999999999999911e+00,-3.483130540370988978e-06,2.715606263809942485e-05
2.900793650793650702e+00,-2.935856380222161790e-06,2.562510482260132267e-05
2.901587301587301493e+00,-2.657457286658888113e-06,2.082574025260268283e-05
2.902380952380952284e+00,-2.491888015967261288e-06,1.446357630132260881e-05
2.903174603174603075e+00,-2.253055514807466621e-06,8.489344258815442439e-06
2.903968253968253865e+00,-1.780851004233646949e-06,4.651954592294697291e-06
2.904761904761904656e+00,-9.968386628630854805e-07,4.132616487748037902e-06
2.905555555555555447e+00,5.940710624863534932e-08,7.309989769362384354e-06
2.906349206349206238e+00,1.228521123157987992e-06,1.368637644350397205e-05
2.907142857142857029e+00,2.268396855903850948e-06,2.199156527027878658e-05
2.907936507936507819e+00,2.921441764305963103e-06,3.045441357181721776e-05
2.908730158730158610e+00,2.993807504158208963e-06,3.718888679532396499e-05
2.909523809523809401e+00,2.424451411422852258e-06,4.060218449669721855e-05
2.910317460317460192e+00,1.323409713515862634e-06,3.972306828302065519e-05
2.911111111111110983e+00,-3.521236157060437740e-08,3.437614342113565582e-05
2.911904761904761774e+00,-1.269639831717633049e-06,2.517908985053253921e-05
2.912698412698412564e+00,-1.986782535140098023e-06,1.339003676694977411e-05
2.913492063492063355e+00,-1.895826561940324754e-06,6.606388780013757648e-07
2.914285714285714146e+00,-9.081316414564646160e-07,-1.124767419616742443e-05
2.915079365079364937e+00,8.071815577617229542e-07,-2.074013087647815735e-05
2.915873015873015728e+00,2.833398793417801135e-06,-2.662723090882518001e-05
2.916666666666666519e+00,4.587782205098630285e-06,-2.830144998124282119e-05
2.917460317460317309e+00,5.461186020827767199e-06,-2.582911062949153923e-05
2.918253968253968100e+00,4.984280023414552249e-06,-1.993747900936009964e-05
2.919047619047618891e+00,2.976939333566214092e-06,-1.188810869458063276e-05
2.919841269841269682e+00,-3.630578348253052825e-07,-3.247616055720645834e-06
2.920634920634920473e+00,-4.462101098611142297e-06,4.407521683476514194e-06
2.921428571428571264e+00,-8.469564557145881360e-06,9.792348099573041850e-06
2.922222222222222054e+00,-1.143393099059882762e-05,1.215025240743118572e-05
2.923015873015872845e+00,-1.251789353302558567e-05,1.136557505240846110e-05
2.923809523809523636e+00,-1.120442418513329397e-05,7.926694553205878023e-06
2.924603174603174427e+00,-7.444989399711566181e-06,2.759303497000759231e-06
2.925396825396825218e+00,-1.709484007263862419e-06,-3.014677648972485235e-06
2.926190476190476009e+00,5.083779416387129855e-06,-8.324361249080544165e-06
2.926984126984126799e+00,1.175132816537248532e-05,-1.234572459082214189e-05
2.927777777777777590e+00,1.710137338176808119e-05,-1.461271011408642778e-05
2.928571428571428381e+00,2.019659004904721754e-05,-1.503711196037011673e-05
2.929365079365079172e+00,2.054531427992182708e-05,-1.385264438104265583e-05
2.930158730158729963e+00,1.816335991502447247e-05,-1.151195870891849690e-05
2.930952380952380754e+00,1.349638702762178626e-05,-8.569163831598356599e-06
2.931746031746031544e+00,7.247379015259498771e-06,-5.575455382942045859e-06
2.932539682539682335e+00,1.865660133000386298e-07,-3.004147877645846203e-06
2.933333333333333126e+00,-6.983177857252791843e-06,-1.207332614493275359e-06
2.934126984126983917e+00,-1.366844223574863172e-05,-3.947013542035646179e-07
2.934920634920634708e+00,-1.934821306958376788e-05,-6.214872628288322830e-07
2.935714285714285499e+00,-2.351321647315904269e-05,-1.779048380772919244e-06
2.936507936507936289e+00,-2.564809453524709507e-05,-3.593399581557572823e-06
2.937301587301587080e+00,-2.529239938346148755e-05,-5.645156403452908624e-06
2.938095238095238315e+00,-2.216282005603618834e-05,-7.423139643569616150e-06
2.938888888888889106e+00,-1.627808589707500480e-05,-8.413612326289425478e-06
2.939682539682539897e+00,-8.024379543953867310e-06,-8.212099028872767479e-06
2.940476190476190688e+00,1.869438918622030062e-06,-6.630766706225759094e-06
2.941269841269841478e+00,1.243325714953944259e-05,-3.767385003507279184e-06
2.942063492063492269e+00,2.258890156819149935e-05,-6.918993661313720884e-09
2.942857142857143060e+00,3.126717372243317138e-05,4.054179304274684705e-06
2.943650793650793851e+00,3.748531326056809090e-05,7.742344725670877097e-06
2.944444444444444642e+00,4.039792812947021064e-05,1.045554171545654389e-05
2.945238095238095433e+00,3.935918879462035913e-05,1.177384597902015755e-05
2.946031746031746223e+00,3.402803291784144678e-05,1.149709802700367289e-05
2.946825396825397014e+00,2.451135536509064210e-05,9.611072873205337238e-06
2.947619047619047805e+00,1.149476413314561752e-05,6.220020484206987677e-06
2.948412698412698596e+00,-3.714389100684219471e-06,1.499100371376253457e-06
2.949206349206349387e+00,-1.929391899249252034e-05,-4.294688971346438650e-06
2.950000000000000178e+00,-3.317718073539524829e-05,-1.075236904857170586e-05
2.950793650793650968e+00,-4.343600590535135798e-05,-1.722403783518547469e-05
2.951587301587301759e+00,-4.867423903517271343e-05,-2.277552254002365584e-05
2.952380952380952550e+00,-4.831664342227154710e-05,-2.624979506947289725e-05
2.953174603174603341e+00,-4.270877580813320145e-05,-2.645836817080988226e-05
2.953968253968254132e+00,-3.300420363526875386e-05,-2.247754475328247317e-05
2.954761904761904923e+00,-2.088103590588147052e-05,-1.397490861965455641e-05
2.955555555555555713e+00,-8.175983406507438269e-06,-1.458682566179319178e-06
2.956349206349206504e+00,3.463660458825792644e-06,1.365789269437760654e-05
2.957142857142857295e+00,1.283163378140229801e-05,2.924020341333765147e-05
2.957936507936508086e+00,1.928114092895218717e-05,4.284274343630492955e-05
2.958730158730158877e+00,2.271489419525097946e-05,5.223680816231786176e-05
2.959523809523809668e+00,2.347902946925992484e-05,5.589888356283358769e-05
2.960317460317460458e+00,2.220399098440596579e-05,5.332062456454314764e-05
2.961111111111111249e+00,1.963437383233862212e-05,4.506883123600386647e-05
2.961904761904762040e+00,1.648175485902350108e-05,3.260484640856593124e-05
2.962698412698412831e+00,1.332258963909748199e-05,1.793386473116325756e-05
2.963492063492063622e+00,1.054938952109670126e-05,3.181743407520306484e-06
2.964285714285714413e+00,8.370173227131565710e-06,-9.805364047896004037e-06
2.965079365079365203e+00,6.841299887142416046e-06,-1.976311408826896684e-05
2.965873015873015994e+00,5.914332363099688197e-06,-2.616559453047041849e-05
2.966666666666666785e+00,5.479442532622909851e-06,-2.922021973980623382e-05
2.967460317460317576e+00,5.395040690517410945e-06,-2.971413671645687138e-05
2.968253968253968367e+00,5.502664724336037662e-06,-2.875083372481161513e-05
2.969047619047619158e+00,5.633605860593936349e-06,-2.743657996170613799e-05
2.969841269841269948e+00,5.616315540630178069e-06,-2.658996529103246247e-05
2.970634920634920739e+00,5.290969943648826981e-06,-2.654677964560042550e-05
2.971428571428571530e+00,4.531694889500264166e-06,-2.711045058758509933e-05
2.972222222222222321e+00,3.271018907405207198e-06,-2.765779880036025879e-05
2.973015873015873112e+00,1.518022215787641033e-06,-2.736419302664029295e-05
2.973809523809523903e+00,-6.371990726551025178e-07,-2.547873903405993736e-05
2.974603174603174693e+00,-3.035484107460595807e-06,-2.157022562928394860e-05
2.975396825396825484e+00,-5.473911489340873878e-06,-1.567796070188929325e-05
2.976190476190476275e+00,-7.737102928670143282e-06,-8.330592953799765622e-06
2.976984126984127066e+00,-9.626172932312520336e-06,-4.317938964510251144e-07
2.977777777777777857e+00,-1.097929808574933426e-05,6.953741399843570225e-06
2.978571428571428648e+00,-1.168184977377046173e-05,1.285568383470099771e-05
2.979365079365079438e+00,-1.166773067345738243e-05,1.662888608902150022e-05
2.980158730158730229e+00,-1.091598486785156502e-05,1.810432983651658067e-05
2.980952380952381020e+00,-9.447499894560727770e-06,1.762683035487967690e-05
2.981746031746031811e+00,-7.325500634328277751e-06,1.597028833733650814e-05
2.982539682539682602e+00,-4.660866411132735935e-06,1.414499229332418660e-05
2.983333333333333393e+00,-1.619777489698855028e-06,1.313623658514897250e-05
2.984126984126984183e+00,1.572362162756832131e-06,1.363570677328093336e-05
2.984920634920634974e+00,4.638982846598381132e-06,1.583655466497851702e-05
2.985714285714285765e+00,7.279341839238243859e-06,1.935169041212442162e-05
2.986507936507936556e+00,9.215029993475975479e-06,2.328362003485386403e-05
2.987301587301587347e+00,1.024650951699758317e-05,2.643325062160014927e-05
2.988095238095238138e+00,1.030166235159772097e-05,2.759773081259168006e-05
2.988888888888888928e+00,9.457383319634635646e-06,2.588334783663374274e-05
2.989682539682539719e+00,7.923747727939483269e-06,2.095343218876110513e-05
2.990476190476190510e+00,5.994066052967422605e-06,1.314530798874498996e-05
2.991269841269841301e+00,3.976344904992983280e-06,3.423252484037631466e-06
2.992063492063492092e+00,2.126971079135360037e-06,-6.822662766466721670e-06
2.992857142857142883e+00,6.041223901749071950e-07,-1.608273012311491388e-05
2.993650793650793673e+00,-5.510579384977417560e-07,-2.306419252205869764e-05
2.994444444444444464e+00,-1.407581428556464489e-06,-2.697634720354738380e-05
2.995238095238095255e+00,-2.119634063525456469e-06,-2.769467970553384729e-05
2.996031746031746046e+00,-2.890825502922499236e-06,-2.576485974430310660e-05
2.996825396825396837e+00,-3.931781714435317909e-06,-2.224765274440696305e-05
2.997619047619047628e+00,-5.413139042081241322e-06,-1.844467347814921027e-05
2.998412698412698418e+00,-7.417462833117151315e-06,-1.557252971024031762e-05
2.999206349206349209e+00,-9.898061704047645749e-06,-1.446256471354561080e-05
3.000000000000000000e+00,-1.265705580927018023e-05,-1.535370703911067997e-05
3.000793650793650791e+00,-1.535554847958792385e-05,-1.782207443971729898e-05
3.001587301587301582e+00,-1.756316247232377672e-05,-2.086073249828846550e-05
3.002380952380952372e+00,-1.884341631591998945e-05,-2.309225541452167426e-05
3.003174603174603163e+00,-1.885873861470300437e-05,-2.307088221805473455e-05
3.003968253968253954e+00,-1.746849512041476641e-05,-1.961639287582954554e-05
3.004761904761904745e+00,-1.478922474136215790e-05,-1.211974066212367241e-05
3.005555555555555536e+00,-1.119173551071646810e-05,-7.634120467551857123e-07
3.006349206349206327e+00,-7.226359039231594192e-06,1.339890926921405307e-05
3.007142857142857117e+00,-3.492590975525634136e-06,2.854970484195324293e-05
3.007936507936507908e+00,-4.931932550257829283e-07,4.241447617879134138e-05
3.008730158730158699e+00,1.477403282273802423e-06,5.272074817448037395e-05
3.009523809523809490e+00,2.372723462599491743e-06,5.770089028127723378e-05
3.010317460317460281e+00,2.353210609505740105e-06,5.650110115661618484e-05
3.011111111111111072e+00,1.686681589245806744e-06,4.937946400254516999e-05
3.011904761904761862e+00,6.323022784152054614e-07,3.764054800232036663e-05
3.012698412698412653e+00,-6.447896958547633379e-07,2.333505836892238263e-05
3.013492063492063444e+00,-2.089783900296158216e-06,8.815978033777518858e-06
3.014285714285714235e+00,-3.689901847281684251e-06,-3.732517202132817078e-06
3.015079365079365026e+00,-5.343359338832983256e-06,-1.268799479207179458e-05
3.015873015873015817e+00,-6.730417429488172599e-06,-1.723254371918431062e-05
3.016666666666666607e+00,-7.275955299009405492e-06,-1.741641090239815352e-05
3.017460317460317398e+00,-6.270180009407446909e-06,-1.405489927000025834e-05
3.018253968253968189e+00,-3.136887922676552326e-06,-8.500880522210069748e-06
3.019047619047618980e+00,2.257455732841796506e-06,-2.349434281835093654e-06
3.019841269841269771e+00,9.413066409545896792e-06,2.868193077208911889e-06
3.020634920634920562e+00,1.724854241619097779e-05,5.952131137602619814e-06
3.021428571428571352e+00,2.440568054690332370e-05,6.226640502563042690e-06
3.022222222222222143e+00,2.968802079201010618e-05,3.636126340987958107e-06
3.023015873015872934e+00,3.244188065450822369e-05,-1.264990891214131044e-06
3.023809523809523725e+00,3.271801098336717069e-05,-7.427839660175005196e-06
3.024603174603174516e+00,3.116304363454938995e-05,-1.351885725870107649e-05
3.025396825396825307e+00,2.871375860370982221e-05,-1.819779740100347862e-05
3.026190476190476097e+00,2.623745336477987061e-05,-2.041870602982784639e-05
3.026984126984126888e+00,2.425705492997198693e-05,-1.969073982781747398e-05
3.027777777777777679e+00,2.284213047361450982e-05,-1.623053933182235498e-05
3.028571428571428470e+00,2.167316408421974324e-05,-1.095394853645510503e-05
3.029365079365079261e+00,2.022595148587365526e-05,-5.291291815723099442e-06
3.030158730158730052e+00,1.799251768703768746e-05,-8.578421577078706221e-07
3.030952380952380842e+00,1.465865016176382201e-05,9.436715544086203451e-07
3.031746031746031633e+00,1.018844909801540134e-05,-7.164694949786700466e-07
3.032539682539682424e+00,4.807647594889020365e-06,-5.874073649145132139e-06
3.033333333333333215e+00,-1.087409526049482813e-06,-1.375411231380073692e-05
3.034126984126984006e+00,-7.050721619670164703e-06,-2.295797764005447653e-05
3.034920634920634797e+00,-1.269445520221514053e-05,-3.178833604996126298e-05
3.035714285714285587e+00,-1.775444525804463722e-05,-3.860418443622421251e-05
3.036507936507936378e+00,-2.210299579351259920e-05,-4.210359453783368491e-05
3.037301587301587169e+00,-2.571660834662356022e-05,-4.147920015150529440e-05
3.038095238095237960e+00,-2.861888594641484896e-05,-3.645375214871488429e-05
3.038888888888888751e+00,-3.082239858467826060e-05,-2.724378648792414402e-05
3.039682539682539542e+00,-3.228708124673365627e-05,-1.449995349597905113e-05
3.040476190476190332e+00,-3.290102121775231598e-05,7.560485871375829329e-07
3.041269841269841123e+00,-3.247983349867189496e-05,1.720818940910388167e-05
3.042063492063491914e+00,-3.077921799970478623e-05,3.335826686524190159e-05
3.042857142857142705e+00,-2.752201179450794479e-05,4.768498150322730502e-05
3.043650793650793496e+00,-2.244979289187328368e-05,5.883734382222167601e-05
3.044444444444444287e+00,-1.540969002299720728e-05,6.582537858862407421e-05
3.045238095238095077e+00,-6.472316133243135545e-06,6.816054667894146611e-05
3.046031746031745868e+00,3.949292153990142813e-06,6.590883125974573617e-05
3.046825396825396659e+00,1.503099562400127305e-05,5.964501237708810599e-05
3.047619047619047450e+00,2.556916592759349871e-05,5.032341921622339334e-05
3.048412698412698241e+00,3.413416691226494291e-05,3.909776964739628604e-05
3.049206349206349032e+00,3.932362679888014930e-05,2.712810640235088051e-05
3.049999999999999822e+00,4.005491984711007498e-05,1.540907345535996988e-05
3.050793650793650613e+00,3.581885574799727954e-05,4.644657908750772698e-06
3.051587301587301404e+00,2.682519786883347167e-05,-4.816329713453621348e-06
3.052380952380952195e+00,1.400108930941181022e-05,-1.297909698419282793e-05
3.053174603174602986e+00,-1.154058182355876256e-06,-2.013764594675934865e-05
3.053968253968253777e+00,-1.681380768323272049e-05,-2.675285135318868182e-05
3.054761904761904567e+00,-3.110544652697395994e-05,-3.328949108288218310e-05
3.055555555555555358e+00,-4.236640850874746650e-05,-4.003939048984480567e-05
3.056349206349206149e+00,-4.933975403332055393e-05,-4.696821817801951650e-05
3.057142857142856940e+00,-5.129811404433661925e-05,-5.362582983690509977e-05
3.057936507936507731e+00,-4.810284295139214078e-05,-5.915145602885395106e-05
3.058730158730158522e+00,-4.021068100215488479e-05,-6.238897938855593179e-05
3.059523809523809312e+00,-2.863605568835973439e-05,-6.210834058395496864e-05
3.060317460317460103e+00,-1.486754545653143873e-05,-5.730638246278879183e-05
3.061111111111110894e+00,-7.280273809876442945e-07,-4.753305293356040130e-05
3.061904761904761685e+00,1.183316976913665731e-05,-3.316311345676990622e-05
3.062698412698412920e+00,2.101584679995353343e-05,-1.552316186785495243e-05
3.063492063492063711e+00,2.548786475731629005e-05,3.199424198363748267e-06
3.064285714285714501e+00,2.469482142799964307e-05,2.029371699074871804e-05
3.065079365079365292e+00,1.908611200526135152e-05,3.307103417389358250e-05
3.065873015873016083e+00,1.017619530574776607e-05,3.950961625691773986e-05
3.066666666666666874e+00,3.744824961919864799e-07,3.883073396232880641e-05
3.067460317460317665e+00,-7.441174131223572100e-06,3.182147586216075083e-05
3.068253968253968456e+00,-1.056258071147753802e-05,2.076355783082561683e-05
3.069047619047619246e+00,-7.169595085883806667e-06,8.933593891499767517e-06
3.069841269841270037e+00,3.073191145100241720e-06,-2.202482880846496012e-07
3.070634920634920828e+00,1.875290815728261710e-05,-3.999906134513435837e-06
3.071428571428571619e+00,3.690926715262675043e-05,-1.203460570281015152e-06
3.072222222222222410e+00,5.368085069610878564e-05,7.532048074001420215e-06
3.073015873015873201e+00,6.522263653732047269e-05,1.989509824157678473e-05
3.073809523809523991e+00,6.863225127899277411e-05,3.252129273298574234e-05
3.074603174603174782e+00,6.263389005244069350e-05,4.188974345853483912e-05
3.075396825396825573e+00,4.785804326827253170e-05,4.524033655739223287e-05
3.076190476190476364e+00,2.667264455213016615e-05,4.126159201006378437e-05
3.076984126984127155e+00,2.629059429432196502e-06,3.037170327185931810e-05
3.077777777777777946e+00,-2.033143166981465200e-05,1.453714761032728318e-05
3.078571428571428736e+00,-3.871699533769788906e-05,-3.290340899530467400e-06
3.079365079365079527e+00,-5.017339066161818971e-05,-1.993045593890049264e-05
3.080158730158730318e+00,-5.387045810605543383e-05,-3.269563525169647206e-05
3.080952380952381109e+00,-5.052301383012070744e-05,-3.988503797102809769e-05
3.081746031746031900e+00,-4.208001736723096840e-05,-4.095538649480492060e-05
3.082539682539682691e+00,-3.118979200879693408e-05,-3.638745913436350625e-05
3.083333333333333481e+00,-2.057918306691060661e-05,-2.735619859609949960e-05
3.084126984126984272e+00,-1.247740631875567241e-05,-1.534843853030227396e-05
3.084920634920635063e+00,-8.190240696701244370e-06,-1.853076507001519262e-06
3.085714285714285854e+00,-7.896851610570440431e-06,1.180780201139703784e-05
3.086507936507936645e+00,-1.069766326252445486e-05,2.450692238180908727e-05
3.087301587301587436e+00,-1.488980019499979090e-05,3.525611232677615186e-05
3.088095238095238226e+00,-1.840104407607497247e-05,4.314956053165926549e-05
3.088888888888889017e+00,-1.928745666529452121e-05,4.737325379350489736e-05
3.089682539682539808e+00,-1.619455948054424440e-05,4.730170608148412690e-05
3.090476190476190599e+00,-8.690255817640789494e-06,4.265206074241517783e-05
3.091269841269841390e+00,2.603576200265857812e-06,3.363375701521681015e-05
3.092063492063492181e+00,1.612107278001158450e-05,2.102969293738816525e-05
3.092857142857142971e+00,2.969440147501591849e-05,6.168769666919829494e-06
3.093650793650793762e+00,4.105791792697792788e-05,-9.213706498973361179e-06
3.094444444444444553e+00,4.839084122890872588e-05,-2.319996414058013006e-05
3.095238095238095344e+00,5.074932506772834840e-05,-3.395627209454440357e-05
3.096031746031746135e+00,4.825847924626915910e-05,-4.000269658255343309e-05
3.096825396825396925e+00,4.200193337429341590e-05,-4.045558442671913464e-05
3.097619047619047716e+00,3.364254156605466368e-05,-3.521661108357667416e-05
3.098412698412698507e+00,2.489912578882374052e-05,-2.507677656118770438e-05
3.099206349206349298e+00,1.705533953591864614e-05,-1.169405366365830525e-05
3.100000000000000089e+00,1.066501661739698993e-05,2.593416671131109304e-06
3.100793650793650880e+00,5.544545995230336321e-06,1.512638497520143201e-05
3.101587301587301670e+00,1.033553340226418345e-06,2.341172241349283651e-05
3.102380952380952461e+00,-3.596375267705584113e-06,2.564274950919643632e-05
3.103174603174603252e+00,-8.756342340230128881e-06,2.112929057761665978e-05
3.103968253968254043e+00,-1.432787187272152479e-05,1.051928426470936543e-05
3.104761904761904834e+00,-1.969122123679068576e-05,-4.266189981738388152e-06
3.105555555555555625e+00,-2.396101175123267039e-05,-2.039413807911910710e-05
3.106349206349206415e+00,-2.632236512816598319e-05,-3.470625435572913589e-05
3.107142857142857206e+00,-2.633923352879352823e-05,-4.439358615664105382e-05
3.107936507936507997e+00,-2.413473686193373367e-05,-4.759526519294581708e-05
3.108730158730158788e+00,-2.039908350883737673e-05,-4.377957185235785453e-05
3.109523809523809579e+00,-1.623642463879883328e-05,-3.382440940617982903e-05
3.110317460317460370e+00,-1.290025206984919929e-05,-1.978758077078500853e-05
3.111111111111111160e+00,-1.148625431331509987e-05,-4.427162158953465912e-06
3.111904761904761951e+00,-1.265600542786192117e-05,9.413897854955317462e-06
3.112698412698412742e+00,-1.645387578575213292e-05,1.941854326310296660e-05
3.113492063492063533e+00,-2.225413797047382894e-05,2.426849342449312701e-05
3.114285714285714324e+00,-2.884624724098940849e-05,2.388066161715606572e-05
3.115079365079365115e+00,-3.464528637252389776e-05,1.935906838273117805e-05
3.115873015873015905e+00,-3.800030212158070521e-05,1.267356501849732696e-05
3.116666666666666696e+00,-3.755554772864218158e-05,6.138998839306103021e-06
3.117460317460317487e+00,-3.259538803369278547e-05,1.819107696410107990e-06
3.118253968253968278e+00,-2.328448587995472866e-05,9.994875700764332205e-07
3.119047619047619069e+00,-1.072016172994048594e-05,3.856070749052188138e-06
3.119841269841269860e+00,3.244347683510531609e-06,9.398059626324101635e-06
3.120634920634920650e+00,1.637649637598918446e-05,1.570064777884104396e-05
3.121428571428571441e+00,2.654216589568657972e-05,2.037552445878868803e-05
3.122222222222222232e+00,3.215293589789246882e-05,2.117027109619442853e-05
3.123015873015873023e+00,3.247018991811809636e-05,1.655610319498141146e-05
3.123809523809523814e+00,2.770702387723323996e-05,6.165582287391164588e-06
3.124603174603174605e+00,1.892764665366125870e-05,-9.023384224624872538e-06
3.125396825396825395e+00,7.790868818073740559e-06,-2.680392308424545534e-05
3.126190476190476186e+00,-3.785566860381836392e-06,-4.413938184898359056e-05
3.126984126984126977e+00,-1.395651218842077195e-05,-5.776933531724610569e-05
3.127777777777777768e+00,-2.121443709581552259e-05,-6.490036931746370134e-05
3.128571428571428559e+00,-2.456095595143417719e-05,-6.383025945679531282e-05
3.129365079365079350e+00,-2.358475483265757747e-05,-5.435145433874625359e-05
3.130158730158730140e+00,-1.845430462745554408e-05,-3.781756625410455353e-05
3.130952380952380931e+00,-9.834199009581735359e-06,-1.683921719637894367e-05
3.131746031746031722e+00,1.259464349831010184e-06,5.315291519069530396e-06
3.132539682539682513e+00,1.363559330584535170e-05,2.544361169311681322e-05
3.133333333333333304e+00,2.609699731906151184e-05,4.104853678128964843e-05
3.134126984126984095e+00,3.756426533514459085e-05,5.072489850778504462e-05
3.134920634920634885e+00,4.713489905386262070e-05,5.422766858159904743e-05
3.135714285714285676e+00,5.408770704860024298e-05,5.226690893152148983e-05
3.136507936507936467e+00,5.787097673714521805e-05,4.614900729527273836e-05
3.137301587301587258e+00,5.811959582541936813e-05,3.739968763969620023e-05
3.138095238095238049e+00,5.472001336845619477e-05,2.747370801673549684e-05
3.138888888888888840e+00,4.789721221757754180e-05,1.760023942394345413e-05
3.139682539682539630e+00,3.826707901270668766e-05,8.751347304948078933e-06
3.140476190476190421e+00,2.680377900618462967e-05,1.674997281388015034e-06
3.141269841269841212e+00,1.471028238907387225e-05,-3.076973038836494758e-06
3.142063492063492003e+00,3.225403755496395432e-06,-5.168683417263286260e-06
3.142857142857142794e+00,-6.573229367275432594e-06,-4.544864768997689177e-06
3.143650793650793585e+00,-1.391487033817171151e-05,-1.499249999787336161e-06
3.144444444444444375e+00,-1.840222222546426491e-05,3.306647109348840700e-06
3.145238095238095166e+00,-2.000526402612685109e-05,8.911268358667136187e-06
3.146031746031745957e+00,-1.901193985798152916e-05,1.421051111650269438e-05
3.146825396825396748e+00,-1.596789408211648690e-05,1.817480005673360700e-05
3.147619047619047539e+00,-1.162109998109245898e-05,2.007388902774280670e-05
3.148412698412698330e+00,-6.864601728300458483e-06,1.964912869053398581e-05
3.149206349206349120e+00,-2.658485857789811091e-06,1.717603731118706457e-05
3.149999999999999911e+00,8.104694591247867999e-08,1.337847570402980525e-05
3.150793650793650702e+00,6.186590898661063687e-07,9.196286912978084512e-06
3.151587301587301493e+00,-1.462204240240376600e-06,5.465990236146257603e-06
3.152380952380952284e+00,-6.154784367717854142e-06,2.623886921371023169e-06
3.153174603174603075e+00,-1.298933191522855165e-05,5.505650480230846347e-07
3.153968253968253865e+00,-2.107524828330218256e-05,-1.369387392104086345e-06
3.154761904761904656e+00,-2.922186013674584208e-05,-3.983021746730860394e-06
3.155555555555555447e+00,-3.611792341645462254e-05,-7.996005938258485146e-06
3.156349206349206238e+00,-4.054148743633958596e-05,-1.363366489314959113e-05
3.157142857142857029e+00,-4.156980465211390223e-05,-2.046615941269559570e-05
3.157936507936507819e+00,-3.875918542046049951e-05,-2.746260833197181118e-05
3.158730158730158610e+00,-3.226382684725677278e-05,-3.325020852005174538e-05
3.159523809523809401e+00,-2.286138482732862708e-05,-3.648109155653756424e-05
3.160317460317460192e+00,-1.185789534755196538e-05,-3.618258486762979109e-05
3.161111111111110983e+00,-8.644128392207533273e-07,-3.199130183085419364e-05
3.161904761904761774e+00,8.524814265948296233e-06,-2.422712550832394890e-05
3.162698412698412564e+00,1.507819218870878186e-05,-1.381945882927154102e-05
3.163492063492063355e+00,1.819428440551677193e-05,-2.134076138859857955e-06
3.164285714285714146e+00,1.800143335734575537e-05,9.241520285496611340e-06
3.165079365079364937e+00,1.525618498657066568e-05,1.870880520502870558e-05
3.165873015873015728e+00,1.108046264606205730e-05,2.484476893789196465e-05
3.166666666666666519e+00,6.631713466116740519e-06,2.656890594748979376e-05
3.167460317460317309e+00,2.814632812341168494e-06,2.330483603346432631e-05
3.168253968253968100e+00,1.175518260304889875e-07,1.513668298484974383e-05
3.169047619047618891e+00,-1.395983172811365028e-06,2.928431383177031804e-06
3.169841269841269682e+00,-1.968862727784604827e-06,-1.165644437306626744e-05
3.170634920634920473e+00,-1.974409622092117442e-06,-2.630304738274941549e-05
3.171428571428571264e+00,-1.757532631931215320e-06,-3.839105514144121664e-05
3.172222222222222054e+00,-1.541798375891223857e-06,-4.549534383374315843e-05
3.173015873015872845e+00,-1.412619334676365204e-06,-4.592345558375799573e-05
3.173809523809523636e+00,-1.355489440803343415e-06,-3.913725879532708877e-05
3.174603174603174427e+00,-1.314656578166510076e-06,-2.592951279801488886e-05
3.175396825396825218e+00,-1.242113891337827262e-06,-8.296274971385265770e-06
3.176190476190476009e+00,-1.121963666822779992e-06,1.096578844989721460e-05
3.176984126984126799e+00,-9.706916159488353497e-07,2.883222333732842952e-05
3.177777777777777590e+00,-8.224624244238391130e-07,4.264692265057698413e-05
3.178571428571428381e+00,-7.094786714644315208e-07,5.059769122541997748e-05
3.179365079365079172e+00,-6.450541897894439425e-07,5.197279218561830840e-05
3.180158730158729963e+00,-6.156887553484556561e-07,4.717074257086719292e-05
3.180952380952380754e+00,-5.874592355577732325e-07,3.750436312603408278e-05
3.181746031746031544e+00,-5.269577051195719235e-07,2.488235477754209150e-05
3.182539682539682335e+00,-4.270830553453197166e-07,1.145644398613724159e-05
3.183333333333333126e+00,-3.204751774948330441e-07,-7.047174314564644919e-07
3.184126984126983917e+00,-2.671085677465202631e-07,-9.891033437857093047e-06
3.184920634920634708e+00,-3.180958880209414428e-07,-1.497335461167309671e-05
3.185714285714285499e+00,-4.753748324983317765e-07,-1.556315381900354801e-05
3.186507936507936289e+00,-6.738020725808851471e-07,-1.207727515420094570e-05
3.187301587301587080e+00,-8.015177971894497671e-07,-5.666137226204174740e-06
3.188095238095238315e+00,-7.512257097688610007e-07,2.012509942975517748e-06
3.188888888888889106e+00,-4.743366990620981436e-07,9.140385278209274672e-06
3.189682539682539897e+00,-7.000739029099254061e-09,1.411986629521194663e-05
3.190476190476190688e+00,5.450972712999846900e-07,1.588291086721032309e-05
3.191269841269841478e+00,1.050831383958484677e-06,1.404658148935223991e-05
3.192063492063492269e+00,1.400659082933281867e-06,8.891205566728631045e-06
3.192857142857143060e+00,1.537627640572138781e-06,1.195804697705375414e-06
3.193650793650793851e+00,1.470659504649201006e-06,-7.998064055966955314e-06
3.194444444444444642e+00,1.277660381059599805e-06,-1.761569681285496503e-05
3.195238095238095433e+00,1.101240352768071040e-06,-2.671142782884717049e-05
3.196031746031746223e+00,1.132245029799297464e-06,-3.453711112146856514e-05
3.196825396825397014e+00,1.578601970780725474e-06,-4.052819924088562627e-05
3.197619047619047805e+00,2.627440458021061522e-06,-4.424702408594145771e-05
3.198412698412698596e+00,4.413256865026121090e-06,-4.533227649596854197e-05
3.199206349206349387e+00,6.995646791199791777e-06,-4.349325720081528417e-05
3.200000000000000178e+00,1.033519226587259720e-05,-3.856342794637697402e-05
3.200793650793650968e+00,1.425261203084397383e-05,-3.059879340052643754e-05
3.201587301587301759e+00,1.837198933847131592e-05,-1.998191612387488530e-05
3.202380952380952550e+00,2.207387920795156038e-05,-7.481236426933455977e-06
3.203174603174603341e+00,2.449964438344818184e-05,5.776075674338178872e-06
3.203968253968254132e+00,2.464215976042302591e-05,1.843305334642779454e-05
3.204761904761904923e+00,2.153191732971540415e-05,2.911480930747863068e-05
3.205555555555555713e+00,1.449384659549853202e-05,3.667568335682710182e-05
3.206349206349206504e+00,3.421989713768735203e-06,4.041930657182238562e-05
3.207142857142857295e+00,-1.099610705348055791e-05,4.023203447396357066e-05
3.207936507936508086e+00,-2.717377280878705223e-05,3.659126856831521328e-05
3.208730158730158877e+00,-4.269246235754925055e-05,3.044572621547770759e-05
3.209523809523809668e+00,-5.456919627849327422e-05,2.300219912378452284e-05
3.210317460317460458e+00,-5.971680947646002593e-05,1.547728275548683837e-05
3.211111111111111249e+00,-5.554992515813422408e-05,8.875910415500722883e-06
3.211904761904762040e+00,-4.064527149259294827e-05,3.844184506296615575e-06
3.212698412698412831e+00,-1.532108909321710542e-05,6.186120398669869689e-07
3.213492063492063622e+00,1.802683612447879649e-05,-9.342795640935379333e-07
3.214285714285714413e+00,5.498323722403676567e-05,-1.215146387098161849e-06
3.215079365079365203e+00,8.965153424442612253e-05,-7.610943188602043505e-07
3.215873015873015994e+00,1.156460709756044461e-04,-1.184937689304345584e-07
3.216666666666666785e+00,1.273782278690652095e-04,2.590572783985245721e-07
3.217460317460317576e+00,1.213561186816414136e-04,7.710882440470383476e-08
3.218253968253968367e+00,9.715219876890135681e-05,-7.704519702480872876e-07
3.219047619047619158e+00,5.772397993364185011e-05,-2.206173615387958294e-06
3.219841269841269948e+00,8.925121795066863798e-06,-4.003483854387447227e-06
3.220634920634920739e+00,-4.170915297217682623e-05,-5.845677886788277904e-06
3.221428571428571530e+00,-8.657082948994573109e-05,-7.401005750026069826e-06
3.222222222222222321e+00,-1.195201479794195921e-04,-8.400737315643805851e-06
3.223015873015873112e+00,-1.369466518178739673e-04,-8.704139037754488100e-06
3.223809523809523903e+00,-1.381307312875985449e-04,-8.334089575206811933e-06
3.224603174603174693e+00,-1.249179258207522530e-04,-7.469236936677508344e-06
3.225396825396825484e+00,-1.008957300256300776e-04,-6.386013309713598397e-06
3.226190476190476275e+00,-7.035229996277994992e-05,-5.360529410549019151e-06
3.226984126984127066e+00,-3.730811354886992814e-05,-4.562128026301636620e-06
3.227777777777777857e+00,-4.858161538527041212e-06,-3.982726731024041001e-06
3.228571428571428648e+00,2.504882459153237603e-05,-3.436580696430261095e-06
3.229365079365079438e+00,5.141322582793441363e-05,-2.635881144078881038e-06
3.230158730158730229e+00,7.372134764447828953e-05,-1.314353288369040426e-06
3.230952380952381020e+00,9.143779491869141708e-05,6.490875004856226578e-07
3.231746031746031811e+00,1.036622476235293452e-04,3.153672632910556409e-06
3.232539682539682602e+00,1.090855313401287456e-04,5.875734663698470548e-06
3.233333333333333393e+00,1.062795158127924523e-04,8.345534670053418721e-06
3.234126984126984183e+00,9.424701016360430002e-05,1.007932176054947657e-05
3.234920634920634974e+00,7.305194880945799208e-05,1.072675222301957785e-05
