Timestamp,Flexor carpi radialis,Extensor digitorum
2.000000000000000000e+00,2.096025946446714990e-05,3.850358928975695238e-05
2.000793650793650791e+00,1.398810488961623617e-05,3.132006138563549175e-05
2.001587301587301582e+00,6.128070182976194751e-06,2.108145816397833454e-05
2.002380952380952372e+00,-1.564914553559838804e-06,1.047289332742314565e-05
2.003174603174603163e+00,-8.186003569731508436e-06,2.363380316799341034e-06
2.003968253968253954e+00,-1.312713611860761655e-05,-8.474008894964007735e-07
2.004761904761904745e+00,-1.613938580665202603e-05,2.176263967150302262e-06
2.005555555555555536e+00,-1.730983196544252863e-05,1.130023812120048035e-05
2.006349206349206327e+00,-1.697442680545294260e-05,2.481123332902974253e-05
2.007142857142857117e+00,-1.560148259965363809e-05,3.966512653628087066e-05
2.007936507936507908e+00,-1.368108726523607490e-05,5.208175351393576157e-05
2.008730158730158699e+00,-1.164523982930249438e-05,5.838458661102950199e-05
2.009523809523809490e+00,-9.826737626228125650e-06,5.589754005466005335e-05
2.010317460317460281e+00,-8.449115904920348957e-06,4.366406089306324329e-05
2.011111111111111072e+00,-7.631955845361560850e-06,2.277610047444007444e-05
2.011904761904761862e+00,-7.398022986212071950e-06,-3.800888635152495009e-06
2.012698412698412653e+00,-7.677468333773483362e-06,-3.187295662720293800e-05
2.013492063492063444e+00,-8.313043192484331583e-06,-5.695512737759367446e-05
2.014285714285714235e+00,-9.073819680780181377e-06,-7.524211140345729608e-05
2.015079365079365026e+00,-9.682400212869427824e-06,-8.436414112687093912e-05
2.015873015873015817e+00,-9.854854052055553562e-06,-8.376847178200765433e-05
2.016666666666666607e+00,-9.347582246142449187e-06,-7.468388638875752118e-05
2.017460317460317398e+00,-8.003152770749400829e-06,-5.972390685727313068e-05
2.018253968253968189e+00,-5.787184545394171434e-06,-4.224715772926260438e-05
2.019047619047618980e+00,-2.809093899362643946e-06,-2.562615318560293020e-05
2.019841269841269771e+00,6.790025753724957639e-07,-1.258480807338660462e-05
2.020634920634920562e+00,4.307943972744239282e-06,-4.745514379700230587e-06
2.021428571428571352e+00,7.640625666890094291e-06,-2.470689959449910881e-06
2.022222222222222143e+00,1.024011770259946095e-05,-4.997911688379861329e-06
2.023015873015872934e+00,1.174917870527310230e-05,-1.078270263799957791e-05
2.023809523809523725e+00,1.196894778814201270e-05,-1.791765116992018165e-05
2.024603174603174516e+00,1.091921237878052668e-05,-2.450900479901648541e-05
2.025396825396825307e+00,8.860129339306119302e-06,-2.894715892242980429e-05
2.026190476190476097e+00,6.259812331621965838e-06,-3.006981114883882167e-05
2.026984126984126888e+00,3.705412429255401829e-06,-2.725264761889596552e-05
2.027777777777777679e+00,1.774200458251113570e-06,-2.045983461043878948e-05
2.028571428571428470e+00,8.981199886947706297e-07,-1.025816468977693294e-05
2.029365079365079261e+00,1.261520599807911022e-06,2.229192278595151100e-06
2.030158730158730052e+00,2.762662819035747066e-06,1.545904919384768746e-05
2.030952380952380842e+00,5.048357231926703374e-06,2.770195059947320269e-05
2.031746031746031633e+00,7.607612942601150670e-06,3.734074003352358119e-05
2.032539682539682424e+00,9.894443306303836487e-06,4.316586905492065547e-05
2.033333333333333215e+00,1.144594210539945706e-05,4.459061286590122866e-05
2.034126984126984006e+00,1.196736129558079341e-05,4.173543258367399297e-05
2.034920634920634797e+00,1.136786679512238946e-05,3.537645615801114570e-05
2.035714285714285587e+00,9.746099386409837583e-06,2.679082185561289481e-05
2.036507936507936378e+00,7.339222682745390560e-06,1.754419866295353305e-05
2.037301587301587169e+00,4.457115683993282815e-06,9.256528636844869122e-06
2.038095238095237960e+00,1.421871354718861140e-06,3.366084074296592277e-06
2.038888888888888751e+00,-1.475860325094341573e-06,9.037709390154865851e-07
2.039682539682539542e+00,-4.002145652537473094e-06,2.295936120218352452e-06
2.040476190476190332e+00,-5.991299739862722255e-06,7.230338213433771144e-06
2.041269841269841123e+00,-7.349268282104427323e-06,1.463272394679849112e-05
2.042063492063491914e+00,-8.052394397493144361e-06,2.279602151120782011e-05
2.042857142857142705e+00,-8.142757983063956851e-06,2.967446912371643331e-05
2.043650793650793496e+00,-7.719740921121449773e-06,3.330750962509048481e-05
2.044444444444444287e+00,-6.926973612345001934e-06,3.228906917996495418e-05
2.045238095238095077e+00,-5.934371659880889797e-06,2.616552745748278210e-05
2.046031746031745868e+00,-4.916029297188143699e-06,1.564449632172992173e-05
2.046825396825396659e+00,-4.025673176458793227e-06,2.531988920902987206e-06
2.047619047619047450e+00,-3.372500476156356707e-06,-1.061766553105306027e-05
2.048412698412698241e+00,-3.002102109085095414e-06,-2.107360176137778777e-05
2.049206349206349032e+00,-2.888793778111439746e-06,-2.658582502783168376e-05
2.049999999999999822e+00,-2.944369509623526747e-06,-2.595718807193806430e-05
2.050793650793650613e+00,-3.042573519747014099e-06,-1.937370062927252031e-05
2.051587301587301404e+00,-3.051156718969259397e-06,-8.399037728863152015e-06
2.052380952380952195e+00,-2.859881435629492467e-06,4.369865435675284687e-06
2.053174603174602986e+00,-2.396332796966403391e-06,1.589630835335468221e-05
2.053968253968253777e+00,-1.629045588445593728e-06,2.338888862965327750e-05
2.054761904761904567e+00,-5.637026562425922459e-07,2.489972911295899329e-05
2.055555555555555358e+00,7.602942295983761309e-07,1.969320238465032473e-05
2.056349206349206149e+00,2.268764311236018970e-06,8.323267609472892697e-06
2.057142857142856940e+00,3.848997038731284589e-06,-7.551804779172052644e-06
2.057936507936507731e+00,5.350333348340113899e-06,-2.552851728550545288e-05
2.058730158730158522e+00,6.597095971372305506e-06,-4.289073714983696425e-05
2.059523809523809312e+00,7.417282013967030397e-06,-5.703777063803983517e-05
2.060317460317460103e+00,7.681758633348838717e-06,-6.585658385357474106e-05
2.061111111111110894e+00,7.339613509463923101e-06,-6.800102350076504278e-05
2.061904761904761685e+00,6.431298330621381915e-06,-6.304809045887679539e-05
2.062698412698412920e+00,5.068045025013871615e-06,-5.151548009321713149e-05
2.063492063492063711e+00,3.384030435565374684e-06,-3.474863844654750810e-05
2.064285714285714501e+00,1.486410120295632649e-06,-1.470820464366300663e-05
2.065079365079365292e+00,-5.678816757012865438e-07,6.302416462608015285e-06
2.065873015873016083e+00,-2.755517239936375108e-06,2.593482010147300123e-05
2.066666666666666874e+00,-5.040865536071642695e-06,4.209169442578345816e-05
2.067460317460317665e+00,-7.327305812272328332e-06,5.319279439378856513e-05
2.068253968253968456e+00,-9.434358745411915083e-06,5.837346135135331810e-05
2.069047619047619246e+00,-1.111763112608306652e-05,5.757494512780405774e-05
2.069841269841270037e+00,-1.212727762327312467e-05,5.149970632206029089e-05
2.070634920634920828e+00,-1.228002442456553916e-05,4.143628576789112243e-05
2.071428571428571619e+00,-1.151226048858034771e-05,2.899519401431176690e-05
2.072222222222222410e+00,-9.891921083932726883e-06,1.582300656245683688e-05
2.073015873015873201e+00,-7.588273639501072113e-06,3.364623659999353506e-06
2.073809523809523991e+00,-4.818500984242287717e-06,-7.278033143653231044e-06
2.074603174603174782e+00,-1.797493632277618573e-06,-1.538019561247682735e-05
2.075396825396825573e+00,1.289674489842089463e-06,-2.054935083681699132e-05
2.076190476190476364e+00,4.288205937445212926e-06,-2.265346898574976272e-05
2.076984126984127155e+00,7.056587255620248718e-06,-2.177388976211939008e-05
2.077777777777777946e+00,9.448290952715721693e-06,-1.821020266558581431e-05
2.078571428571428736e+00,1.130628466906476397e-05,-1.252901347463608467e-05
2.079365079365079527e+00,1.247641661854030244e-05,-5.617607090576432497e-06
2.080158730158730318e+00,1.283562439809850418e-05,1.311635780147416823e-06
2.080952380952381109e+00,1.232337056123141096e-05,6.815803803464141402e-06
2.081746031746031900e+00,1.096374739548150587e-05,9.441285293760630972e-06
2.082539682539682691e+00,8.871297509289965052e-06,8.054236149747925490e-06
2.083333333333333481e+00,6.240905738857687029e-06,2.213840012345105119e-06
2.084126984126984272e+00,3.326040568358271847e-06,-7.529162000415296083e-06
2.084920634920635063e+00,4.096488734163904452e-07,-1.954434653391099022e-05
2.085714285714285854e+00,-2.228763783735524202e-06,-3.133937348459219727e-05
2.086507936507936645e+00,-4.345738734067613414e-06,-4.007827949900789340e-05
2.087301587301587436e+00,-5.760963962149817170e-06,-4.327109164938833442e-05
2.088095238095238226e+00,-6.374486502207217369e-06,-3.942362300099750262e-05
2.088888888888889017e+00,-6.173272342896467148e-06,-2.844503012095062801e-05
2.089682539682539808e+00,-5.230593920853159027e-06,-1.170323396348644391e-05
2.090476190476190599e+00,-3.702653083195505678e-06,8.260848261969545473e-06
2.091269841269841390e+00,-1.822954922910454661e-06,2.825892128986950665e-05
2.092063492063492181e+00,1.104302599541305127e-07,4.508436287850028316e-05
2.092857142857142971e+00,1.761535820879575649e-06,5.611605265834369172e-05
2.093650793650793762e+00,2.800868241033733548e-06,5.979195262321334903e-05
2.094444444444444553e+00,2.965088814787058431e-06,5.587203468150136012e-05
2.095238095238095344e+00,2.122490714327917786e-06,4.544051024488807427e-05
2.096031746031746135e+00,3.282069755207820452e-07,3.064316792872050791e-05
2.096825396825396925e+00,-2.150187562083233437e-06,1.421419370473987844e-05
2.097619047619047716e+00,-4.852513944206670420e-06,-1.100064821473536347e-06
2.098412698412698507e+00,-7.195928273063271208e-06,-1.308705664503487974e-05
2.099206349206349298e+00,-8.584868040352750115e-06,-2.046243651354829433e-05
2.100000000000000089e+00,-8.539205706407256477e-06,-2.303542970494977963e-05
2.100793650793650880e+00,-6.813710842166777216e-06,-2.162552804264939450e-05
2.101587301587301670e+00,-3.481804875052003017e-06,-1.776534501170066638e-05
2.102380952380952461e+00,1.040682281500397460e-06,-1.326548592346361941e-05
2.103174603174603252e+00,6.048558162295421854e-06,-9.740722300814947101e-06
2.103968253968254043e+00,1.067817355702847661e-05,-8.200424995366377762e-06
2.104761904761904834e+00,1.409390815955603088e-05,-8.791156830721109743e-06
2.105555555555555625e+00,1.568407626663771712e-05,-1.075127661206845821e-05
2.106349206349206415e+00,1.520687916645126873e-05,-1.260170963611263907e-05
2.107142857142857206e+00,1.283475747044324939e-05,-1.255303750553984197e-05
2.107936507936507997e+00,9.077039309385941091e-06,-9.054998001878260055e-06
2.108730158730158788e+00,4.607134788658683200e-06,-1.359795171004610658e-06
2.109523809523809579e+00,6.160572385907164481e-08,1.006201323438322895e-05
2.110317460317460370e+00,-4.109063181203475447e-06,2.340313939697256809e-05
2.111111111111111160e+00,-7.685790332800841954e-06,3.578666204336073141e-05
2.111904761904761951e+00,-1.062416533178299174e-05,4.390183290058728423e-05
2.112698412698412742e+00,-1.294477644297222867e-05,4.486801703195721601e-05
2.113492063492063533e+00,-1.463431885958011987e-05,3.708514297768953776e-05
2.114285714285714324e+00,-1.560364843916425752e-05,2.080063032394904911e-05
2.115079365079365115e+00,-1.571630806413845200e-05,-1.805516956345020878e-06
2.115873015873015905e+00,-1.486801471990451040e-05,-2.706351509248265235e-05
2.116666666666666696e+00,-1.307392238366683164e-05,-5.065790494448032622e-05
2.117460317460317487e+00,-1.051622709557801521e-05,-6.862191509506887271e-05
2.118253968253968278e+00,-7.524225265212340526e-06,-7.819807710589618413e-05
2.119047619047619069e+00,-4.491926949512390942e-06,-7.834116388720246168e-05
2.119841269841269860e+00,-1.766260197745427813e-06,-6.976103533144390498e-05
2.120634920634920650e+00,4.497241641330026985e-07,-5.454231651375687523e-05
2.121428571428571441e+00,2.140306469819308429e-06,-3.549379920527264055e-05
2.122222222222222232e+00,3.448916465476276922e-06,-1.544072213677749077e-05
2.123015873015873023e+00,4.588331471696718581e-06,3.337216623962306349e-06
2.123809523809523814e+00,5.725891940095117226e-06,1.939035154130614838e-05
2.124603174603174605e+00,6.893082765630749190e-06,3.207690808604221633e-05
2.125396825396825395e+00,7.959521990777438310e-06,4.130518880028263005e-05
2.126190476190476186e+00,8.682061530743175122e-06,4.718117849988533820e-05
2.126984126984126977e+00,8.804226259370860657e-06,4.972498016755166970e-05
2.127777777777777768e+00,8.159956080215020731e-06,4.878503696543752110e-05
2.128571428571428559e+00,6.741268702801650103e-06,4.419142352626062283e-05
2.129365079365079350e+00,4.714154627595969370e-06,3.607411480889677861e-05
2.130158730158730140e+00,2.389000695333807636e-06,2.517802762656678724e-05
2.130952380952380931e+00,1.586931735370135640e-07,1.298600182498618913e-05
2.131746031746031722e+00,-1.583742572799767058e-06,1.535979950887354148e-06
2.132539682539682513e+00,-2.533754676690202794e-06,-7.040315957759083325e-06
2.133333333333333304e+00,-2.549147264999100991e-06,-1.109468047753520630e-05
2.134126984126984095e+00,-1.685857457987211788e-06,-9.934455249647013004e-06
2.134920634920634885e+00,-1.812925455057784322e-07,-4.011825970664801688e-06
2.135714285714285676e+00,1.610770815837882247e-06,5.228107724846017815e-06
2.136507936507936467e+00,3.311923133122396641e-06,1.576412973406807270e-05
2.137301587301587258e+00,4.608214463460428302e-06,2.551613145308520729e-05
2.138095238095238049e+00,5.312718594974030587e-06,3.279073297151400543e-05
2.138888888888888840e+00,5.390308127945222938e-06,3.654181336323048104e-05
2.139682539682539630e+00,4.945255442411580769e-06,3.641454416220644562e-05
2.140476190476190421e+00,4.179776813957000532e-06,3.261395331081156518e-05
2.141269841269841212e+00,3.335737555841144859e-06,2.568769013900427714e-05
2.142063492063492003e+00,2.633596346388368158e-06,1.632699197503540759e-05
2.142857142857142794e+00,2.221994123206253404e-06,5.260507461715798461e-06
2.143650793650793585e+00,2.148139496085936934e-06,-6.748436301280599058e-06
2.144444444444444375e+00,2.354141311163352501e-06,-1.885499345595573732e-05
2.145238095238095166e+00,2.698589315905800281e-06,-3.011542440510950444e-05
2.146031746031745957e+00,2.996831282650705553e-06,-3.954914076430927011e-05
2.146825396825396748e+00,3.068851282956478974e-06,-4.626963295678483158e-05
2.147619047619047539e+00,2.782107099910255097e-06,-4.962702481522464088e-05
2.148412698412698330e+00,2.079216833548215717e-06,-4.930557088597053918e-05
2.149206349206349120e+00,9.862709784902317042e-07,-4.536198763980667703e-05
2.149999999999999911e+00,-3.960267313596745219e-07,-3.823369008273345407e-05
2.150793650793650702e+00,-1.912528165572846160e-06,-2.874659931562246792e-05
2.151587301587301493e+00,-3.379540954112311181e-06,-1.810614648264173674e-05
2.152380952380952284e+00,-4.613224134930693359e-06,-7.807236615600607265e-06
2.153174603174603075e+00,-5.458736318754635801e-06,5.940869706482333764e-07
2.153968253968253865e+00,-5.817735525367776856e-06,5.828715197955463069e-06
2.154761904761904656e+00,-5.669918879039244838e-06,7.268488793322760482e-06
2.155555555555555447e+00,-5.082935291856380250e-06,5.132496736477108677e-06
2.156349206349206238e+00,-4.205563072191847774e-06,4.430017628358370466e-07
2.157142857142857029e+00,-3.241982061909387789e-06,-5.261744095832626959e-06
2.157936507936507819e+00,-2.409874788983960928e-06,-1.034983943717804146e-05
2.158730158730158610e+00,-1.890585887149185689e-06,-1.350508453433537475e-05
2.159523809523809401e+00,-1.783542680938764685e-06,-1.400175603975002969e-05
2.160317460317460192e+00,-2.077669143167585902e-06,-1.178684760355538039e-05
2.161111111111110983e+00,-2.648913074174067337e-06,-7.375734015613931807e-06
2.161904761904761774e+00,-3.286210621068861098e-06,-1.611171667102730015e-06
2.162698412698412564e+00,-3.740437799973273690e-06,4.640255285789795295e-06
2.163492063492063355e+00,-3.784639251011896071e-06,1.076800028524761922e-05
2.164285714285714146e+00,-3.270940289223179022e-06,1.658683823323050757e-05
2.165079365079364937e+00,-2.170718075064331573e-06,2.232877473598409297e-05
2.165873015873015728e+00,-5.892157760329343962e-07,2.843999773715813107e-05
2.166666666666666519e+00,1.247780482223231373e-06,3.523636152131736455e-05
2.167460317460317309e+00,3.031482684222784468e-06,4.253655648695243963e-05
2.168253968253968100e+00,4.424430787757197821e-06,4.941948836420991404e-05
2.169047619047618891e+00,5.123374903939702649e-06,5.422600325841220212e-05
2.169841269841269682e+00,4.922552105039572006e-06,5.485490021375044026e-05
2.170634920634920473e+00,3.767574144475273950e-06,4.931153291956151687e-05
2.171428571428571264e+00,1.787277850926776795e-06,3.637672906840596699e-05
2.172222222222222054e+00,-7.093527003122576202e-07,1.619870981889127290e-05
2.173015873015872845e+00,-3.278310801458089949e-06,-9.401672591254005184e-06
2.173809523809523636e+00,-5.423475764458436680e-06,-3.706402414036968527e-05
2.174603174603174427e+00,-6.700199357880107810e-06,-6.248819506156834023e-05
2.175396825396825218e+00,-6.813933881258990990e-06,-8.137268917497135631e-05
2.176190476190476009e+00,-5.688502621503432254e-06,-9.042961503795614948e-05
2.176984126984126799e+00,-3.487846466105465428e-06,-8.816583701253490513e-05
2.177777777777777590e+00,-5.888461564822463642e-07,-7.519294224458700909e-05
2.178571428571428381e+00,2.485191935242220942e-06,-5.399729693143613608e-05
2.179365079365079172e+00,5.155102058311631513e-06,-2.828638069102019101e-05
2.180158730158729963e+00,6.886183103851081379e-06,-2.144088328494200897e-06
2.180952380952380754e+00,7.287371521678656586e-06,2.076341511897720847e-05
2.181746031746031544e+00,6.198002278519774778e-06,3.776605121852683993e-05
2.182539682539682335e+00,3.744838311542304244e-06,4.749016334408948288e-05
2.183333333333333126e+00,3.459179572716489360e-07,4.989723716950416271e-05
2.184126984126983917e+00,-3.358261033381927253e-06,4.611478791845893154e-05
2.184920634920634708e+00,-6.644574549761161367e-06,3.812020702700263838e-05
2.185714285714285499e+00,-8.883429728381855785e-06,2.833332537230837206e-05
2.186507936507936289e+00,-9.691910516414273586e-06,1.917003293032997616e-05
2.187301587301587080e+00,-9.009255520614361344e-06,1.261320010637260128e-05
2.188095238095238315e+00,-7.073792245012506090e-06,9.864782368683937993e-06
2.188888888888889106e+00,-4.321117027950476051e-06,1.114326801541736301e-05
2.189682539682539897e+00,-1.248604683080367059e-06,1.567163727032184616e-05
2.190476190476190688e+00,1.705680671484953371e-06,2.186005291940224253e-05
2.191269841269841478e+00,4.236131456006504104e-06,2.763935934876407744e-05
2.192063492063492269e+00,6.184588472215962640e-06,3.087204821902714475e-05
2.192857142857143060e+00,7.509671993602588359e-06,2.976947626981956828e-05
2.193650793650793851e+00,8.236978918573152516e-06,2.326145476210275778e-05
2.194444444444444642e+00,8.417732539324752726e-06,1.127040708091616012e-05
2.195238095238095433e+00,8.112424310277714068e-06,-5.165842048263229687e-06
2.196031746031746223e+00,7.398972863241350328e-06,-2.397749516072201321e-05
2.196825396825397014e+00,6.390992182085400512e-06,-4.237639847425177957e-05
2.197619047619047805e+00,5.247750593352401067e-06,-5.736655486052514002e-05
2.198412698412698596e+00,4.163496919642168261e-06,-6.635664843694012867e-05
2.199206349206349387e+00,3.334406538975558338e-06,-6.773827387908334691e-05
2.200000000000000178e+00,2.910630245950242270e-06,-6.128673473087546035e-05
2.200793650793650968e+00,2.946709732676030370e-06,-4.826924966245699651e-05
2.201587301587301759e+00,3.366163595524101033e-06,-3.120114578299352094e-05
2.202380952380952550e+00,3.954878518531908982e-06,-1.327047180615627233e-05
2.203174603174603341e+00,4.392078542060929764e-06,2.448805523993516689e-06
2.203968253968254132e+00,4.317913863190221346e-06,1.378024465307759742e-05
2.204761904761904923e+00,3.425962087001179183e-06,1.997106052111201962e-05
2.205555555555555713e+00,1.559756070254892513e-06,2.176619519189928990e-05
2.206349206349206504e+00,-1.213692279786781131e-06,2.098997654698315881e-05
2.207142857142857295e+00,-4.581319116694515315e-06,1.978803916230700421e-05
2.207936507936508086e+00,-8.031852767927961438e-06,1.982449580803644415e-05
2.208730158730158877e+00,-1.097217064807111942e-05,2.174130421362854888e-05
2.209523809523809668e+00,-1.288044847607468421e-05,2.505675648659188320e-05
2.210317460317460458e+00,-1.344305311711095810e-05,2.848464008583320389e-05
2.211111111111111249e+00,-1.262722900778435915e-05,3.050094024793347991e-05
2.211904761904762040e+00,-1.067122665761963428e-05,2.992827338881495566e-05
2.212698412698412831e+00,-8.005346541504553372e-06,2.634217721977562767e-05
2.213492063492063622e+00,-5.133365317103083196e-06,2.019171355444378680e-05
2.214285714285714413e+00,-2.505677435714688272e-06,1.263220609822304732e-05
2.215079365079365203e+00,-4.136631806067073671e-07,5.156721158372697879e-06
2.215873015873015994e+00,1.067700849877900913e-06,-8.404660582552560806e-07
2.216666666666666785e+00,2.070705929013169821e-06,-4.438177737651638697e-06
2.217460317460317576e+00,2.860089100729652604e-06,-5.409569290087395203e-06
2.218253968253968367e+00,3.717587972854782221e-06,-4.252427485916110818e-06
2.219047619047619158e+00,4.827575768130553540e-06,-2.039123067749553027e-06
2.219841269841269948e+00,6.204699334247978622e-06,-1.321076003321492653e-07
2.220634920634920739e+00,7.687130705816710389e-06,1.691886687462342602e-07
2.221428571428571530e+00,8.994007043232344546e-06,-2.022505185447271275e-06
2.222222222222222321e+00,9.821975721093174959e-06,-6.907619098991524248e-06
2.223015873015873112e+00,9.941538224936805924e-06,-1.386184403027313747e-05
2.223809523809523903e+00,9.256902023518728562e-06,-2.148153649630220389e-05
2.224603174603174693e+00,7.813875396420478969e-06,-2.783215905985421656e-05
2.225396825396825484e+00,5.766513872668940989e-06,-3.087959497628086291e-05
2.226190476190476275e+00,3.328060608681680885e-06,-2.903193868201120979e-05
2.226984126984127066e+00,7.288342147800779926e-07,-2.166393341229246849e-05
2.227777777777777857e+00,-1.809884450038740481e-06,-9.461273535273290709e-06
2.228571428571428648e+00,-4.089538434966389903e-06,5.561731724567412052e-06
2.229365079365079438e+00,-5.943601264216601224e-06,2.043510798546696320e-05
2.230158730158730229e+00,-7.247346925772713341e-06,3.193183648280672327e-05
2.230952380952381020e+00,-7.927686116754494979e-06,3.740345292733525932e-05
2.231746031746031811e+00,-7.970560903343870519e-06,3.550166143612699775e-05
2.232539682539682602e+00,-7.424434284310795737e-06,2.656247364569253605e-05
2.233333333333333393e+00,-6.399028965735723492e-06,1.253408749308565307e-05
2.234126984126984183e+00,-5.057197979714686613e-06,-3.528225611952315539e-06
2.234920634920634974e+00,-3.596948966837743312e-06,-1.824516515775361872e-05
2.235714285714285765e+00,-2.222577771462197982e-06,-2.874032406455132271e-05
2.236507936507936556e+00,-1.108381536287687954e-06,-3.327648434537027291e-05
2.237301587301587347e+00,-3.633455478186258191e-07,-3.154240770350009445e-05
2.238095238095238138e+00,-7.773418225806374619e-09,-2.455138728193372171e-05
2.238888888888888928e+00,2.918838711207150562e-08,-1.423101972127105357e-05
2.239682539682539719e+00,-1.111776555828731600e-07,-2.859653199418693122e-06
2.240476190476190510e+00,-2.554695148754887887e-07,7.479306091397439589e-06
2.241269841269841301e+00,-2.436407139434336831e-07,1.529056028418808463e-05
2.242063492063492092e+00,2.911664935742606539e-08,1.983753337619924943e-05
2.242857142857142883e+00,5.828800085877581388e-07,2.109039915326526988e-05
2.243650793650793673e+00,1.342187163180859066e-06,1.951261018732431871e-05
2.244444444444444464e+00,2.146786853819363333e-06,1.578614258255697163e-05
2.245238095238095255e+00,2.782305511541092911e-06,1.057898945775190526e-05
2.246031746031746046e+00,3.025020027807413997e-06,4.423866390993752138e-06
2.246825396825396837e+00,2.692710055043756680e-06,-2.278600071205817176e-06
2.247619047619047628e+00,1.693266795773806408e-06,-9.169927588094321978e-06
2.248412698412698418e+00,6.314658885496912049e-08,-1.582142419097541574e-05
2.249206349206349209e+00,-2.011763035418509458e-06,-2.166134070775275309e-05
2.250000000000000000e+00,-4.199195380647725391e-06,-2.598136700806030931e-05
2.250793650793650791e+00,-6.051477313889339459e-06,-2.803426360554120349e-05
2.251587301587301582e+00,-7.065227339103149865e-06,-2.720812423412983071e-05
2.252380952380952372e+00,-6.767078503066978733e-06,-2.323907136325132269e-05
2.253174603174603163e+00,-4.818242121492900855e-06,-1.640401587389389871e-05
2.253968253968253954e+00,-1.123831146268071793e-06,-7.624451712363612372e-06
2.254761904761904745e+00,4.075926635798022317e-06,1.580470406598378757e-06
2.255555555555555536e+00,1.016206898291298294e-05,9.324040283006731919e-06
2.256349206349206327e+00,1.616947913240077115e-05,1.374958806659464863e-05
2.257142857142857117e+00,2.091325572212580499e-05,1.352165633035584558e-05
2.257936507936507908e+00,2.320638406519803839e-05,8.283657827147929647e-06
2.258730158730158699e+00,2.213944155962659330e-05,-1.068891934174662018e-06
2.259523809523809490e+00,1.736228722330793682e-05,-1.242303111321153292e-05
2.260317460317460281e+00,9.280968461268092280e-06,-2.283646827685347752e-05
2.261111111111111072e+00,-9.207392860468180807e-07,-2.922185632013534534e-05
2.261904761904761862e+00,-1.148572456714245640e-05,-2.917247726918099847e-05
2.262698412698412653e+00,-2.048227969445186561e-05,-2.170679946234882872e-05
2.263492063492063444e+00,-2.628010664343373404e-05,-7.695122110781347420e-06
2.264285714285714235e+00,-2.794937702503444925e-05,1.020783012067667335e-05
2.265079365079365026e+00,-2.546003129099181118e-05,2.816477301836867644e-05
2.265873015873015817e+00,-1.963388545553674237e-05,4.215635718787878305e-05
2.266666666666666607e+00,-1.188188673991345978e-05,4.909086949275136421e-05
2.267460317460317398e+00,-3.817579255287206333e-06,4.767123818609845365e-05
2.268253968253968189e+00,3.134966161005278726e-06,3.873565137017544294e-05
2.269047619047618980e+00,8.029574316449842854e-06,2.496845476468565847e-05
2.269841269841269771e+00,1.051683068284263850e-05,1.009560232135258658e-05
2.270634920634920562e+00,1.079007891246076389e-05,-2.157691869678671752e-06
2.271428571428571352e+00,9.411353458450303627e-06,-9.020188134405273073e-06
2.272222222222222143e+00,7.096071796447739383e-06,-9.281694353180944615e-06
2.273015873015872934e+00,4.525369388102944394e-06,-3.441737171614033945e-06
2.273809523809523725e+00,2.223664452441979037e-06,6.561746186052002568e-06
2.274603174603174516e+00,5.076209334132180733e-07,1.790649829972726023e-05
2.275396825396825307e+00,-5.067331701349911080e-07,2.755593426279763131e-05
2.276190476190476097e+00,-8.594606386791258504e-07,3.289743824405721426e-05
2.276984126984126888e+00,-6.860078453661667889e-07,3.224125076549501704e-05
2.277777777777777679e+00,-1.585426221536356806e-07,2.511659723788358352e-05
2.278571428571428470e+00,5.579185647368197610e-07,1.234322950379616927e-05
2.279365079365079261e+00,1.328722617326844252e-06,-4.112835806318460149e-06
2.280158730158730052e+00,2.053085176337830085e-06,-2.147629031360714772e-05
2.280952380952380842e+00,2.654090313207031835e-06,-3.666220035578373075e-05
2.281746031746031633e+00,3.063903029209322047e-06,-4.688664504725468987e-05
2.282539682539682424e+00,3.212560175346217532e-06,-5.028739138967982256e-05
2.283333333333333215e+00,3.026439433251096295e-06,-4.639788627910213350e-05
2.284126984126984006e+00,2.439330279354571723e-06,-3.630555472488510520e-05
2.284920634920634797e+00,1.415157792107441906e-06,-2.239632807094894091e-05
2.285714285714285587e+00,-2.305208830415712545e-08,-7.728870001004107838e-06
2.286507936507936378e+00,-1.767371743897036372e-06,4.771966373623040272e-06
2.287301587301587169e+00,-3.613694392104253879e-06,1.303896671031199417e-05
2.288095238095237960e+00,-5.275357387467277619e-06,1.627782114088577312e-05
2.288888888888888751e+00,-6.427727754044132089e-06,1.497732420706323353e-05
2.289682539682539542e+00,-6.781331903122142982e-06,1.057118886403583283e-05
2.290476190476190332e+00,-6.168529833465452662e-06,4.912882818187088550e-06
2.291269841269841123e+00,-4.616226083854755998e-06,-2.507670207350831482e-07
2.292063492063491914e+00,-2.372969092364350469e-06,-3.664226355708725168e-06
2.292857142857142705e+00,1.305178278749814733e-07,-4.739746392869681188e-06
2.293650793650793496e+00,2.384501062337351238e-06,-3.535268093673050304e-06
2.294444444444444287e+00,3.937092567463856206e-06,-5.933582565149353506e-07
2.295238095238095077e+00,4.517495249597087471e-06,3.283106124424583461e-06
2.296031746031745868e+00,4.101448213281982038e-06,7.253066024939061019e-06
2.296825396825396659e+00,2.899015709583420015e-06,1.061451318882579927e-05
2.297619047619047450e+00,1.277445436120173972e-06,1.291595123035681432e-05
2.298412698412698241e+00,-3.461498878156443147e-07,1.399540667567045500e-05
2.299206349206349032e+00,-1.605538788316856616e-06,1.394958173635355161e-05
2.299999999999999822e+00,-2.255384887977633102e-06,1.304583916357868398e-05
2.300793650793650613e+00,-2.201963810829837393e-06,1.160145930159610650e-05
2.301587301587301404e+00,-1.497501569975992161e-06,9.863543457169542193e-06
2.302380952380952195e+00,-3.075302558388203012e-07,7.923975407721725548e-06
2.303174603174602986e+00,1.136529859816584698e-06,5.695215771502365763e-06
2.303968253968253777e+00,2.587312676133027812e-06,2.956670498407445636e-06
2.304761904761904567e+00,3.824074712442127597e-06,-5.374269134589044919e-07
2.305555555555555358e+00,4.682095820732244004e-06,-4.914251727491427783e-06
2.306349206349206149e+00,5.067601625373419399e-06,-1.003906644943851478e-05
2.307142857142856940e+00,4.960142421813530033e-06,-1.541262968954647098e-05
2.307936507936507731e+00,4.405660880902566533e-06,-2.014795591784520094e-05
2.308730158730158522e+00,3.503326696395182212e-06,-2.305696328809180088e-05
2.309523809523809312e+00,2.388457428354867234e-06,-2.285852750749596714e-05
2.310317460317460103e+00,1.213051104153654272e-06,-1.848675640102732221e-05
2.311111111111110894e+00,1.251003696732626992e-07,-9.439226180854640017e-06
2.311904761904761685e+00,-7.516295769844478021e-07,3.924094501779506320e-06
2.312698412698412920e+00,-1.334512354381529281e-06,2.022546008408311955e-05
2.313492063492063711e+00,-1.592187531813374779e-06,3.712965410581199149e-05
2.314285714285714501e+00,-1.545505664245325803e-06,5.164861295191644107e-05
2.315079365079365292e+00,-1.259397873275045125e-06,6.066229320874792687e-05
2.315873015873016083e+00,-8.282105207968071853e-07,6.156762384217620207e-05
2.316666666666666874e+00,-3.582731170641036344e-07,5.291668973630553183e-05
2.317460317460317665e+00,4.856744952677335827e-08,3.488042785421458674e-05
2.318253968253968456e+00,3.076476128922020364e-07,9.392879256919292930e-06
2.319047619047619246e+00,3.592086946099057816e-07,-2.009830488975959434e-05
2.319841269841270037e+00,1.717764719578159930e-07,-4.924307504126651123e-05
2.320634920634920828e+00,-2.568364659273792670e-07,-7.362683784519857789e-05
2.321428571428571619e+00,-8.989658626838219076e-07,-8.963758921759686917e-05
2.322222222222222410e+00,-1.696561610100711221e-06,-9.515862841080550136e-05
2.323015873015873201e+00,-2.562496980297007530e-06,-8.992835498438793733e-05
2.323809523809523991e+00,-3.387008227680974487e-06,-7.549301241445409850e-05
2.324603174603174782e+00,-4.051949140851798428e-06,-5.478278601191787054e-05
2.325396825396825573e+00,-4.452444608377603011e-06,-3.143722596357402126e-05
2.326190476190476364e+00,-4.521097006025825343e-06,-9.059441958767576155e-06
2.326984126984127155e+00,-4.246698493833446402e-06,9.428693569998827077e-06
2.327777777777777946e+00,-3.679763663568461933e-06,2.221372115637145498e-05
2.328571428571428736e+00,-2.921384901504221206e-06,2.875275301108163887e-05
2.329365079365079527e+00,-2.097933201610142301e-06,2.967952695998505891e-05
2.330158730158730318e+00,-1.329151277269455250e-06,2.650450468865587640e-05
2.330952380952381109e+00,-6.991465494145602505e-07,2.119080252932262448e-05
2.331746031746031900e+00,-2.382971742403326572e-07,1.570455575164138315e-05
2.332539682539682691e+00,7.964294862425778022e-08,1.163112017367554152e-05
2.333333333333333481e+00,3.251059017995509118e-07,9.920257649721808994e-06
2.334126984126984272e+00,5.882479101658902170e-07,1.078872733681318953e-05
2.334920634920635063e+00,9.484854247152329949e-07,1.377863377575723296e-05
2.335714285714285854e+00,1.446223560623324279e-06,1.794468706360634905e-05
2.336507936507936645e+00,2.065717943913977720e-06,2.212112859529413931e-05
2.337301587301587436e+00,2.735650427098302173e-06,2.520402084448247274e-05
2.338095238095238226e+00,3.348225585534812299e-06,2.638462630251114171e-05
2.338888888888889017e+00,3.790780381569992683e-06,2.528694965669908151e-05
2.339682539682539808e+00,3.979543211392980849e-06,2.199144710138766127e-05
2.340476190476190599e+00,3.885200750061018615e-06,1.695787905637806398e-05
2.341269841269841390e+00,3.543521112770365420e-06,1.088440822034771898e-05
2.342063492063492181e+00,3.049018718808660955e-06,4.550487248959523371e-06
2.342857142857142971e+00,2.533560903893449006e-06,-1.315684738613575918e-06
2.343650793650793762e+00,2.134451670514495304e-06,-6.125155024949156043e-06
2.344444444444444553e+00,1.958395501560141457e-06,-9.475207986231403784e-06
2.345238095238095344e+00,2.049182910233656002e-06,-1.117127414126217638e-05
2.346031746031746135e+00,2.367432898800078624e-06,-1.123504005179531536e-05
2.346825396825396925e+00,2.789250809793798503e-06,-9.896562543490933949e-06
2.347619047619047716e+00,3.126841857383712251e-06,-7.560407533174157358e-06
2.348412698412698507e+00,3.168836572032779908e-06,-4.739976690012206037e-06
2.349206349206349298e+00,2.732766256006141309e-06,-1.964667645401052587e-06
2.350000000000000089e+00,1.717963037175072781e-06,3.256878671156812402e-07
2.350793650793650880e+00,1.451044624217153460e-07,1.876877402241068496e-06
2.351587301587301670e+00,-1.830368983816313936e-06,2.678773193417309985e-06
2.352380952380952461e+00,-3.938895605474405934e-06,2.958346442097705067e-06
2.353174603174603252e+00,-5.850745927430495177e-06,3.092811451232539755e-06
2.353968253968254043e+00,-7.251533507429862067e-06,3.458177936340469755e-06
2.354761904761904834e+00,-7.917968010729058240e-06,4.264534968739173678e-06
2.355555555555555625e+00,-7.769903375869538606e-06,5.448908400549606241e-06
2.356349206349206415e+00,-6.882545001389073403e-06,6.679630512101627121e-06
2.357142857142857206e+00,-5.457919626591510760e-06,7.475968294234963180e-06
2.357936507936507997e+00,-3.768842905473179200e-06,7.392127928413038259e-06
2.358730158730158788e+00,-2.094726059417659891e-06,6.189055272068286229e-06
2.359523809523809579e+00,-6.663206335347518779e-07,3.931717234070015349e-06
2.360317460317460370e+00,3.699589575275037312e-07,9.869519314545814567e-07
2.361111111111111160e+00,9.642952062127803933e-07,-2.067566641209110328e-06
2.361904761904761951e+00,1.153956684092942258e-06,-4.592309310362137241e-06
2.362698412698412742e+00,1.037682070329503655e-06,-6.055461523286724207e-06
2.363492063492063533e+00,7.422916043477834762e-07,-6.186969380217194183e-06
2.364285714285714324e+00,3.908479653209718715e-07,-5.084853640725347959e-06
2.365079365079365115e+00,8.030692504388402092e-08,-3.246071659619295790e-06
2.365873015873015905e+00,-1.272408972560262611e-07,-1.500771692409082087e-06
2.366666666666666696e+00,-2.005385742578030899e-07,-8.421978554394958680e-07
2.367460317460317487e+00,-1.269537911531166331e-07,-2.168802040516794369e-06
2.368253968253968278e+00,1.017469477215125219e-07,-5.987956835607450849e-06
2.369047619047619069e+00,4.998726706158349200e-07,-1.216128158900157797e-05
2.369841269841269860e+00,1.090407631213614315e-06,-1.978354878350913797e-05
2.370634920634920650e+00,1.898168828639059988e-06,-2.726512631083252496e-05
2.371428571428571441e+00,2.934924087632659789e-06,-3.262933125246614654e-05
2.372222222222222232e+00,4.180337741438603852e-06,-3.396049309801327438e-05
2.373015873015873023e+00,5.563878128507150457e-06,-2.988106438718596245e-05
2.373809523809523814e+00,6.952963505005491560e-06,-1.992489352870290928e-05
2.374603174603174605e+00,8.152212788594308672e-06,-4.711161781863321447e-06
2.375396825396825395e+00,8.918013778136124760e-06,1.411320209987338152e-05
2.376190476190476186e+00,8.991184192142628312e-06,3.413562053286272181e-05
2.376984126984126977e+00,8.147258318618869064e-06,5.257974998372913830e-05
2.377777777777777768e+00,6.258440504733000765e-06,6.676576833676412773e-05
2.378571428571428559e+00,3.354177210798961418e-06,7.454612369945873090e-05
2.379365079365079350e+00,-3.396032135682117292e-07,7.464503691883584162e-05
2.380158730158730140e+00,-4.405508866095095730e-06,6.685033664561722440e-05
2.380952380952380931e+00,-8.299760355139542754e-06,5.202889888580550134e-05
2.381746031746031722e+00,-1.147164942163911432e-05,3.196239592731092558e-05
2.382539682539682513e+00,-1.350274713320511845e-05,9.033626068206642486e-06
2.383333333333333304e+00,-1.421407765984317254e-05,-1.416994799052486172e-05
2.384126984126984095e+00,-1.369915290868509541e-05,-3.524719622049731220e-05
2.384920634920634885e+00,-1.227122110131325790e-05,-5.228812377524491404e-05
2.385714285714285676e+00,-1.034550989339454761e-05,-6.404815500840083011e-05
2.386507936507936467e+00,-8.300078132426264493e-06,-6.999464482667935134e-05
2.387301587301587258e+00,-6.368223373245721979e-06,-7.025868291768643480e-05
2.388095238095238049e+00,-4.604291696277009905e-06,-6.552626246254416632e-05
2.388888888888888840e+00,-2.930477822741395188e-06,-5.688979109748284069e-05
2.389682539682539630e+00,-1.231669205901395302e-06,-4.567557695661983506e-05
2.390476190476190421e+00,5.538052872296232308e-07,-3.326718820833027355e-05
2.391269841269841212e+00,2.387027499719081938e-06,-2.094559454182068285e-05
2.392063492063492003e+00,4.135561493358592058e-06,-9.760168364117398099e-06
2.392857142857142794e+00,5.621609637314348973e-06,-4.380881333414543644e-07
2.393650793650793585e+00,6.687312143251221518e-06,6.660726240233567562e-06
2.394444444444444375e+00,7.251940967014159882e-06,1.153517806125217022e-05
2.395238095238095166e+00,7.340660958996048823e-06,1.447868955258070056e-05
2.396031746031745957e+00,7.075432409801635567e-06,1.596928207165949267e-05
2.396825396825396748e+00,6.633158459155687675e-06,1.653753094186394138e-05
2.397619047619047539e+00,6.187885539411490969e-06,1.664281077392144748e-05
2.398412698412698330e+00,5.857212822789431043e-06,1.658606624981682709e-05
2.399206349206349120e+00,5.668240632912170848e-06,1.647785381135148276e-05
2.399999999999999911e+00,5.549896742548452397e-06,1.626741267829221274e-05
2.400793650793650702e+00,5.350818053030985978e-06,1.582417285995186339e-05
2.401587301587301493e+00,4.877188513124982906e-06,1.504721787605940978e-05
2.402380952380952284e+00,3.942643939150264062e-06,1.396291627757738619e-05
2.403174603174603075e+00,2.421068594462450126e-06,1.276453630774405071e-05
2.403968253968253865e+00,2.919558996483251338e-07,1.176070314815067942e-05
2.404761904761904656e+00,-2.332602121345307255e-06,1.123567561695110568e-05
2.405555555555555447e+00,-5.209012766719146593e-06,1.127329391962482634e-05
2.406349206349206238e+00,-7.996557945288948385e-06,1.163298533626888087e-05
2.407142857142857029e+00,-1.032178608975663235e-05,1.176093068422913538e-05
2.407936507936507819e+00,-1.185900932291563671e-05,1.096140868608008204e-05
2.408730158730158610e+00,-1.240458855439506504e-05,8.668700668007679196e-06
2.409523809523809401e+00,-1.192150175029521545e-05,4.701385621509496919e-06
2.410317460317460192e+00,-1.053864910760684377e-05,-6.132830841118337205e-07
2.411111111111110983e+00,-8.503785322891799187e-06,-6.494836563499991500e-06
2.411904761904761774e+00,-6.104596957560880484e-06,-1.191811522624035517e-05
2.412698412698412564e+00,-3.584030628631256010e-06,-1.589504301350254923e-05
2.413492063492063355e+00,-1.079149688354744179e-06,-1.773280882473441791e-05
2.414285714285714146e+00,1.394977237960603652e-06,-1.718549754463767395e-05
2.415079365079364937e+00,3.911580049149862895e-06,-1.445343680883629265e-05
2.415873015873015728e+00,6.562609282295325729e-06,-1.003801753937932640e-05
2.416666666666666519e+00,9.380137884424731944e-06,-4.515220135398700388e-06
2.417460317460317309e+00,1.227863939965533832e-05,1.675009058458258892e-06
2.418253968253968100e+00,1.504084830887075533e-05,8.332889541855193630e-06
2.419047619047618891e+00,1.735455230251809852e-05,1.545068030359920334e-05
2.419841269841269682e+00,1.888898619981154516e-05,2.302824366927906001e-05
2.420634920634920473e+00,1.938478308367921289e-05,3.082249044230718575e-05
2.421428571428571264e+00,1.872677357511878067e-05,3.813314026112679179e-05
2.422222222222222054e+00,1.697583499654452239e-05,4.373044070249589569e-05
2.423015873015872845e+00,1.435138984307236630e-05,4.599837738629331972e-05
2.423809523809523636e+00,1.117372442204435078e-05,4.329852759620309932e-05
2.424603174603174427e+00,7.787849146314015843e-06,3.447213585830301259e-05
2.425396825396825218e+00,4.493748949227180445e-06,1.932735767135965537e-05
2.426190476190476009e+00,1.501944765007688347e-06,-1.059139814928395710e-06
2.426984126984126799e+00,-1.078019431832427520e-06,-2.434985983472513494e-05
2.427777777777777590e+00,-3.220595886424392973e-06,-4.729380529137318585e-05
2.428571428571428381e+00,-4.951705487178477103e-06,-6.634141758100763509e-05
2.429365079365079172e+00,-6.315872384575772070e-06,-7.837834719649132507e-05
2.430158730158729963e+00,-7.354338375329982878e-06,-8.139675134004339496e-05
2.430952380952380754e+00,-8.098249356894825641e-06,-7.493695335982286459e-05
2.431746031746031544e+00,-8.574090894713454154e-06,-6.018791524746742593e-05
2.432539682539682335e+00,-8.814412873328108641e-06,-3.972158797640857030e-05
2.433333333333333126e+00,-8.866216848197216421e-06,-1.693289752925132563e-05
2.434126984126983917e+00,-8.791621413165075170e-06,4.666271476689707570e-06
2.434920634920634708e+00,-8.659361438641744910e-06,2.212058661430262323e-05
2.435714285714285499e+00,-8.529726402983431191e-06,3.351858415509847923e-05
2.436507936507936289e+00,-8.438086267645590719e-06,3.820660674211163760e-05
2.437301587301587080e+00,-8.382407841256437061e-06,3.672306859223967005e-05
2.438095238095238315e+00,-8.318740515549982918e-06,3.051432311078146030e-05
2.438888888888889106e+00,-8.166767683363738048e-06,2.153054296170298508e-05
2.439682539682539897e+00,-7.825740010438576261e-06,1.180411362343912915e-05
2.440476190476190688e+00,-7.199273340577800246e-06,3.093211147526028822e-06
2.441269841269841478e+00,-6.225573595114227672e-06,-3.357452114021278503e-06
2.442063492063492269e+00,-4.907903429308049471e-06,-6.919236339193686331e-06
2.442857142857143060e+00,-3.338639056302543553e-06,-7.556085056739288197e-06
2.443650793650793851e+00,-1.709181651211997434e-06,-5.708166886503841653e-06
2.444444444444444642e+00,-2.980122075934720117e-07,-2.125334180168920084e-06
2.445238095238095433e+00,5.683737859098241536e-07,2.311126821307052810e-06
2.446031746031746223e+00,5.811026478713683119e-07,6.750747614428388332e-06
2.446825396825397014e+00,-4.680690066895849039e-07,1.050188765082900647e-05
2.447619047619047805e+00,-2.604596312486410555e-06,1.311351082506395997e-05
2.448412698412698596e+00,-5.613710175156958057e-06,1.440490839868065292e-05
2.449206349206349387e+00,-9.030530645019981795e-06,1.444575816425542797e-05
2.450000000000000178e+00,-1.219165784484452706e-05,1.349685107763758689e-05
2.450793650793650968e+00,-1.434695913226948481e-05,1.192616531361124704e-05
2.451587301587301759e+00,-1.481259557680299857e-05,1.011589992774388916e-05
2.452380952380952550e+00,-1.313150604351087901e-05,8.375959452941680216e-06
2.453174603174603341e+00,-9.200702278594472986e-06,6.878875629953396474e-06
2.453968253968254132e+00,-3.328740270977497370e-06,5.628965708894113931e-06
2.454761904761904923e+00,3.798187250660506580e-06,4.473449818644287459e-06
2.455555555555555713e+00,1.123933168472989026e-05,3.155142140686185257e-06
2.456349206349206504e+00,1.798311331816748558e-05,1.396405606488741284e-06
2.457142857142857295e+00,2.314391073943542715e-05,-1.004916856793388291e-06
2.457936507936508086e+00,2.612126761613935169e-05,-4.091543822446968761e-06
2.458730158730158877e+00,2.668508633198987931e-05,-7.697041591714363820e-06
2.459523809523809668e+00,2.497501563474897906e-05,-1.144501036595532517e-05
2.460317460317460458e+00,2.142713588927395784e-05,-1.480049334029222127e-05
2.461111111111111249e+00,1.665778828750618643e-05,-1.716472428051377900e-05
2.461904761904762040e+00,1.133898624486380405e-05,-1.799389098587555891e-05
2.462698412698412831e+00,6.093404158956972759e-06,-1.691606147565671039e-05
2.463492063492063622e+00,1.424196848862542606e-06,-1.381969084282039676e-05
2.464285714285714413e+00,-2.318530429658080296e-06,-8.893970704974918324e-06
2.465079365079365203e+00,-4.942317221480785845e-06,-2.615422225185045386e-06
2.465873015873015994e+00,-6.399116714173135785e-06,4.309729519940755066e-06
2.466666666666666785e+00,-6.763891512194905105e-06,1.103353337088047300e-05
2.467460317460317576e+00,-6.211672307633211113e-06,1.668154488408064691e-05
2.468253968253968367e+00,-4.996435306325291242e-06,2.050096636395235721e-05
2.469047619047619158e+00,-3.430525114523301890e-06,2.202973282844456634e-05
2.469841269841269948e+00,-1.858246332247415136e-06,2.123586565309954846e-05
2.470634920634920739e+00,-6.161331686238606796e-07,1.855788958654496653e-05
2.471428571428571530e+00,2.131708817685662125e-08,1.481066581731006775e-05
2.472222222222222321e+00,-9.957952444177122755e-08,1.098712678527336239e-05
2.473015873015873112e+00,-9.673904295039669781e-07,8.030870431387441812e-06
2.473809523809523903e+00,-2.394707462509746849e-06,6.643367286362479192e-06
2.474603174603174693e+00,-4.049553003758361339e-06,7.141552942965124718e-06
2.475396825396825484e+00,-5.523090557764706482e-06,9.349351278481995081e-06
2.476190476190476275e+00,-6.416864445580794411e-06,1.252483468643053558e-05
2.476984126984127066e+00,-6.431255242162580143e-06,1.537420122513716492e-05
2.477777777777777857e+00,-5.442536549688708412e-06,1.622791644711763523e-05
2.478571428571428648e+00,-3.561764586415554369e-06,1.341357876705881325e-05
2.479365079365079438e+00,-1.168780997933794881e-06,5.768636547883864308e-06
2.480158730158730229e+00,1.091322006065612686e-06,-6.854704937797371623e-06
2.480952380952381020e+00,2.367342911844789679e-06,-2.328323481887604129e-05
2.481746031746031811e+00,1.730495741405758110e-06,-4.107599225814313239e-05
2.482539682539682602e+00,-1.631273589258504256e-06,-5.699062593095600049e-05
2.483333333333333393e+00,-8.180705621055375031e-06,-6.776155508654139222e-05
2.484126984126984183e+00,-1.780903126810743216e-05,-7.095397746231650073e-05
2.484920634920634974e+00,-2.968578779753659465e-05,-6.561580105217667278e-05
2.485714285714285765e+00,-4.224260094913138600e-05,-5.252528409528179395e-05
2.486507936507936556e+00,-5.333398289049113005e-05,-3.398292807474404339e-05
2.487301587301587347e+00,-6.057769934441675417e-05,-1.324479432009636393e-05
2.488095238095238138e+00,-6.182364768165960075e-05,6.216872538942179997e-06
2.488888888888888928e+00,-5.565085663472073638e-05,2.142511006826653899e-05
2.489682539682539719e+00,-4.176594783045836369e-05,3.042431791035004503e-05
2.490476190476190510e+00,-2.118609673751268091e-05,3.253793198461881663e-05
2.491269841269841301e+00,3.862448679083010651e-06,2.835246119047020837e-05
2.492063492063492092e+00,3.032347860300834737e-05,1.948018415413497827e-05
2.492857142857142883e+00,5.488029259558035636e-05,8.179066711849673378e-06
2.493650793650793673e+00,7.457219101031206307e-05,-3.090771923023914727e-06
2.494444444444444464e+00,8.730529181206487372e-05,-1.210347466352084090e-05
2.495238095238095255e+00,9.214525365780569023e-05,-1.723273688763421493e-05
2.496031746031746046e+00,8.935015921925278939e-05,-1.768872901480106208e-05
2.496825396825396837e+00,8.017292189121793665e-05,-1.358762761625554174e-05
2.497619047619047628e+00,6.651111944117088948e-05,-5.849125820711957130e-06
2.498412698412698418e+00,5.050105952847680306e-05,4.042170713723739662e-06
2.499206349206349209e+00,3.414614260122127186e-05,1.434640285119236441e-05
2.500000000000000000e+00,1.904433361667369772e-05,2.337814388392077467e-05
2.500793650793650791e+00,6.244430588326806786e-06,2.976153621843270200e-05
2.501587301587301582e+00,-3.773444602791343453e-06,3.260407209821819177e-05
2.502380952380952372e+00,-1.102157581011971179e-05,3.158733621514085959e-05
2.503174603174603163e+00,-1.587052095910458595e-05,2.698620232682426580e-05
2.503968253968253954e+00,-1.889242189363720453e-05,1.962759991790437574e-05
2.504761904761904745e+00,-2.070847160426774874e-05,1.079045220589175249e-05
2.505555555555555536e+00,-2.185893163192773752e-05,2.038290787056830583e-06
2.506349206349206327e+00,-2.270897316675558476e-05,-5.022574064506124136e-06
2.507142857142857117e+00,-2.340045700113518648e-05,-9.043981517476339051e-06
2.507936507936507908e+00,-2.385555605017276545e-05,-9.241657322103655602e-06
2.508730158730158699e+00,-2.383113662226255105e-05,-5.618199129897146347e-06
2.509523809523809490e+00,-2.301358389702838885e-05,9.857354477802019276e-07
2.510317460317460281e+00,-2.113430626869432954e-05,9.058936719702974345e-06
2.511111111111111072e+00,-1.807932752724773879e-05,1.677871626042844459e-05
2.511904761904761862e+00,-1.396537590624328628e-05,2.246027283151071189e-05
2.512698412698412653e+00,-9.161635142533474353e-06,2.495611937987740576e-05
2.513492063492063444e+00,-4.249414781807891202e-06,2.388061705368081419e-05
2.514285714285714235e+00,7.290875010106532525e-08,1.959849724234301150e-05
2.515079365079365026e+00,3.119528100557741363e-06,1.300233568835183449e-05
2.515873015873015817e+00,4.353430249920987860e-06,5.176344451259272008e-06
2.516666666666666607e+00,3.500164661774005145e-06,-2.926434716256931127e-06
2.517460317460317398e+00,6.164510296487221706e-07,-1.068678018325938236e-05
2.518253968253968189e+00,-3.897793816217948979e-06,-1.785018428204038245e-05
2.519047619047618980e+00,-9.344200510389144497e-06,-2.439864185212561694e-05
2.519841269841269771e+00,-1.482015265111571347e-05,-3.032692316660198428e-05
2.520634920634920562e+00,-1.935108601122562276e-05,-3.541322821747630378e-05
2.521428571428571352e+00,-2.204610138799297734e-05,-3.907472203626587891e-05
2.522222222222222143e+00,-2.225724704826890723e-05,-4.037614991579198035e-05
2.523015873015872934e+00,-1.971689897092413870e-05,-3.821755186219922542e-05
2.523809523809523725e+00,-1.462354178531076633e-05,-3.167085765241171603e-05
2.524603174603174516e+00,-7.648202665068184168e-06,-2.037730521970932413e-05
2.525396825396825307e+00,1.548269108531023933e-07,-4.877298323857370809e-06
2.526190476190476097e+00,7.528548973591947796e-06,1.325846480146165148e-05
2.526984126984126888e+00,1.325466906548653174e-05,3.158251236741941692e-05
2.527777777777777679e+00,1.640236883864915049e-05,4.720977792515984459e-05
2.528571428571428470e+00,1.652128174649002652e-05,5.744678309523860288e-05
2.529365079365079261e+00,1.372684787074845761e-05,6.044328340675507189e-05
2.530158730158730052e+00,8.656760439840459150e-06,5.567964266205135607e-05
2.530952380952380842e+00,2.314879197850073252e-06,4.414397994159817754e-05
2.531746031746031633e+00,-4.151286690077082713e-06,2.814004298748255987e-05
2.532539682539682424e+00,-9.680762373855180886e-06,1.077191093531460043e-05
2.533333333333333215e+00,-1.348323080209358916e-05,-4.757650125105187535e-06
2.534126984126984006e+00,-1.514187421097109116e-05,-1.584982433152624010e-05
2.534920634920634797e+00,-1.462544626847105990e-05,-2.103590163101746088e-05
2.535714285714285587e+00,-1.222471505264970731e-05,-2.020880851781481588e-05
2.536507936507936378e+00,-8.443795107687665906e-06,-1.452934629796565110e-05
2.537301587301587169e+00,-3.880169978301926451e-06,-6.061255413939780339e-06
2.538095238095237960e+00,8.785257109178128417e-07,2.752129642674602489e-06
2.538888888888888751e+00,5.323583417123053170e-06,9.634053747621736417e-06
2.539682539682539542e+00,9.056107755840370890e-06,1.291993199941126869e-05
2.540476190476190332e+00,1.178889287717658287e-05,1.181817328893198894e-05
2.541269841269841123e+00,1.333696416236244431e-05,6.455307430588394726e-06
2.542063492063491914e+00,1.361423948704875502e-05,-2.272290700149559733e-06
2.542857142857142705e+00,1.264485965859819058e-05,-1.297609171931005162e-05
2.543650793650793496e+00,1.058465564343606166e-05,-2.409665779836287617e-05
2.544444444444444287e+00,7.737319967244306882e-06,-3.418553232332952583e-05
2.545238095238095077e+00,4.546205476228916315e-06,-4.209236322100712085e-05
2.546031746031745868e+00,1.548178647953607902e-06,-4.704466853756754179e-05
2.546825396825396659e+00,-7.112320158852263516e-07,-4.864681168073746909e-05
2.547619047619047450e+00,-1.786775298198667507e-06,-4.684097790636185016e-05
2.548412698412698241e+00,-1.439742071103983454e-06,-4.186213648821140548e-05
2.549206349206349032e+00,2.891672769936348222e-07,-3.419616360600289344e-05
2.549999999999999822e+00,3.064513536414452399e-06,-2.453513596624483590e-05
2.550793650793650613e+00,6.307129129353827084e-06,-1.372351115831581625e-05
2.551587301587301404e+00,9.301810806482902009e-06,-2.695777831286351594e-06
2.552380952380952195e+00,1.133699642646548399e-05,7.591485871218629543e-06
2.553174603174602986e+00,1.184452985968045953e-05,1.623595704439086980e-05
2.553968253968253777e+00,1.050980761629727917e-05,2.248360495974846210e-05
2.554761904761904567e+00,7.332810080666423977e-06,2.584606125774608455e-05
2.555555555555555358e+00,2.634157830187095007e-06,2.622894914633948309e-05
2.556349206349206149e+00,-2.988607932179161062e-06,2.403269787463039835e-05
2.557142857142856940e+00,-8.744207024482039811e-06,2.016708413621912197e-05
2.557936507936507731e+00,-1.375942852918895227e-05,1.592260624006426736e-05
2.558730158730158522e+00,-1.720884687860110572e-05,1.267789446459583137e-05
2.559523809523809312e+00,-1.844950513398228295e-05,1.149116852442246355e-05
2.560317460317460103e+00,-1.714280161273055652e-05,1.270217345300342822e-05
2.561111111111110894e+00,-1.334047188903350565e-05,1.571635002647072901e-05
2.561904761904761685e+00,-7.509356854579211320e-06,1.911213553707394428e-05
2.562698412698412920e+00,-4.751739061128779600e-07,2.109435572409641089e-05
2.563492063492063711e+00,6.717786859148787430e-06,2.015544713818417447e-05
2.564285714285714501e+00,1.300797234414918819e-05,1.568609535541869922e-05
2.565079365079365292e+00,1.753004870948395255e-05,8.273226824758533827e-06
2.565873015873016083e+00,1.978081305602319041e-05,-4.495633065920750625e-07
2.566666666666666874e+00,1.969078795969736440e-05,-8.339104037381554939e-06
2.567460317460317665e+00,1.758707583717721883e-05,-1.344752840708625148e-05
2.568253968253968456e+00,1.406900239069950933e-05,-1.462734879033116857e-05
2.569047619047619246e+00,9.841866151593818679e-06,-1.183932238239704624e-05
2.569841269841270037e+00,5.558834095115278377e-06,-6.099681634775379354e-06
2.570634920634920828e+00,1.709452126535519727e-06,8.682535495062611823e-07
2.571428571428571619e+00,-1.426979576193414343e-06,7.134080026388889961e-06
2.572222222222222410e+00,-3.766088007974396255e-06,1.104817916431615649e-05
2.573015873015873201e+00,-5.360575466562461766e-06,1.158576453957338234e-05
2.573809523809523991e+00,-6.327579635007476884e-06,8.484934327092399830e-06
2.574603174603174782e+00,-6.787745716333105514e-06,2.195501713643374204e-06
2.575396825396825573e+00,-6.832831638056534188e-06,-6.292013713900375847e-06
2.576190476190476364e+00,-6.524817674831289288e-06,-1.565970376645635305e-05
2.576984126984127155e+00,-5.917502399400045623e-06,-2.446645387493463441e-05
2.577777777777777946e+00,-5.085760504830789776e-06,-3.132780422233297500e-05
2.578571428571428736e+00,-4.148101872445358226e-06,-3.508040326829191805e-05
2.579365079365079527e+00,-3.271864939734387246e-06,-3.493979473336607651e-05
2.580158730158730318e+00,-2.654826340952249072e-06,-3.064017792759584556e-05
2.580952380952381109e+00,-2.482623995052546607e-06,-2.252209383528476621e-05
2.581746031746031900e+00,-2.869525316380231127e-06,-1.152603012242702663e-05
2.582539682539682691e+00,-3.799384278586785389e-06,9.345153276888801656e-07
2.583333333333333481e+00,-5.089733817099163747e-06,1.321033577994149729e-05
2.584126984126984272e+00,-6.400390310134162773e-06,2.371291994847077704e-05
2.584920634920635063e+00,-7.297039008334156847e-06,3.119762425192201832e-05
2.585714285714285854e+00,-7.362427660489911978e-06,3.497144631898004588e-05
2.586507936507936645e+00,-6.328864851435824877e-06,3.499103268249735809e-05
2.587301587301587436e+00,-4.192621629699835454e-06,3.184040144780675988e-05
2.588095238095238226e+00,-1.269067054815620706e-06,2.659199134389907395e-05
2.588888888888889017e+00,1.840535274840505127e-06,2.056902663212715655e-05
2.589682539682539808e+00,4.375187126312782316e-06,1.504851697046811990e-05
2.590476190476190599e+00,5.607595187544980056e-06,1.096649230030337033e-05
2.591269841269841390e+00,5.053969251602204606e-06,8.699641317660126186e-06
2.592063492063492181e+00,2.639623676927464670e-06,7.992294905142978480e-06
2.592857142857142971e+00,-1.230637751638636963e-06,8.068191631789920824e-06
2.593650793650793762e+00,-5.724379248619028502e-06,7.911815611888866405e-06
2.594444444444444553e+00,-9.751453839838818092e-06,6.638736282334947076e-06
2.595238095238095344e+00,-1.221535963514793280e-05,3.826793198824497249e-06
2.596031746031746135e+00,-1.228323356495800419e-05,-3.223396254735600035e-07
2.596825396825396925e+00,-9.602023433459475050e-06,-5.068017782594816112e-06
2.597619047619047716e+00,-4.401559304805340395e-06,-9.443735446010947837e-06
2.598412698412698507e+00,2.542705843188874733e-06,-1.268206691768806206e-05
2.599206349206349298e+00,1.007553551477032925e-05,-1.457912056695757006e-05
2.600000000000000089e+00,1.691125707007747948e-05,-1.564081885238839131e-05
2.600793650793650880e+00,2.190263212249757976e-05,-1.693320284437597217e-05
2.601587301587301670e+00,2.426479718182965607e-05,-1.966967955262638706e-05
2.602380952380952461e+00,2.370677560804474896e-05,-2.466574905036313643e-05
2.603174603174603252e+00,2.045109564646440300e-05,-3.184389696156396941e-05
2.603968253968254043e+00,1.515117446231315803e-05,-3.996793264556628425e-05
2.604761904761904834e+00,8.737058630066404656e-06,-4.673405797465924970e-05
2.605555555555555625e+00,2.228738187458852225e-06,-4.925580324151605446e-05
2.606349206349206415e+00,-3.445833910959800225e-06,-4.486177690152080713e-05
2.607142857142857206e+00,-7.599518169393975340e-06,-3.200178187496914128e-05
2.607936507936507997e+00,-9.884031675851651355e-06,-1.097479567106405137e-05
2.608730158730158788e+00,-1.032960548209502814e-05,1.579496626218525646e-05
2.609523809523809579e+00,-9.325612066661601826e-06,4.408073306454013271e-05
2.610317460317460370e+00,-7.546078262774765552e-06,6.872248286317644199e-05
2.611111111111111160e+00,-5.827969824198766185e-06,8.480615268713142607e-05
2.611904761904761951e+00,-5.015407626137108171e-06,8.882331587631640921e-05
2.612698412698412742e+00,-5.790002640073109836e-06,7.950535626343207716e-05
2.613492063492063533e+00,-8.514420255886558526e-06,5.813504902659189357e-05
2.614285714285714324e+00,-1.311982373599657785e-05,2.828012913996693598e-05
2.615079365079365115e+00,-1.906526249094493588e-05,-4.972305923510014010e-06
2.615873015873015905e+00,-2.538728200279157405e-05,-3.609394581029461423e-05
2.616666666666666696e+00,-3.084179850421972768e-05,-6.025054154007535007e-05
2.617460317460317487e+00,-3.412025321238234833e-05,-7.422673312007169307e-05
2.618253968253968278e+00,-3.410248450233396383e-05,-7.693126151305792549e-05
2.619047619047619069e+00,-3.009501588532576525e-05,-6.939272687215007791e-05
2.619841269841269860e+00,-2.200132731195438360e-05,-5.429775602008269725e-05
2.620634920634920650e+00,-1.038335320864777190e-05,-3.523748764426971289e-05
2.621428571428571441e+00,3.602371142466589525e-06,-1.587910589192697636e-05
2.622222222222222232e+00,1.838320627066004757e-05,7.391876037537418805e-07
2.623015873015873023e+00,3.222921581030589077e-05,1.265855927594228095e-05
2.623809523809523814e+00,4.354076058184188551e-05,1.914922827951430587e-05
2.624603174603174605e+00,5.110567316915583426e-05,2.058973905048774484e-05
2.625396825396825395e+00,5.427321046120977323e-05,1.815742996140723623e-05
2.626190476190476186e+00,5.301322928763194006e-05,1.343300342048999425e-05
2.626984126984126977e+00,4.785883253268967348e-05,8.017580268685386136e-06
2.627777777777777768e+00,3.975909128796460413e-05,3.238815007915338247e-06
2.628571428571428559e+00,2.988648345092701823e-05,-9.139511688417558293e-09
2.629365079365079350e+00,1.944638202457380963e-05,-1.284545192814258040e-06
2.630158730158730140e+00,9.523946423220882410e-06,-5.067336762156741023e-07
2.630952380952380931e+00,9.836794463567539521e-07,2.186403329689937184e-06
2.631746031746031722e+00,-5.582191480454364680e-06,6.566895952977630499e-06
2.632539682539682513e+00,-9.871508185705894173e-06,1.238505511310640801e-05
2.633333333333333304e+00,-1.187182273680931275e-05,1.936526516872731985e-05
2.634126984126984095e+00,-1.184957284924666202e-05,2.714850747181171239e-05
2.634920634920634885e+00,-1.032526438240500862e-05,3.521952960228666316e-05
2.635714285714285676e+00,-8.023658904032239707e-06,4.286000064254058577e-05
2.636507936507936467e+00,-5.788885464438786321e-06,4.916020879075371934e-05
2.637301587301587258e+00,-4.463204926090204957e-06,5.310423984844074878e-05
2.638095238095238049e+00,-4.740544592010070108e-06,5.372143830198645059e-05
2.638888888888888840e+00,-7.017897191057147457e-06,5.027708608834832331e-05
2.639682539682539630e+00,-1.127740257060626089e-05,4.246364929127400889e-05
2.640476190476190421e+00,-1.703696198596346372e-05,3.055097597490616824e-05
2.641269841269841212e+00,-2.340134289738927682e-05,1.545483841050205678e-05
2.642063492063492003e+00,-2.922228149042565366e-05,-1.312938372379989595e-06
2.642857142857142794e+00,-3.333834845255096422e-05,-1.783401217919330486e-05
2.643650793650793585e+00,-3.483181104373554764e-05,-3.209787407937461586e-05
2.644444444444444375e+00,-3.323181580989949404e-05,-4.237826518255785819e-05
2.645238095238095166e+00,-2.861444573051703449e-05,-4.757434472798780948e-05
2.646031746031745957e+00,-2.158367210107886219e-05,-4.741789957442290405e-05
2.646825396825396748e+00,-1.314570865077869011e-05,-4.248132286248035099e-05
2.647619047619047539e+00,-4.509252340057852860e-06,-3.397935119316894132e-05
2.648412698412698330e+00,3.142298518682521246e-06,-2.342610162508867368e-05
2.649206349206349120e+00,8.856416549046606531e-06,-1.226581662434573990e-05
2.649999999999999911e+00,1.205450872534327932e-05,-1.611785604544174038e-06
2.650793650793650702e+00,1.259299715592983414e-05,7.816309406935806711e-06
2.651587301587301493e+00,1.074409639273235550e-05,1.555857966432806213e-05
2.652380952380952284e+00,7.111415828601413333e-06,2.118186410799840445e-05
2.653174603174603075e+00,2.502492448170710911e-06,2.409285225645060521e-05
2.653968253968253865e+00,-2.214264610344421249e-06,2.351983576455080375e-05
2.654761904761904656e+00,-6.238738207965780488e-06,1.870335104113783948e-05
2.655555555555555447e+00,-8.932914312868932866e-06,9.233545118431842131e-06
2.656349206349206238e+00,-9.874773610181906757e-06,-4.603148705610984336e-06
2.657142857142857029e+00,-8.881911736833363364e-06,-2.162050315953969811e-05
2.657936507936507819e+00,-6.016872413420352517e-06,-3.977832638615737000e-05
2.658730158730158610e+00,-1.578716955392859185e-06,-5.650182406503493287e-05
2.659523809523809401e+00,3.923803381777423680e-06,-6.921022612740378545e-05
2.660317460317460192e+00,9.826741134459538883e-06,-7.591437511191594025e-05
2.661111111111110983e+00,1.539933214663432649e-05,-7.569775451595645856e-05
2.661904761904761774e+00,1.996068979116764823e-05,-6.890872971197024963e-05
2.662698412698412564e+00,2.300212436867609138e-05,-5.698263261441112996e-05
2.663492063492063355e+00,2.427973002691509807e-05,-4.195748572198114152e-05
2.664285714285714146e+00,2.384463240500631301e-05,-2.587697686494131840e-05
2.665079365079364937e+00,2.199879459294647890e-05,-1.031602008446037469e-05
2.665873015873015728e+00,1.919244578381361580e-05,3.806919814502250316e-06
2.666666666666666519e+00,1.589979551488460589e-05,1.611306970659349391e-05
2.667460317460317309e+00,1.251333093483412066e-05,2.646982611187379726e-05
2.668253968253968100e+00,9.284758102551101953e-06,3.471769121001092647e-05
2.669047619047618891e+00,6.320752391714343007e-06,4.057606670753515860e-05
2.669841269841269682e+00,3.623169951493251682e-06,4.376566031839675483e-05
2.670634920634920473e+00,1.151803271599715458e-06,4.425158983189562641e-05
2.671428571428571264e+00,-1.115342464556844990e-06,4.243869767293494984e-05
2.672222222222222054e+00,-3.144690403369143903e-06,3.917937245652436135e-05
2.673015873015872845e+00,-4.842826509125780955e-06,3.556393251970624763e-05
2.673809523809523636e+00,-6.083197308009125535e-06,3.258375613005543529e-05
2.674603174603174427e+00,-6.751852289858621772e-06,3.081844150999286079e-05
2.675396825396825218e+00,-6.795772372622295154e-06,3.027737262453599547e-05
2.676190476190476009e+00,-6.257481163910109138e-06,3.044598581038593992e-05
2.676984126984126799e+00,-5.283123517637028011e-06,3.049238504280382602e-05
2.677777777777777590e+00,-4.098441015149064915e-06,2.952993295065477452e-05
2.678571428571428381e+00,-2.958207482330985048e-06,2.683788486815934034e-05
2.679365079365079172e+00,-2.085699373024056527e-06,2.200023168344527900e-05
2.680158730158729963e+00,-1.622828107572596333e-06,1.497623550975252845e-05
2.680952380952380754e+00,-1.605557181258774418e-06,6.122276738689864210e-06
2.681746031746031544e+00,-1.967604806164131990e-06,-3.840477399729716956e-06
2.682539682539682335e+00,-2.565917832808279245e-06,-1.392682867718590420e-05
2.683333333333333126e+00,-3.218014302042983047e-06,-2.304541083504661652e-05
2.684126984126983917e+00,-3.742606288350472066e-06,-3.017079584539316824e-05
2.684920634920634708e+00,-3.997327426583698028e-06,-3.448385632301317173e-05
2.685714285714285499e+00,-3.908278632218209149e-06,-3.546040788270486840e-05
2.686507936507936289e+00,-3.485275006510134990e-06,-3.291603563697055547e-05
2.687301587301587080e+00,-2.816783674134361595e-06,-2.702379124530031028e-05
2.688095238095238315e+00,-2.043215201979790708e-06,-1.831352852808690920e-05
2.688888888888889106e+00,-1.316274103980669310e-06,-7.650326507180585687e-06
2.689682539682539897e+00,-7.591009140704833004e-07,3.817113335788226031e-06
2.690476190476190688e+00,-4.404193150724325128e-07,1.474773863816490210e-05
2.691269841269841478e+00,-3.674513568516429971e-07,2.374423332040212400e-05
2.692063492063492269e+00,-4.947206072646565070e-07,2.953093278640951815e-05
2.692857142857143060e+00,-7.431864306500132358e-07,3.115928132308796447e-05
2.693650793650793851e+00,-1.024111924646605597e-06,2.821112296413588426e-05
2.694444444444444642e+00,-1.261735308284899420e-06,2.095250060372723231e-05
2.695238095238095433e+00,-1.408714515202606667e-06,1.038022383180067811e-05
2.696031746031746223e+00,-1.450262127699212414e-06,-1.886523317077759156e-06
2.696825396825397014e+00,-1.396651362124242442e-06,-1.388009870109008931e-05
2.697619047619047805e+00,-1.267165116355358911e-06,-2.367869588239442859e-05
2.698412698412698596e+00,-1.070123105750382243e-06,-2.982536634671126418e-05
2.699206349206349387e+00,-7.840326234437653248e-07,-3.165629309313408942e-05
2.700000000000000178e+00,-3.454863879139816655e-07,-2.944347741909778462e-05
2.700793650793650968e+00,3.498795944652323333e-07,-2.430883571501653932e-05
2.701587301587301759e+00,1.427887496648728643e-06,-1.793159731845847711e-05
2.702380952380952550e+00,2.996364719882500590e-06,-1.212883144698044123e-05
2.703174603174603341e+00,5.091462448352184042e-06,-8.420253632295759364e-06
2.703968253968254132e+00,7.622859647443205911e-06,-7.682362581758112299e-06
2.704761904761904923e+00,1.033490605286901289e-05,-9.961023029685063735e-06
2.705555555555555713e+00,1.279995349194995530e-05,-1.446734957422258163e-05
2.706349206349206504e+00,1.445649110715831091e-05,-1.974738173833001214e-05
2.707142857142857295e+00,1.469943042202881506e-05,-2.399320322821035507e-05
2.707936507936508086e+00,1.301939480724994728e-05,-2.544143451899489791e-05
2.708730158730158877e+00,9.167555209416324900e-06,-2.278051585580345253e-05
2.709523809523809668e+00,3.297145274578992616e-06,-1.547312425213631938e-05
2.710317460317460458e+00,-3.980174760127402596e-06,-3.909911705919635569e-06
2.711111111111111249e+00,-1.166769875148157415e-05,1.065213201241869741e-05
2.711904761904762040e+00,-1.858491113122280733e-05,2.635827413342493503e-05
2.712698412698412831e+00,-2.364259272914674147e-05,4.116218411340466727e-05
2.713492063492063622e+00,-2.610789214305153129e-05,5.325050926072660650e-05
2.714285714285714413e+00,-2.577888978326724111e-05,6.135419869994527349e-05
2.715079365079365203e+00,-2.301841365035203779e-05,6.485979984343091852e-05
2.715873015873015994e+00,-1.864079980350383947e-05,6.372552125415009022e-05
2.716666666666666785e+00,-1.368860034517195657e-05,5.829628249308513641e-05
2.717460317460317576e+00,-9.164956441282307809e-06,4.914297591629527710e-05
2.718253968253968367e+00,-5.793638844097507659e-06,3.700628222778713170e-05
2.719047619047619158e+00,-3.864892134681535090e-06,2.283955312951449411e-05
2.719841269841269948e+00,-3.199558727689588295e-06,7.872731774904530693e-06
2.720634920634920739e+00,-3.234470134213719106e-06,-6.404160626133914772e-06
2.721428571428571530e+00,-3.203949137831128831e-06,-1.840592759255745987e-05
2.722222222222222321e+00,-2.368948232273248527e-06,-2.675903362955387300e-05
2.723015873015873112e+00,-2.313541302665614968e-07,-3.066471481947783686e-05
2.723809523809523903e+00,3.326241040897810692e-06,-3.018909883675282673e-05
2.724603174603174693e+00,8.010400784765934500e-06,-2.636154769893676503e-05
2.725396825396825484e+00,1.319293622776396670e-05,-2.101503702060263218e-05
2.726190476190476275e+00,1.805745054682123262e-05,-1.637418620140915597e-05
2.726984126984127066e+00,2.176980490582674125e-05,-1.447213852310337442e-05
2.727777777777777857e+00,2.363577514269708585e-05,-1.654411466843785418e-05
2.728571428571428648e+00,2.322645582605074060e-05,-2.258271739453412627e-05
2.729365079365079438e+00,2.046305584914402529e-05,-3.122479019900459616e-05
2.730158730158730229e+00,1.565213793007822580e-05,-4.005968034296285155e-05
2.730952380952381020e+00,9.456578950433762497e-06,-4.631428890677792684e-05
2.731746031746031811e+00,2.790481650897491058e-06,-4.772052361123582849e-05
2.732539682539682602e+00,-3.353036885935152951e-06,-4.326972637934575988e-05
2.733333333333333393e+00,-8.101373918684766522e-06,-3.356898822240565489e-05
2.734126984126984183e+00,-1.087113744671133200e-05,-2.065394872303631609e-05
2.734920634920634974e+00,-1.146007696891576381e-05,-7.326698509733862648e-06
2.735714285714285765e+00,-1.005112118275941180e-05,3.729253875186457038e-06
2.736507936507936556e+00,-7.146509166217272950e-06,1.073977317971565758e-05
2.737301587301587347e+00,-3.455994986142951898e-06,1.328654157967069840e-05
2.738095238095238138e+00,2.430787270661025750e-07,1.230409596521042770e-05
2.738888888888888928e+00,3.254655698625999660e-06,9.674089201806635775e-06
2.739682539682539719e+00,5.092830124700911482e-06,7.575354609992030077e-06
2.740476190476190510e+00,5.559443863697963680e-06,7.802217566671100821e-06
2.741269841269841301e+00,4.753158492077927311e-06,1.125414160476719427e-05
2.742063492063492092e+00,3.014904318230017221e-06,1.773121467910909122e-05
2.742857142857142883e+00,8.315287079215342100e-07,2.606355383837908986e-05
2.743650793650793673e+00,-1.275033547810906256e-06,3.449806251342338006e-05
2.744444444444444464e+00,-2.849591289278194689e-06,4.120124387070238728e-05
2.745238095238095255e+00,-3.580894704905073070e-06,4.472552501209000518e-05
2.746031746031746046e+00,-3.345981350367598034e-06,4.431864072180424438e-05
2.746825396825396837e+00,-2.218862634913830207e-06,4.001509423394271348e-05
2.747619047619047628e+00,-4.448861086697748642e-07,3.252051462859020396e-05
2.748412698412698418e+00,1.613952309770289044e-06,2.296346690174183794e-05
2.749206349206349209e+00,3.553426456744701605e-06,1.262065186589343375e-05
2.750000000000000000e+00,5.007936373335699129e-06,2.707220858879026818e-06
2.750793650793650791e+00,5.721579439816870152e-06,-5.726041535211749240e-06
2.751587301587301582e+00,5.593709858450294878e-06,-1.180533406045401534e-05
2.752380952380952372e+00,4.689317076576155880e-06,-1.481292128749374050e-05
2.753174603174603163e+00,3.214711333714365813e-06,-1.419767268813313543e-05
2.753968253968253954e+00,1.468183799567965209e-06,-9.660102896362995521e-06
2.754761904761904745e+00,-2.207339331884428790e-07,-1.313515991719062245e-06
2.755555555555555536e+00,-1.551168492197865753e-06,1.012378376125597190e-05
2.756349206349206327e+00,-2.301745402820529787e-06,2.318786321463193922e-05
2.757142857142857117e+00,-2.367942730269354800e-06,3.567635151119696255e-05
2.757936507936507908e+00,-1.783193890861768142e-06,4.487496462981269775e-05
2.758730158730158699e+00,-7.203809759195193128e-07,4.801053945400655335e-05
2.759523809523809490e+00,5.306259673042376272e-07,4.285554353753211687e-05
2.760317460317460281e+00,1.612604019075313612e-06,2.834236720353621806e-05
2.761111111111111072e+00,2.176298645762472253e-06,5.018372577911072914e-06
2.761904761904761862e+00,1.971384028372772386e-06,-2.480799345277371449e-05
2.762698412698412653e+00,9.317911940535907666e-07,-5.731655806682676383e-05
2.763492063492063444e+00,-7.751398196129466273e-07,-8.780944548870001911e-05
2.764285714285714235e+00,-2.765067876390702359e-06,-1.116070401898303901e-04
2.765079365079365026e+00,-4.529836558666058506e-06,-1.249903491823198666e-04
2.765873015873015817e+00,-5.587551237399242749e-06,-1.259430312588678596e-04
2.766666666666666607e+00,-5.641318159610416840e-06,-1.145033685082928347e-04
2.767460317460317398e+00,-4.689197492279763696e-06,-9.266269462409189002e-05
2.768253968253968189e+00,-3.042709077855921182e-06,-6.388172239159895297e-05
2.769047619047618980e+00,-1.242509671046271502e-06,-3.238108733163302813e-05
2.769841269841269771e+00,1.046037660915643010e-07,-2.378322272747026375e-06
2.770634920634920562e+00,5.147453692388757416e-07,2.258904265340647214e-05
2.771428571428571352e+00,-2.225344956019884547e-07,4.016134938990519515e-05
2.772222222222222143e+00,-1.985517088884985561e-06,4.942263013913111673e-05
2.773015873015872934e+00,-4.371923371666153073e-06,5.091516855394557736e-05
2.773809523809523725e+00,-6.833787022323600726e-06,4.641889743019506634e-05
2.774603174603174516e+00,-8.836048841018518058e-06,3.854473491904499498e-05
2.775396825396825307e+00,-9.979396882603762574e-06,3.021129633858002017e-05
2.776190476190476097e+00,-1.005691056452749739e-05,2.408092843516376454e-05
2.776984126984126888e+00,-9.049246247859999594e-06,2.203287638446100899e-05
2.777777777777777679e+00,-7.084377093888286955e-06,2.475619966939446726e-05
2.778571428571428470e+00,-4.390606948028208049e-06,3.154981036357563289e-05
2.779365079365079261e+00,-1.261274716784169416e-06,4.040696493061121561e-05
2.780158730158730052e+00,1.965892765408180103e-06,4.841869780159931586e-05
2.780952380952380842e+00,4.924964011347918215e-06,5.245156192445494115e-05
2.781746031746031633e+00,7.248669809427828519e-06,4.996131117846114360e-05
2.782539682539682424e+00,8.615518570622555827e-06,3.973327158046325100e-05
2.783333333333333215e+00,8.813087036764982070e-06,2.232777188425904300e-05
2.784126984126984006e+00,7.798963848764744900e-06,7.471949677063051738e-08
2.784920634920634797e+00,5.734637946497321331e-06,-2.340528479669222464e-05
2.785714285714285587e+00,2.974467506857507077e-06,-4.402175733339216968e-05
2.786507936507936378e+00,7.736422555811303249e-09,-5.813599095306461938e-05
2.787301587301587169e+00,-2.632718560435396319e-06,-6.332520412884538581e-05
2.788095238095237960e+00,-4.473371327310753608e-06,-5.880672965335571282e-05
2.788888888888888751e+00,-5.191265136992770380e-06,-4.546509784326478693e-05
2.789682539682539542e+00,-4.674280407473710850e-06,-2.554214008901883277e-05
2.790476190476190332e+00,-3.038175903782048499e-06,-2.121117560724266606e-06
2.791269841269841123e+00,-5.975549328992686198e-07,2.144794092738090140e-05
2.792063492063491914e+00,2.202678559735707766e-06,4.206029532957915855e-05
2.792857142857142705e+00,4.880874116662150912e-06,5.723327925712832565e-05
2.793650793650793496e+00,7.016418549281228189e-06,6.532923531882620354e-05
2.794444444444444287e+00,8.328090948429004957e-06,6.564703343321359860e-05
2.795238095238095077e+00,8.713716178112879980e-06,5.841588569539599417e-05
2.796031746031745868e+00,8.244293017173238110e-06,4.470889822035324548e-05
2.796825396825396659e+00,7.120642659799958997e-06,2.627719963704491817e-05
2.797619047619047450e+00,5.610345879705164644e-06,5.313279482191793163e-06
2.798412698412698241e+00,3.984215874722061382e-06,-1.582321912246496188e-05
2.799206349206349032e+00,2.466771875265822210e-06,-3.487028159775825770e-05
2.799999999999999822e+00,1.207785532523660897e-06,-4.988086497195722230e-05
2.800793650793650613e+00,2.749635773662967780e-07,-5.937425958451203223e-05
2.801587301587301404e+00,-3.369848239709055496e-07,-6.241964463060319655e-05
2.802380952380952195e+00,-6.876375003003439789e-07,-5.866329457279506132e-05
2.803174603174602986e+00,-8.686605346438950995e-07,-4.832248748557647840e-05
2.803968253968253777e+00,-9.820790979481544637e-07,-3.217243865170888546e-05
2.804761904761904567e+00,-1.120792610335800929e-06,-1.153887801644772854e-05
2.805555555555555358e+00,-1.352324304619186614e-06,1.171893024792477265e-05
2.806349206349206149e+00,-1.707351298268645283e-06,3.527582015195760909e-05
2.807142857142856940e+00,-2.175141963848470370e-06,5.650633084728286275e-05
2.807936507936507731e+00,-2.707366903665785279e-06,7.277335364657234269e-05
2.808730158730158522e+00,-3.229580369376452153e-06,8.181908575780211538e-05
2.809523809523809312e+00,-3.656984164071624720e-06,8.218796717527570401e-05
2.810317460317460103e+00,-3.909727282329820751e-06,7.358228301689529393e-05
2.811111111111110894e+00,-3.924214598315916464e-06,5.705369652128970491e-05
2.811904761904761685e+00,-3.659870634569183574e-06,3.496209658432472079e-05
2.812698412698412920e+00,-3.103066987648863430e-06,1.067667698912537872e-05
2.813492063492063711e+00,-2.269784593616052752e-06,-1.195382308335118303e-05
2.814285714285714501e+00,-1.206828286472240711e-06,-2.928223738308354917e-05
2.815079365079365292e+00,9.788857099401635693e-09,-3.857450108058590565e-05
2.815873015873016083e+00,1.280215070449469849e-06,-3.861169556315555514e-05
2.816666666666666874e+00,2.489488977220320663e-06,-3.005232180312759178e-05
2.817460317460317665e+00,3.518429775019514122e-06,-1.546078097589607909e-05
2.818253968253968456e+00,4.255638750036251026e-06,1.037859845603928957e-06
2.819047619047619246e+00,4.609990655284763579e-06,1.445549298876565966e-05
2.819841269841270037e+00,4.522830539162389826e-06,1.990690090817790175e-05
2.820634920634920828e+00,3.978266245572992317e-06,1.369646761296094183e-05
2.821428571428571619e+00,3.009286478792053314e-06,-5.680056052248958521e-06
2.822222222222222410e+00,1.697742317446350095e-06,-3.685984403473956833e-05
2.823015873015873201e+00,1.674853872364262663e-07,-7.549146414522138850e-05
2.823809523809523991e+00,-1.428590028150767211e-06,-1.148092164247652125e-04
2.824603174603174782e+00,-2.926065285777555485e-06,-1.468780951017307156e-04
2.825396825396825573e+00,-4.169538362788986295e-06,-1.642740596469217669e-04
2.826190476190476364e+00,-5.034374692462079893e-06,-1.617947778348245887e-04
2.826984126984127155e+00,-5.446334530478960240e-06,-1.377496920076319955e-04
2.827777777777777946e+00,-5.393962636710904516e-06,-9.447934654241966655e-05
2.828571428571428736e+00,-4.928971133341992038e-06,-3.795951087591970696e-05
2.829365079365079527e+00,-4.153345793665693460e-06,2.341441981075566381e-05
2.830158730158730318e+00,-3.196887790353434038e-06,8.055465607792168742e-05
2.830952380952381109e+00,-2.192475623305395565e-06,1.254789291917619658e-04
2.831746031746031900e+00,-1.256567929232800428e-06,1.527343979325029399e-04
2.832539682539682691e+00,-4.793272266564481921e-07,1.601453819668384405e-04
2.833333333333333481e+00,7.634989617652773973e-08,1.488140599408209583e-04
2.834126984126984272e+00,3.723632807367172494e-07,1.225111929197903111e-04
2.834920634920635063e+00,3.963738193786732042e-07,8.669797594703061510e-05
2.835714285714285854e+00,1.690397048014783989e-07,4.742504183080281302e-05
2.836507936507936645e+00,-2.469744563979685950e-07,1.031349135552526514e-05
2.837301587301587436e+00,-7.451920759428529414e-07,-2.022879083718407962e-05
2.838095238095238226e+00,-1.187201258609249994e-06,-4.146280871123939738e-05
2.838888888888889017e+00,-1.427544104514382986e-06,-5.242646317822946322e-05
2.839682539682539808e+00,-1.344751857838810144e-06,-5.374689535568344433e-05
2.840476190476190599e+00,-8.697060631095907996e-07,-4.725555200486834291e-05
2.841269841269841390e+00,-4.297480959670191993e-09,-3.551272601681287975e-05
2.842063492063492181e+00,1.173510912709274954e-06,-2.132692220097805619e-05
2.842857142857142971e+00,2.519594663821255404e-06,-7.324563181614456641e-06
2.843650793650793762e+00,3.848027301274723361e-06,4.394979937294376793e-06
2.844444444444444553e+00,4.966650494835172381e-06,1.249225855736219990e-05
2.845238095238095344e+00,5.716653731066285220e-06,1.648659904911925725e-05
2.846031746031746135e+00,6.005709478492432578e-06,1.671028155944121569e-05
2.846825396825396925e+00,5.824702140529149991e-06,1.412831486570701155e-05
2.847619047619047716e+00,5.243558467199826376e-06,1.006109545348492174e-05
2.848412698412698507e+00,4.389627989468778596e-06,5.871363990004925757e-06
2.849206349206349298e+00,3.417684891742013404e-06,2.686345836310304856e-06
2.850000000000000089e+00,2.481132693652776275e-06,1.213289038617680709e-06
2.850793650793650880e+00,1.710692323114084946e-06,1.675212479063397580e-06
2.851587301587301670e+00,1.202464934501948323e-06,3.856758326944324729e-06
2.852380952380952461e+00,1.012981570104857742e-06,7.223170251244720012e-06
2.853174603174603252e+00,1.155282053589607765e-06,1.106757160915519037e-05
2.853968253968254043e+00,1.589384539033959572e-06,1.464903905937316393e-05
2.854761904761904834e+00,2.205384823581576413e-06,1.729484183611635408e-05
2.855555555555555625e+00,2.807096030922942751e-06,1.845081846886948619e-05
2.856349206349206415e+00,3.112900070866566292e-06,1.768260277523979790e-05
2.857142857142857206e+00,2.791609218258653227e-06,1.466011002385673664e-05
2.857936507936507997e+00,1.542037899692074369e-06,9.179707417330990488e-06
2.858730158730158788e+00,-7.920548330001921281e-07,1.265307761325745231e-06
2.859523809523809579e+00,-4.100727938094791343e-06,-8.665143058608657940e-06
2.860317460317460370e+00,-7.928746561312088252e-06,-1.964899943265547633e-05
2.861111111111111160e+00,-1.149558989888328520e-05,-3.015932730132118140e-05
2.861904761904761951e+00,-1.385375316780175424e-05,-3.830133144967826883e-05
2.862698412698412742e+00,-1.416985617933914778e-05,-4.222319288790321937e-05
2.863492063492063533e+00,-1.203868224406496912e-05,-4.063802106538178573e-05
2.864285714285714324e+00,-7.694714983140644768e-06,-3.328459463339833598e-05
2.865079365079365115e+00,-2.012420172639734662e-06,-2.115084676309009838e-05
2.865873015873015905e+00,3.721320306295658145e-06,-6.352976114477379676e-06
2.866666666666666696e+00,8.176926359779840384e-06,8.319311139184047530e-06
2.867460317460317487e+00,1.035332983699432336e-05,2.006382727740166369e-05
2.868253968253968278e+00,9.824002922896916089e-06,2.673711523184974268e-05
2.869047619047619069e+00,6.796876494637125219e-06,2.734113585587260402e-05
2.869841269841269860e+00,2.004619195361695037e-06,2.219436809561512681e-05
2.870634920634920650e+00,-3.509100240881185335e-06,1.275775230076950766e-05
2.871428571428571441e+00,-8.635204166693210073e-06,1.191934202909566587e-06
2.872222222222222232e+00,-1.242314885804499492e-05,-1.020286595671774007e-05
2.873015873015873023e+00,-1.424814976246952550e-05,-1.949489000480123140e-05
2.873809523809523814e+00,-1.389774740255035769e-05,-2.544849798953270894e-05
2.874603174603174605e+00,-1.156715909819866527e-05,-2.762151521315454091e-05
2.875396825396825395e+00,-7.773568106003370050e-06,-2.626251936208878711e-05
2.876190476190476186e+00,-3.218979984264755643e-06,-2.208922708132700688e-05
2.876984126984126977e+00,1.361041828799369428e-06,-1.603805989916286425e-05
2.877777777777777768e+00,5.330385218908311743e-06,-9.051030430330501975e-06
2.878571428571428559e+00,8.245840261710408371e-06,-1.930754383344885576e-06
2.879365079365079350e+00,9.901270325723183390e-06,4.733931002701567871e-06
2.880158730158730140e+00,1.032287104041992068e-05,1.058417761438608834e-05
2.880952380952380931e+00,9.724262567332749759e-06,1.546658604902938778e-05
2.881746031746031722e+00,8.436529730039205437e-06,1.938648175218092337e-05
2.882539682539682513e+00,6.831603533262613201e-06,2.245768387019116716e-05
2.883333333333333304e+00,5.256041646557383078e-06,2.486324434046949399e-05
2.884126984126984095e+00,3.985869254093610577e-06,2.682714565621870031e-05
2.884920634920634885e+00,3.203904823271133726e-06,2.857538544670570123e-05
2.885714285714285676e+00,2.993438511732482800e-06,3.025596613987513472e-05
2.886507936507936467e+00,3.340185222378371927e-06,3.181084507846953222e-05
2.887301587301587258e+00,4.138138492966573547e-06,3.284174301710974565e-05
2.888095238095238049e+00,5.200244372627967583e-06,3.255034652541494871e-05
2.888888888888888840e+00,6.277266620309723164e-06,2.982734363978043697e-05
2.889682539682539630e+00,7.086766947378799188e-06,2.351010766642607459e-05
2.890476190476190421e+00,7.350870782777353790e-06,1.275522058631232752e-05
2.891269841269841212e+00,6.838770192620393970e-06,-2.582801257944312855e-06
2.892063492063492003e+00,5.408602003964155519e-06,-2.168964323464557607e-05
2.892857142857142794e+00,3.043163926064311130e-06,-4.274093876517475485e-05
2.893650793650793585e+00,-1.259580029787760341e-07,-6.309976930781398589e-05
2.894444444444444375e+00,-3.811832392096013569e-06,-7.973317549211502504e-05
2.895238095238095166e+00,-7.590114276649539680e-06,-8.976905365233935356e-05
2.896031746031745957e+00,-1.094747759408699160e-05,-9.108363533034594508e-05
2.896825396825396748e+00,-1.336134377344683587e-05,-8.279233293062098181e-05
2.897619047619047539e+00,-1.440180000760667934e-05,-6.551936582638544085e-05
2.898412698412698330e+00,-1.383475741392694508e-05,-4.135944791481141681e-05
2.899206349206349120e+00,-1.169722072610239740e-05,-1.351971993672793823e-05
2.899999999999999911e+00,-8.316797336422411318e-06,1.427987904520187714e-05
2.900793650793650702e+00,-4.259942638069534154e-06,3.849821457214847053e-05
2.901587301587301493e+00,-2.138064086093845660e-07,5.638263758016493670e-05
2.902380952380952284e+00,3.170588346151411851e-06,6.635639991170466266e-05
2.903174603174603075e+00,5.428852748332972814e-06,6.812124442098622490e-05
2.903968253968253865e+00,6.380927362165157147e-06,6.250246569746119036e-05
2.904761904761904656e+00,6.147755887353667169e-06,5.113219141571088224e-05
2.905555555555555447e+00,5.088052001094941689e-06,3.609247091460470082e-05
2.906349206349206238e+00,3.681324553633309843e-06,1.961786106645999802e-05
2.907142857142857029e+00,2.394686470604842052e-06,3.899486988103816083e-06
2.907936507936507819e+00,1.569080071907854742e-06,-9.033678088656046218e-06
2.908730158730158610e+00,1.350477541972097131e-06,-1.742363952399826458e-05
2.909523809523809401e+00,1.677839131350392773e-06,-1.994951339886099614e-05
2.910317460317460192e+00,2.325109888622684688e-06,-1.597437764647189425e-05
2.911111111111110983e+00,2.981828261131392073e-06,-5.825943839442013858e-06
2.911904761904761774e+00,3.348425424013599006e-06,9.001986898251199552e-06
2.912698412698412564e+00,3.219884736676865701e-06,2.586584382006203574e-05
2.913492063492063355e+00,2.535952872477747000e-06,4.130552674448534898e-05
2.914285714285714146e+00,1.386846377962623716e-06,5.169508732245364237e-05
2.915079365079364937e+00,-2.253981352679797553e-08,5.408867573018816841e-05
2.915873015873015728e+00,-1.434506511936255793e-06,4.703948605281387733e-05
2.916666666666666519e+00,-2.605228651281270756e-06,3.113429195745920933e-05
2.917460317460317309e+00,-3.357362513990900751e-06,9.041827619793666384e-06
2.918253968253968100e+00,-3.607774326576164769e-06,-1.498969047373472346e-05
2.919047619047618891e+00,-3.368676634628039122e-06,-3.608334855559711146e-05
2.919841269841269682e+00,-2.727286969581406143e-06,-4.989584988768593944e-05
2.920634920634920473e+00,-1.813024169844968675e-06,-5.369064248036985914e-05
2.921428571428571264e+00,-7.630268013524028299e-07,-4.703501472914241825e-05
2.922222222222222054e+00,3.032946672700256334e-07,-3.192254122780971805e-05
2.923015873015872845e+00,1.292963107682955095e-06,-1.227208947274499229e-05
2.923809523809523636e+00,2.130592371348129212e-06,7.070258255724158714e-06
2.924603174603174427e+00,2.740324510415434950e-06,2.155662701203751397e-05
2.925396825396825218e+00,3.033622837732456280e-06,2.805869297618921308e-05
2.926190476190476009e+00,2.917491816820114641e-06,2.558992199916932894e-05
2.926984126984126799e+00,2.328120416231390494e-06,1.545052977979671861e-05
2.927777777777777590e+00,1.279418899241571713e-06,7.797235115338061728e-07
2.928571428571428381e+00,-9.813476997791839147e-08,-1.433518003733190297e-05
2.929365079365079172e+00,-1.557038468054559589e-06,-2.592698421661400956e-05
2.930158730158729963e+00,-2.788161250541035606e-06,-3.110054526864546547e-05
2.930952380952380754e+00,-3.523805638688737265e-06,-2.863747323231701492e-05
2.931746031746031544e+00,-3.650264911888454444e-06,-1.914360004632335518e-05
2.932539682539682335e+00,-3.275341538145391849e-06,-4.764202780755214130e-06
2.933333333333333126e+00,-2.708548028342822752e-06,1.140196347387738067e-05
2.934126984126983917e+00,-2.350513640994582399e-06,2.601400474034097494e-05
2.934920634920634708e+00,-2.532982231000646452e-06,3.616890008512542741e-05
2.935714285714285499e+00,-3.376825463415241117e-06,3.994444524098729032e-05
2.936507936507936289e+00,-4.728983124657330748e-06,3.674285015895457565e-05
2.937301587301587080e+00,-6.204035454340471973e-06,2.739307302600248829e-05
2.938095238095238315e+00,-7.310777553417365055e-06,1.398064944837521891e-05
2.938888888888889106e+00,-7.611706761439105023e-06,-5.985840005212079152e-07
2.939682539682539897e+00,-6.857415736758992443e-06,-1.330326848273963254e-05
2.940476190476190688e+00,-5.055674016999127364e-06,-2.169037190820029878e-05
2.941269841269841478e+00,-2.462843873066799735e-06,-2.453774328790350859e-05
2.942063492063492269e+00,4.899210472206320403e-07,-2.214936068099521008e-05
2.942857142857143060e+00,3.307980064088318034e-06,-1.623248693502708955e-05
2.943650793650793851e+00,5.549351814691906149e-06,-9.373573444038054800e-06
2.944444444444444642e+00,6.916775575056895643e-06,-4.270927591089466881e-06
2.945238095238095433e+00,7.306793879534940693e-06,-2.954221196637797430e-06
2.946031746031746223e+00,6.810151828962981374e-06,-6.215444658341714086e-06
2.946825396825397014e+00,5.670325171833121793e-06,-1.340506987988264506e-05
2.947619047619047805e+00,4.215524972445920576e-06,-2.263669371988754592e-05
2.948412698412698596e+00,2.782756067682079467e-06,-3.132628452198793126e-05
2.949206349206349387e+00,1.651115429415103444e-06,-3.690428276045222344e-05
2.950000000000000178e+00,9.968350241998486623e-07,-3.750456047449960757e-05
2.950793650793650968e+00,8.757718021088152904e-07,-3.245517487842954763e-05
2.951587301587301759e+00,1.231662534917772096e-06,-2.245641667469381228e-05
2.952380952380952550e+00,1.922715273854682137e-06,-9.412473438327161057e-06
2.953174603174603341e+00,2.756861335875720527e-06,4.033046823072772295e-06
2.953968253968254132e+00,3.527365362368763229e-06,1.513674752766385910e-05
2.954761904761904923e+00,4.043787970046822627e-06,2.170746832535072615e-05
2.955555555555555713e+00,4.156263998181563603e-06,2.260675924311004290e-05
2.956349206349206504e+00,3.772380332495283347e-06,1.797637314949255587e-05
2.957142857142857295e+00,2.866046828884935765e-06,9.148063559373912715e-06
2.957936507936508086e+00,1.478326102939583286e-06,-1.721772820701172448e-06
2.958730158730158877e+00,-2.880027234682322057e-07,-1.218170533592023709e-05
2.959523809523809668e+00,-2.277088051721875082e-06,-2.003771190269211888e-05
2.960317460317460458e+00,-4.290307481152122626e-06,-2.379611127340151779e-05
2.961111111111111249e+00,-6.099989905669543284e-06,-2.290533537975327107e-05
2.961904761904762040e+00,-7.469911973777275087e-06,-1.776523298979359607e-05
2.962698412698412831e+00,-8.184375165582226261e-06,-9.534650087046135609e-06
2.963492063492063622e+00,-8.084557096143671896e-06,1.885590407524897774e-07
2.964285714285714413e+00,-7.107121327381777303e-06,9.726774481699927737e-06
2.965079365079365203e+00,-5.315565883885973162e-06,1.764302322018461195e-05
2.965873015873015994e+00,-2.911382449709863960e-06,2.296718760026966142e-05
2.966666666666666785e+00,-2.138056415495020865e-07,2.529953934831740081e-05
2.967460317460317576e+00,2.394366209889099599e-06,2.479057401488182508e-05
2.968253968253968367e+00,4.544546478927639675e-06,2.202045452587155330e-05
2.969047619047619158e+00,5.962359588116139463e-06,1.781819214342172575e-05
2.969841269841269948e+00,6.525084370090393931e-06,1.306743887702825270e-05
2.970634920634920739e+00,6.278646089616565570e-06,8.542167894465756242e-06
2.971428571428571530e+00,5.410851681723210811e-06,4.802509115049312883e-06
2.972222222222222321e+00,4.192759748592973889e-06,2.161245376965103426e-06
2.973015873015873112e+00,2.908697981598286874e-06,7.104606810827165847e-07
2.973809523809523903e+00,1.794951694704402412e-06,3.827290202840872060e-07
2.974603174603174693e+00,1.000243977834575146e-06,1.017209400863133543e-06
2.975396825396825484e+00,5.724763167673255375e-07,2.408193897842750635e-06
2.976190476190476275e+00,4.692074255291138283e-07,4.327532004799134203e-06
2.976984126984127066e+00,5.851548295194554117e-07,6.526686276658350744e-06
2.977777777777777857e+00,7.882198500126297229e-07,8.733709388297457307e-06
2.978571428571428648e+00,9.554428494899811334e-07,1.066244293963766989e-05
2.979365079365079438e+00,1.001458459452191971e-06,1.204540417522438190e-05
2.980158730158730229e+00,8.942802174502770811e-07,1.268918167443990127e-05
2.980952380952381020e+00,6.564204860520875106e-07,1.253504343728522666e-05
2.981746031746031811e+00,3.528317222402455065e-07,1.169553617318672324e-05
2.982539682539682602e+00,6.990917753048031139e-08,1.043929140222189138e-05
2.983333333333333393e+00,-1.089062062852734724e-07,9.113987434940919193e-06
2.984126984126984183e+00,-1.255033371448043459e-07,8.023868141622436976e-06
2.984920634920634974e+00,3.686179512749901264e-08,7.299903309556473772e-06
2.985714285714285765e+00,3.465312237988000949e-07,6.807518448699160101e-06
2.986507936507936556e+00,7.263668979693012322e-07,6.127541261048586502e-06
2.987301587301587347e+00,1.066230127872370638e-06,4.625766872757531989e-06
2.988095238095238138e+00,1.243675056633834955e-06,1.601852854289318017e-06
2.988888888888888928e+00,1.150652174375091595e-06,-3.514418105561827744e-06
2.989682539682539719e+00,7.227358895175063613e-07,-1.096501291153293109e-05
2.990476190476190510e+00,-3.449906534530664692e-08,-2.050911172366858527e-05
2.991269841269841301e+00,-1.029131194747812667e-06,-3.134759883992831175e-05
2.992063492063492092e+00,-2.084115875555325146e-06,-4.215126758048460837e-05
2.992857142857142883e+00,-2.961401345998122704e-06,-5.120892219327743185e-05
2.993650793650793673e+00,-3.409231381127589972e-06,-5.669585618720549610e-05
2.994444444444444464e+00,-3.226092115943843096e-06,-5.703012419942263885e-05
2.995238095238095255e+00,-2.328172379701514245e-06,-5.124151636141216465e-05
2.996031746031746046e+00,-8.029240981383568318e-07,-3.925276032750519612e-05
2.996825396825396837e+00,1.069555473682946829e-06,-2.198592203478130652e-05
2.997619047619047628e+00,2.842382666796011602e-06,-1.255671555971126817e-06
2.998412698412698418e+00,3.981679443287125112e-06,2.052753453429352200e-05
2.999206349206349209e+00,3.992690681479590355e-06,4.077014123476736845e-05
3.000000000000000000e+00,2.566026570160208348e-06,5.712455195174972420e-05
3.000793650793650791e+00,-2.992041173204871293e-07,6.784261353252719700e-05
3.001587301587301582e+00,-4.244282461327285880e-06,7.199605595008463270e-05
3.002380952380952372e+00,-8.605447884700037441e-06,6.955031974603854842e-05
3.003174603174603163e+00,-1.257054648271876931e-05,6.131107055413464730e-05
3.003968253968253954e+00,-1.538951796205969500e-05,4.877097470968790331e-05
3.004761904761904745e+00,-1.656436732101182935e-05,3.387400295054631625e-05
3.005555555555555536e+00,-1.595442808901081049e-05,1.871128263682624677e-05
3.006349206349206327e+00,-1.377170016305160512e-05,5.183777612434313524e-06
3.007142857142857117e+00,-1.048353664651122656e-05,-5.301902476357014319e-06
3.007936507936507908e+00,-6.666133461123326883e-06,-1.202936405448558262e-05
3.008730158730158699e+00,-2.858204456650072881e-06,-1.501326373004647187e-05
3.009523809523809490e+00,5.454568915784773531e-07,-1.488903024184233106e-05
3.010317460317460281e+00,3.339915519065801817e-06,-1.269811679881431098e-05
3.011111111111111072e+00,5.496287951429711060e-06,-9.632347851173162463e-06
3.011904761904761862e+00,7.105586432575040619e-06,-6.795032845189562357e-06
3.012698412698412653e+00,8.305417184364484844e-06,-5.018756123663709918e-06
3.013492063492063444e+00,9.213742164262383316e-06,-4.758566707264082102e-06
3.014285714285714235e+00,9.886931550018528464e-06,-6.061320086686766806e-06
3.015079365079365026e+00,1.030954882935571670e-05,-8.601632108212406164e-06
3.015873015873015817e+00,1.041322139132977521e-05,-1.177217477762645541e-05
3.016666666666666607e+00,1.011402507497347651e-05,-1.481738434026987671e-05
3.017460317460317398e+00,9.354386509626479800e-06,-1.699955475820620789e-05
3.018253968253968189e+00,8.137160141258245876e-06,-1.777814615934176544e-05
3.019047619047618980e+00,6.544415801949042404e-06,-1.696547821338624626e-05
3.019841269841269771e+00,4.738695348048271251e-06,-1.480581936396781965e-05
3.020634920634920562e+00,2.947913316198328314e-06,-1.192985320269354484e-05
3.021428571428571352e+00,1.436148108703509274e-06,-9.174522819435153729e-06
3.022222222222222143e+00,4.625054026047075946e-07,-7.318114304940246889e-06
3.023015873015872934e+00,2.312429784287534941e-07,-6.828559499749856965e-06
3.023809523809523725e+00,8.398023875105108526e-07,-7.725227468143934897e-06
3.024603174603174516e+00,2.236248189087938615e-06,-9.604464669040654789e-06
3.025396825396825307e+00,4.200808308235834027e-06,-1.180527227335357524e-05
3.026190476190476097e+00,6.364541119559907820e-06,-1.363517421659826612e-05
3.026984126984126888e+00,8.269899077078498087e-06,-1.456366003258534875e-05
3.027777777777777679e+00,9.464238669934279391e-06,-1.432192340246589948e-05
3.028571428571428470e+00,9.603177158555875704e-06,-1.290269361201921267e-05
3.029365079365079261e+00,8.533335057308479772e-06,-1.050124692276398231e-05
3.030158730158730052e+00,6.327819189949128207e-06,-7.451063861496953166e-06
3.030952380952380842e+00,3.261350171143968498e-06,-4.182940551208567927e-06
3.031746031746031633e+00,-2.688977791376114302e-07,-1.200834135161272166e-06
3.032539682539682424e+00,-3.849775955730329692e-06,9.493375333714517411e-07
3.033333333333333215e+00,-7.144534161091287803e-06,1.734838971182173826e-06
3.034126984126984006e+00,-9.935157061784148546e-06,7.176598131505768803e-07
3.034920634920634797e+00,-1.210789379029607896e-05,-2.343635087421700230e-06
3.035714285714285587e+00,-1.360909582361032414e-05,-7.384279872831037164e-06
3.036507936507936378e+00,-1.441019303163948312e-05,-1.394150107342557077e-05
3.037301587301587169e+00,-1.450288475415412702e-05,-2.112057389818831812e-05
3.038095238095237960e+00,-1.391666973933835463e-05,-2.765675478853095662e-05
3.038888888888888751e+00,-1.273485108081388371e-05,-3.208266470086938759e-05
3.039682539682539542e+00,-1.109106819696776800e-05,-3.296830187969757025e-05
3.040476190476190332e+00,-9.146250425875979503e-06,-2.917150362765526454e-05
3.041269841269841123e+00,-7.059292983328319254e-06,-2.004108549200803470e-05
3.042063492063491914e+00,-4.965374591316070109e-06,-5.551177452168478503e-06
3.042857142857142705e+00,-2.967334316005944393e-06,1.361325705211357295e-05
3.043650793650793496e+00,-1.136935978316423064e-06,3.598950771386434232e-05
3.044444444444444287e+00,4.801026065970037448e-07,5.929813891427094228e-05
3.045238095238095077e+00,1.859300970031089978e-06,8.050822842371723332e-05
3.046031746031745868e+00,2.993367600642653001e-06,9.611916317002322096e-05
3.046825396825396659e+00,3.887640329643964340e-06,1.027234720673059394e-04
3.047619047619047450e+00,4.554163660821952567e-06,9.778537515925892355e-05
3.048412698412698241e+00,5.005229322254004232e-06,8.042571794739706594e-05
3.049206349206349032e+00,5.248795023642998686e-06,5.193541952709411150e-05
3.049999999999999822e+00,5.288491324630090586e-06,1.579585556198381848e-05
3.050793650793650613e+00,5.129242440083071651e-06,-2.285673482554177377e-05
3.051587301587301404e+00,4.786458007134090044e-06,-5.820082445710464273e-05
3.052380952380952195e+00,4.294215845104037765e-06,-8.488042539632825734e-05
3.053174603174602986e+00,3.707674996928559469e-06,-9.904819916437244433e-05
3.053968253968253777e+00,3.097390024524506099e-06,-9.906011079421405752e-05
3.054761904761904567e+00,2.536834298780946284e-06,-8.567935858506890950e-05
3.055555555555555358e+00,2.087273795955782056e-06,-6.177023702035730674e-05
3.056349206349206149e+00,1.784859453826337852e-06,-3.159320294354743184e-05
3.057142857142856940e+00,1.633565748755265574e-06,8.337928407399806178e-08
3.057936507936507731e+00,1.605570991518068477e-06,2.881245728743291051e-05
3.058730158730158522e+00,1.648872186625386351e-06,5.106734870304445732e-05
3.059523809523809312e+00,1.700575282693963277e-06,6.456481645373740911e-05
3.060317460317460103e+00,1.703211728648934213e-06,6.836678841460077890e-05
3.061111111111110894e+00,1.620574853965656458e-06,6.284147037673366073e-05
3.061904761904761685e+00,1.449227079213004546e-06,4.952941129162529587e-05
3.062698412698412920e+00,1.222359193764127936e-06,3.091544475297078467e-05
3.063492063492063711e+00,1.004084510049254519e-06,1.009346880071330118e-05
3.064285714285714501e+00,8.741816700836526890e-07,-9.669964862820816824e-06
3.065079365079365292e+00,9.055999327665238695e-07,-2.543378124810619090e-05
3.065873015873016083e+00,1.139659687982318990e-06,-3.506860231396865607e-05
3.066666666666666874e+00,1.566141022832750564e-06,-3.763186647621229907e-05
3.067460317460317665e+00,2.115913882442817495e-06,-3.353087571992605770e-05
3.068253968253968456e+00,2.671095704181635009e-06,-2.440870920387161830e-05
3.069047619047619246e+00,3.091918092922961804e-06,-1.275725305557981723e-05
3.069841269841270037e+00,3.252573642639596581e-06,-1.339609363814309770e-06
3.070634920634920828e+00,3.073803968260518645e-06,7.439076683421926458e-06
3.071428571428571619e+00,2.540864465307800603e-06,1.205597093840202777e-05
3.072222222222222410e+00,1.701847764892799406e-06,1.215741385252091480e-05
3.073015873015873201e+00,6.496604322635526479e-07,8.534028563422853573e-06
3.073809523809523991e+00,-5.034491055318857176e-07,2.794332733599951448e-06
3.074603174603174782e+00,-1.649166329276935478e-06,-3.160677735659257488e-06
3.075396825396825573e+00,-2.697345547798252892e-06,-7.693871377977949485e-06
3.076190476190476364e+00,-3.578470458390221205e-06,-9.845632369929408823e-06
3.076984126984127155e+00,-4.236063917910448884e-06,-9.490904030516606724e-06
3.077777777777777946e+00,-4.615220652700157685e-06,-7.221694929865618077e-06
3.078571428571428736e+00,-4.656516747253628017e-06,-4.029349564499438067e-06
3.079365079365079527e+00,-4.304084060062436700e-06,-9.196539933287162668e-07
3.080158730158730318e+00,-3.531458812011343966e-06,1.397499489941042076e-06
3.080952380952381109e+00,-2.380158528367056229e-06,2.646934911366058125e-06
3.081746031746031900e+00,-9.973414147342810596e-07,2.939117044366362867e-06
3.082539682539682691e+00,3.454145045595205839e-07,2.595441899597369363e-06
3.083333333333333481e+00,1.267660288384703408e-06,1.949103644677479596e-06
3.084126984126984272e+00,1.336585226949519937e-06,1.208617835986236632e-06
3.084920634920635063e+00,1.588837703289669185e-07,4.210284492115248171e-07
3.085714285714285854e+00,-2.509720588838020535e-06,-4.820749456820726119e-07
3.086507936507936645e+00,-6.663728691471208913e-06,-1.603499009250341313e-06
3.087301587301587436e+00,-1.198511427194041539e-05,-3.009574522890135980e-06
3.088095238095238226e+00,-1.784298549818701959e-05,-4.687701306395683289e-06
3.088888888888889017e+00,-2.336759900748807648e-05,-6.522741827152435898e-06
3.089682539682539808e+00,-2.759267185632737027e-05,-8.276015127909702764e-06
3.090476190476190599e+00,-2.964079928002560577e-05,-9.566898745425688098e-06
3.091269841269841390e+00,-2.891168526874239052e-05,-9.878263459345620407e-06
3.092063492063492181e+00,-2.522620077213703958e-05,-8.614097075926679362e-06
3.092857142857142971e+00,-1.888410056899555902e-05,-5.224918070965711849e-06
3.093650793650793762e+00,-1.061133286259306826e-05,6.096975346496567094e-07
3.094444444444444553e+00,-1.403053021272151799e-06,8.781247265656222389e-06
3.095238095238095344e+00,7.696812765304427217e-06,1.859746204506966644e-05
3.096031746031746135e+00,1.581376394764245658e-05,2.874355471614571425e-05
3.096825396825396925e+00,2.239237555728993288e-05,3.741653733260797598e-05
3.097619047619047716e+00,2.723762001064813210e-05,4.264454485163859243e-05
3.098412698412698507e+00,3.044934412049491284e-05,4.273350903465244111e-05
3.099206349206349298e+00,3.228828372424151570e-05,3.672088181455381185e-05
3.100000000000000089e+00,3.303057838068270357e-05,2.469979795944068937e-05
3.100793650793650880e+00,3.286381331406370041e-05,7.917859751397959199e-06
3.101587301587301670e+00,3.185482137020596426e-05,-1.137695752315125198e-05
3.102380952380952461e+00,2.998721266650471623e-05,-3.031280627078488846e-05
3.103174603174603252e+00,2.723837956619162061e-05,-4.592574738160115156e-05
3.103968253968254043e+00,2.365403229952163972e-05,-5.575224935869544637e-05
3.104761904761904834e+00,1.938692664559771794e-05,-5.836220937866119302e-05
3.105555555555555625e+00,1.468791751559316332e-05,-5.369961561748492910e-05
3.106349206349206415e+00,9.859252336388011064e-06,-4.311947371583461024e-05
3.107142857142857206e+00,5.192812752818690543e-06,-2.907770049172345048e-05
3.107936507936507997e+00,9.173379979913026370e-07,-1.453202885227826218e-05
3.108730158730158788e+00,-2.828851527637901528e-06,-2.208133227755366215e-06
3.109523809523809579e+00,-5.994864535605392845e-06,6.064466323002043933e-06
3.110317460317460370e+00,-8.590573014729538582e-06,9.756213626610317686e-06
3.111111111111111160e+00,-1.064998570988992779e-05,9.662581081918181929e-06
3.111904761904761951e+00,-1.219931041657516154e-05,7.542018609444025699e-06
3.112698412698412742e+00,-1.324007634841957253e-05,5.478374776351348327e-06
3.113492063492063533e+00,-1.375120197702900031e-05,5.173000014993219515e-06
3.114285714285714324e+00,-1.370777724561527182e-05,7.403031060589704031e-06
3.115079365079365115e+00,-1.310985649048263003e-05,1.183058464314080499e-05
3.115873015873015905e+00,-1.201248713295376258e-05,1.722107184964108453e-05
3.116666666666666696e+00,-1.054856520750778841e-05,2.197208161833793153e-05
3.117460317460317487e+00,-8.937655187179240814e-06,2.473507898327580095e-05
3.118253968253968278e+00,-7.475380076029407896e-06,2.488508784014794608e-05
3.119047619047619069e+00,-6.499714265189129936e-06,2.266830651978899585e-05
3.119841269841269860e+00,-6.333790066800575302e-06,1.899775938723831080e-05
3.120634920634920650e+00,-7.210322876745293065e-06,1.501013167771916412e-05
3.121428571428571441e+00,-9.190102206778656278e-06,1.158212247322128411e-05
3.122222222222222232e+00,-1.209470000254084601e-05,9.001546175795034887e-06
3.123015873015873023e+00,-1.547834071121407368e-05,6.909746493116871999e-06
3.123809523809523814e+00,-1.866124908642707541e-05,4.520057878699278236e-06
3.124603174603174605e+00,-2.083389028266779296e-05,1.018252769408802388e-06
3.125396825396825395e+00,-2.122028130845438182e-05,-4.003846200773611690e-06
3.126190476190476186e+00,-1.926600506594756466e-05,-1.023174623394236154e-05
3.126984126984126977e+00,-1.480156753593625723e-05,-1.653637083064477169e-05
3.127777777777777768e+00,-8.130925024089778378e-06,-2.114926869886715237e-05
3.128571428571428559e+00,-1.066600858024777114e-08,-2.208042732824319713e-05
3.129365079365079350e+00,8.485138361280300997e-06,-1.769707343218983333e-05
3.130158730158730140e+00,1.618420768988355725e-05,-7.335619567373179902e-06
3.130952380952380931e+00,2.206135860416999739e-05,8.214295362244500480e-06
3.131746031746031722e+00,2.544345978349493481e-05,2.652075303492561805e-05
3.132539682539682513e+00,2.612263864907585212e-05,4.374173923199613923e-05
3.133333333333333304e+00,2.435685983638583292e-05,5.531214201901948457e-05
3.134126984126984095e+00,2.076945840707953845e-05,5.699377519216044364e-05
3.134920634920634885e+00,1.618247114275767626e-05,4.607012146060060134e-05
3.135714285714285676e+00,1.142808662861194583e-05,2.237202073432049217e-05
3.136507936507936467e+00,7.179725691825418542e-06,-1.120686869606939589e-05
3.137301587301587258e+00,3.834013063253742806e-06,-4.896503585348462647e-05
3.138095238095238049e+00,1.462043094611954181e-06,-8.347686664946430866e-05
3.138888888888888840e+00,-1.645715969586895879e-07,-1.072914384985074833e-04
3.139682539682539630e+00,-1.479986967945324625e-06,-1.147950656693351782e-04
3.140476190476190421e+00,-2.982052292976061000e-06,-1.036882596004039589e-04
3.141269841269841212e+00,-5.071517535426604158e-06,-7.562180258268864897e-05
3.142063492063492003e+00,-7.908961277298544421e-06,-3.579842636450728346e-05
3.142857142857142794e+00,-1.132866242864060268e-05,8.322835963456816171e-06
3.143650793650793585e+00,-1.484523629334453490e-05,4.881571599025047930e-05
3.144444444444444375e+00,-1.777096500854244995e-05,7.905532965032534189e-05
3.145238095238095166e+00,-1.942208790850327957e-05,9.501135142294663970e-05
3.146031746031745957e+00,-1.934341127837190146e-05,9.579061569059178782e-05
3.146825396825396748e+00,-1.745811046773075538e-05,8.338524409834024347e-05
3.147619047619047539e+00,-1.408070398013371618e-05,6.179486941352486831e-05
3.148412698412698330e+00,-9.799795755507632482e-06,3.583155389767051050e-05
3.149206349206349120e+00,-5.294809153715720143e-06,9.956907895910810995e-06
3.149999999999999911e+00,-1.163120612784431864e-06,-1.255736604763323126e-05
3.150793650793650702e+00,2.193609417218234455e-06,-2.998532104828768117e-05
3.151587301587301493e+00,4.612653062110337997e-06,-4.201522243313163659e-05
3.152380952380952284e+00,6.155288672348046423e-06,-4.926050721648108201e-05
3.153174603174603075e+00,7.051874407498684930e-06,-5.262378623270815774e-05
3.153968253968253865e+00,7.621971973901183672e-06,-5.274127394423590260e-05
3.154761904761904656e+00,8.181102910585677626e-06,-4.969040234769445482e-05
3.155555555555555447e+00,8.946962200405180062e-06,-4.304921791405563633e-05
3.156349206349206238e+00,9.964880448242299170e-06,-3.227451292738778174e-05
3.157142857142857029e+00,1.107797682514016338e-05,-1.724948750327607330e-05
3.157936507936507819e+00,1.196119169357935801e-05,1.219645897344552977e-06
3.158730158730158610e+00,1.221863630126445096e-05,2.117447079360852596e-05
3.159523809523809401e+00,1.151961980924774355e-05,3.967447631903491423e-05
3.160317460317460192e+00,9.730782334735817252e-06,5.336110211822869468e-05
3.161111111111110983e+00,6.997394043039260620e-06,5.926887787537413578e-05
3.161904761904761774e+00,3.740719325032307254e-06,5.564223034144429638e-05
3.162698412698412564e+00,5.674776966085941818e-07,4.250471831009154091e-05
3.163492063492063355e+00,-1.881387564664947643e-06,2.180357906737531639e-05
3.164285714285714146e+00,-3.096706228717641963e-06,-2.915874431836929118e-06
3.165079365079364937e+00,-2.834600216122108138e-06,-2.721868855672540278e-05
3.165873015873015728e+00,-1.182368264146550009e-06,-4.669351946999027940e-05
3.166666666666666519e+00,1.459003685610451618e-06,-5.785640885281025315e-05
3.167460317460317309e+00,4.469781353270708743e-06,-5.884160271192941815e-05
3.168253968253968100e+00,7.157998219006054073e-06,-4.972729988166546615e-05
3.169047619047618891e+00,8.917088127098225705e-06,-3.243264047139375183e-05
3.169841269841269682e+00,9.350556124510354684e-06,-1.023191211349563246e-05
3.170634920634920473e+00,8.332609179020571049e-06,1.297278545271428666e-05
3.171428571428571264e+00,6.000069668495089944e-06,3.343498430794527605e-05
3.172222222222222054e+00,2.695448574659342597e-06,4.823413489198161039e-05
3.173015873015872845e+00,-1.111356039703506760e-06,5.571819945309947389e-05
3.173809523809523636e+00,-4.904711937918447376e-06,5.566761581616848608e-05
3.174603174603174427e+00,-8.202304364283000869e-06,4.918483817078869757e-05
3.175396825396825218e+00,-1.062725533907594134e-05,3.835669910750142585e-05
3.176190476190476009e+00,-1.196184990484468937e-05,2.576902978933038907e-05
3.176984126984126799e+00,-1.216826900072648345e-05,1.397282655515724590e-05
3.177777777777777590e+00,-1.137033483865821042e-05,5.003532277504378175e-06
3.178571428571428381e+00,-9.804920469904298682e-06,3.704871517663869065e-08
3.179365079365079172e+00,-7.761441490741360796e-06,-7.662676084778794688e-07
3.180158730158729963e+00,-5.528081675226476468e-06,1.786074555227371236e-06
3.180952380952380754e+00,-3.356442995816186088e-06,6.154311770354325547e-06
3.181746031746031544e+00,-1.446334613275249828e-06,1.044626839148950674e-05
3.182539682539682335e+00,5.618784521103817295e-08,1.287130077023805347e-05
3.183333333333333126e+00,1.057414069433566447e-06,1.217725840227869920e-05
3.184126984126983917e+00,1.517567578230953702e-06,7.972066905533468966e-06
3.184920634920634708e+00,1.455740817317582970e-06,8.443709042068852895e-07
3.185714285714285499e+00,9.547714250874868038e-07,-7.765591122902767301e-06
3.186507936507936289e+00,1.619595738577893014e-07,-1.593274932242560009e-05
3.187301587301587080e+00,-7.183253688242736814e-07,-2.176484653054056836e-05
3.188095238095238315e+00,-1.444266078338867457e-06,-2.392302877888537337e-05
3.188888888888889106e+00,-1.771880771330787912e-06,-2.198316665816511873e-05
3.189682539682539897e+00,-1.506309457226103569e-06,-1.652564306820346977e-05
3.190476190476190688e+00,-5.637187978883090729e-07,-8.940651863774089209e-06
3.191269841269841478e+00,9.684409802449355807e-07,-1.040307432092620384e-06
3.192063492063492269e+00,2.790527483727181666e-06,5.373425670638004093e-06
3.192857142857143060e+00,4.388405177591574402e-06,8.850737732240768156e-06
3.193650793650793851e+00,5.085523517696680707e-06,8.481340007265923851e-06
3.194444444444444642e+00,4.156362566585795784e-06,3.941611680369988758e-06
3.195238095238095433e+00,9.942168802738501753e-07,-4.536057210105390452e-06
3.196031746031746223e+00,-4.691767558861565458e-06,-1.620698804282573815e-05
3.196825396825397014e+00,-1.269367061957062953e-05,-2.984101786841933748e-05
3.197619047619047805e+00,-2.219140821481930636e-05,-4.375392345672855169e-05
3.198412698412698596e+00,-3.176296633627297551e-05,-5.590717656790239421e-05
3.199206349206349387e+00,-3.955262659690931789e-05,-6.414452127108925556e-05
3.200000000000000178e+00,-4.359343751300160438e-05,-6.658516592387694682e-05
3.200793650793650968e+00,-4.223133483708265779e-05,-6.210439013414089499e-05
3.201587301587301759e+00,-3.455430675121534554e-05,-5.074685000573652403e-05
3.202380952380952550e+00,-2.070926026752250079e-05,-3.389047488210912275e-05
3.203174603174603341e+00,-2.004239855536246880e-06,-1.404308402539069588e-05
3.203968253968254132e+00,1.925544073007584889e-05,5.707301212354351286e-06
3.204761904761904923e+00,4.017500097455114935e-05,2.242193174427368943e-05
3.205555555555555713e+00,5.782732751226421004e-05,3.397949980381738671e-05
3.206349206349206504e+00,6.982004833287598308e-05,3.947470356477395415e-05
3.207142857142857295e+00,7.473266293112613393e-05,3.925534801773817233e-05
3.207936507936508086e+00,7.232552344942392523e-05,3.464254435649222641e-05
3.208730158730158877e+00,6.348845350303476643e-05,2.747235143900969291e-05
3.209523809523809668e+00,4.996454112645126299e-05,1.962138514670399618e-05
3.210317460317460458e+00,3.393558557785590526e-05,1.264480614391723799e-05
3.211111111111111249e+00,1.757852207760423504e-05,7.589486470526293096e-06
3.211904761904762040e+00,2.694494694806559824e-06,4.973914167654095117e-06
3.212698412698412831e+00,-9.519263556795704449e-06,4.872965211568349669e-06
3.213492063492063622e+00,-1.852812194257416793e-05,7.028418793990656915e-06
3.214285714285714413e+00,-2.436662022997703746e-05,1.092875588962346607e-05
3.215079365079365203e+00,-2.744517490036114715e-05,1.584762929485199261e-05
3.215873015873015994e+00,-2.832752383427463444e-05,2.087067483287006049e-05
3.216666666666666785e+00,-2.754654224248779542e-05,2.495412513621113164e-05
3.217460317460317576e+00,-2.550327163151661932e-05,2.704511873974523562e-05
3.218253968253968367e+00,-2.245992679452532675e-05,2.626416359956456421e-05
3.219047619047619158e+00,-1.860463018477943796e-05,2.211619556674656331e-05
3.219841269841269948e+00,-1.414490538057504846e-05,1.466922505443904992e-05
3.220634920634920739e+00,-9.384271997517516849e-06,4.632963626544435006e-06
3.221428571428571530e+00,-4.749519302404889310e-06,-6.707284918435992273e-06
3.222222222222222321e+00,-7.574845099431659742e-07,-1.770191096700403225e-05
3.223015873015873112e+00,2.068917849547331997e-06,-2.664894527804871377e-05
3.223809523809523903e+00,3.310452072567720973e-06,-3.213417949662444021e-05
3.224603174603174693e+00,2.755639376379694414e-06,-3.332168234629178245e-05
3.225396825396825484e+00,4.711131258641292963e-07,-3.013103625317931192e-05
3.226190476190476275e+00,-3.178865923581179709e-06,-2.326419524017812304e-05
3.226984126984127066e+00,-7.568615438162463607e-06,-1.407554071788846848e-05
3.227777777777777857e+00,-1.189939394717351990e-05,-4.306866124935977065e-06
3.228571428571428648e+00,-1.533031441884455791e-05,4.266346951555973667e-06
3.229365079365079438e+00,-1.713310718042399390e-05,1.020807543913563887e-05
3.230158730158730229e+00,-1.683961806705882569e-05,1.272850364225864962e-05
3.230952380952381020e+00,-1.434389526164616974e-05,1.184268599086800837e-05
3.231746031746031811e+00,-9.928310187678384544e-06,8.335864929247971687e-06
3.232539682539682602e+00,-4.205037273174129195e-06,3.551180785292126471e-06
3.233333333333333393e+00,2.009520591074305367e-06,-9.270893607837271141e-07
3.234126984126984183e+00,7.851181747455764144e-06,-3.598460188376871154e-06
3.234920634920634974e+00,1.255556415433602041e-05,-3.305265929405097218e-06
3.235714285714285765e+00,1.556749480097530022e-05,5.984157166546613940e-07
