Timestamp,Flexor carpi radialis,Extensor digitorum
2.000000000000000000e+00,-1.454058403297851009e-05,-1.784762299004998657e-05
2.000793650793650791e+00,-1.868436746371494284e-05,-2.064745244709948409e-05
2.001587301587301582e+00,-1.675698458281144995e-05,-3.082112178743115494e-05
2.002380952380952372e+00,-7.706907676885906846e-06,-4.548955998329654032e-05
2.003174603174603163e+00,8.007006945049197208e-06,-6.038288699292362785e-05
2.003968253968253954e+00,2.825694598133704147e-05,-7.081878404963675062e-05
2.004761904761904745e+00,4.953666599276596244e-05,-7.274091022575029355e-05
2.005555555555555536e+00,6.768332113050575471e-05,-6.360837120033699334e-05
2.006349206349206327e+00,7.885576011011240141e-05,-4.297715257588799161e-05
2.007142857142857117e+00,8.049445084410822694e-05,-1.266538927184752724e-05
2.007936507936507908e+00,7.198240278667563860e-05,2.354354800074961445e-05
2.008730158730158699e+00,5.481127916060195716e-05,6.061610429638806483e-05
2.009523809523809490e+00,3.220525161448192938e-05,9.325097326014138719e-05
2.010317460317460281e+00,8.321150459417994686e-06,1.168999932816471384e-04
2.011111111111111072e+00,-1.273387953003999545e-05,1.285920145046088767e-04
2.011904761904761862e+00,-2.779358538090023685e-05,1.273912675906651486e-04
2.012698412698412653e+00,-3.521764290739711069e-05,1.144259472506601563e-04
2.013492063492063444e+00,-3.506482115613196454e-05,9.252283716103108270e-05
2.014285714285714235e+00,-2.886239529838442811e-05,6.555741357036372872e-05
2.015079365079365026e+00,-1.907185103414515384e-05,3.767131737354070928e-05
2.015873015873015817e+00,-8.411785594227663527e-06,1.252125932543638335e-05
2.016666666666666607e+00,7.792607080835757666e-07,-7.296486976416980469e-06
2.017460317460317398e+00,6.984951287098755616e-06,-2.055369840994861918e-05
2.018253968253968189e+00,9.677413493565573650e-06,-2.740766336058359664e-05
2.019047619047618980e+00,9.219094878947093599e-06,-2.916887680308879210e-05
2.019841269841269771e+00,6.582565128356046074e-06,-2.789596854164989994e-05
2.020634920634920562e+00,2.997587214920410454e-06,-2.590551949392926869e-05
2.021428571428571352e+00,-3.770121058837773672e-07,-2.527969518964559898e-05
2.022222222222222143e+00,-2.690901237712764754e-06,-2.744352318582908310e-05
2.023015873015872934e+00,-3.519363086103096040e-06,-3.287062274211863684e-05
2.023809523809523725e+00,-2.861918149554050765e-06,-4.096258509258421675e-05
2.024603174603174516e+00,-1.048363897953555387e-06,-5.013155084656960954e-05
2.025396825396825307e+00,1.407669856777814697e-06,-5.809361446602693684e-05
2.026190476190476097e+00,3.963565850944845819e-06,-6.234729758577089000e-05
2.026984126984126888e+00,6.171630449676145046e-06,-6.076533236322713497e-05
2.027777777777777679e+00,7.743912721696114937e-06,-5.217857680035057271e-05
2.028571428571428470e+00,8.546616949306035557e-06,-3.679921777341548233e-05
2.029365079365079261e+00,8.535782793601269964e-06,-1.634193870821960980e-05
2.030158730158730052e+00,7.671130123939379257e-06,6.230278958173900516e-06
2.030952380952380842e+00,5.859694251699759744e-06,2.729916123731279505e-05
2.031746031746031633e+00,2.970796172356002532e-06,4.337659141953717663e-05
2.032539682539682424e+00,-1.071409430560651882e-06,5.187397657014387994e-05
2.033333333333333215e+00,-6.154161131120749647e-06,5.165694342308866879e-05
2.034126984126984006e+00,-1.186525415573196814e-05,4.325654422860122472e-05
2.034920634920634797e+00,-1.747084073873332878e-05,2.870323774631588254e-05
2.035714285714285587e+00,-2.202203269812987561e-05,1.104380347975090197e-05
2.036507936507936378e+00,-2.458222270097818886e-05,-6.318044608289196888e-06
2.037301587301587169e+00,-2.450893195919141555e-05,-2.027291440725142370e-05
2.038095238095237960e+00,-2.168358387571317492e-05,-2.849473991141028724e-05
2.038888888888888751e+00,-1.659024832218299527e-05,-2.971540579187239022e-05
2.039682539682539542e+00,-1.020422078491110302e-05,-2.383145053982136516e-05
2.040476190476190332e+00,-3.730445287837477945e-06,-1.190058473339982542e-05
2.041269841269841123e+00,1.713007112770977558e-06,3.982815533905476236e-06
2.042063492063491914e+00,5.360862260934550609e-06,2.099642180226897567e-05
2.042857142857142705e+00,6.938879931552993832e-06,3.610718372811462973e-05
2.043650793650793496e+00,6.647238093956371006e-06,4.671125489507553318e-05
2.044444444444444287e+00,5.015867302632802951e-06,5.121129902749281179e-05
2.045238095238095077e+00,2.699302499958741343e-06,4.932976137746757816e-05
2.046031746031745868e+00,2.897696783693947509e-07,4.204353756480448922e-05
2.046825396825396659e+00,-1.797111753307856331e-06,3.117290842713828778e-05
2.047619047619047450e+00,-3.354167974531651327e-06,1.878892639183432780e-05
2.048412698412698241e+00,-4.357206223381442436e-06,6.656868531426641221e-06
2.049206349206349032e+00,-4.913063112295824181e-06,-4.106491858862567840e-06
2.049999999999999822e+00,-5.195887444900451365e-06,-1.308960933687889493e-05
2.050793650793650613e+00,-5.373758444960668914e-06,-2.040506131087887136e-05
2.051587301587301404e+00,-5.533529755541150805e-06,-2.640123982307073476e-05
2.052380952380952195e+00,-5.626103606064327035e-06,-3.141026276885028410e-05
2.053174603174602986e+00,-5.458353376379131498e-06,-3.562334431543614220e-05
2.053968253968253777e+00,-4.745517996563224588e-06,-3.910328724875593791e-05
2.054761904761904567e+00,-3.215461056916923476e-06,-4.187556975402486503e-05
2.055555555555555358e+00,-7.326702030891230107e-07,-4.401164285021071549e-05
2.056349206349206149e+00,2.603993096499896313e-06,-4.563384548262531919e-05
2.057142857142856940e+00,6.429109607429200706e-06,-4.681627073657555370e-05
2.057936507936507731e+00,1.015670780319064014e-05,-4.740794592327777129e-05
2.058730158730158522e+00,1.308756663223220894e-05,-4.684505510188634742e-05
2.059523809523809312e+00,1.454784571647226078e-05,-4.404034905628424821e-05
2.060317460317460103e+00,1.403448804445320359e-05,-3.744073184334814418e-05
2.061111111111110894e+00,1.135168814273065788e-05,-2.532132561031813083e-05
2.061904761904761685e+00,6.721324368961441488e-06,-6.320421325604170643e-06
2.062698412698412920e+00,8.401538610581399633e-07,1.988422210162661184e-05
2.063492063492063711e+00,-5.149894714270254028e-06,5.196304108311815306e-05
2.064285714285714501e+00,-9.804420243501730170e-06,8.664179660338827390e-05
2.065079365079365292e+00,-1.163457883274403187e-05,1.189380246608384267e-04
2.065873015873016083e+00,-9.448225537333405943e-06,1.429920947041762392e-04
2.066666666666666874e+00,-2.707611817131663341e-06,1.533523716052636687e-04
2.067460317460317665e+00,8.184374077913789973e-06,1.463815103182080539e-04
2.068253968253968456e+00,2.175889030865459992e-05,1.213601479043680236e-04
2.069047619047619246e+00,3.558754287508625758e-05,8.092996946857861410e-05
2.069841269841270037e+00,4.665132098135011242e-05,3.072000428386945325e-05
2.070634920634920828e+00,5.193795132298609289e-05,-2.174953468107987585e-05
2.071428571428571619e+00,4.915361039375185494e-05,-6.859044229143102455e-05
2.072222222222222410e+00,3.737306024579624251e-05,-1.031068457858943903e-04
2.073015873015873201e+00,1.744297822988946699e-05,-1.210258991890915539e-04
2.073809523809523991e+00,-7.997826222965285036e-06,-1.211521719795352896e-04
2.074603174603174782e+00,-3.493247653303508158e-05,-1.053693881453395459e-04
2.075396825396825573e+00,-5.876491130448765712e-05,-7.807263670351038401e-05
2.076190476190476364e+00,-7.534363103544021044e-05,-4.521561870275235399e-05
2.076984126984127155e+00,-8.194644559776390557e-05,-1.318883127671478759e-05
2.077777777777777946e+00,-7.792124395992662967e-05,1.227390568725934826e-05
2.078571428571428736e+00,-6.476311667050484405e-05,2.699998435321752160e-05
2.079365079365079527e+00,-4.561060881879028218e-05,2.897210397365297674e-05
2.080158730158730318e+00,-2.435959569611798422e-05,1.853835152854820117e-05
2.080952380952381109e+00,-4.705675939202828571e-06,-1.773195979430270233e-06
2.081746031746031900e+00,1.060390794837644246e-05,-2.778444812576985330e-05
2.082539682539682691e+00,2.015391521774722864e-05,-5.444454697715980958e-05
2.083333333333333481e+00,2.386980099114796949e-05,-7.672624010677911476e-05
2.084126984126984272e+00,2.274432753377753972e-05,-9.049306386261989315e-05
2.084920634920635063e+00,1.841712792757985886e-05,-9.318642938641035097e-05
2.085714285714285854e+00,1.273461070342315350e-05,-8.420797078158423141e-05
2.086507936507936645e+00,7.382873685613530753e-06,-6.492894637709410808e-05
2.087301587301587436e+00,3.643174394756008440e-06,-3.833457756790860903e-05
2.088095238095238226e+00,2.279012832230450216e-06,-8.389003642631859408e-06
2.088888888888889017e+00,3.532647411199631263e-06,2.073489735519048175e-05
2.089682539682539808e+00,7.191718691883292141e-06,4.539417850623699940e-05
2.090476190476190599e+00,1.268572858170900698e-05,6.303656560974878621e-05
2.091269841269841390e+00,1.918474254837744896e-05,7.249281527791556822e-05
2.092063492063492181e+00,2.569163106428069130e-05,7.398226928544867340e-05
2.092857142857142971e+00,3.113597909279618354e-05,6.887610210517748535e-05
2.093650793650793762e+00,3.448613903854775290e-05,5.929942763484026113e-05
2.094444444444444553e+00,3.489221210874023029e-05,4.766289997395162334e-05
2.095238095238095344e+00,3.185573955940540757e-05,3.620749138678095683e-05
2.096031746031746135e+00,2.539443797945440198e-05,2.663391046843693467e-05
2.096825396825396925e+00,1.614293538208877655e-05,1.987329346490394929e-05
2.097619047619047716e+00,5.321855756537438005e-06,1.603344221685640232e-05
2.098412698412698507e+00,-5.463715078126943713e-06,1.452113359052234728e-05
2.099206349206349298e+00,-1.456922980134596742e-05,1.429939725863991884e-05
2.100000000000000089e+00,-2.069950267967101681e-05,1.420180875059479575e-05
2.100793650793650880e+00,-2.320977325261314519e-05,1.321375614645230158e-05
2.101587301587301670e+00,-2.222013480873232365e-05,1.065676092654212068e-05
2.102380952380952461e+00,-1.852082455541799553e-05,6.263041556939351470e-06
2.103174603174603252e+00,-1.331986164178058345e-05,1.679026912993973300e-07
2.103968253968254043e+00,-7.923164582545144755e-06,-7.146355108874300723e-06
2.104761904761904834e+00,-3.437383964977887857e-06,-1.493770474069131523e-05
2.105555555555555625e+00,-5.619094929231680708e-07,-2.231529925136899081e-05
2.106349206349206415e+00,4.967945753725585111e-07,-2.835730417972149035e-05
2.107142857142857206e+00,-1.032877370823345972e-08,-3.220660251879398171e-05
2.107936507936507997e+00,-1.502467873983761899e-06,-3.312389363784742457e-05
2.108730158730158788e+00,-3.244492812472064373e-06,-3.051054845371427562e-05
2.109523809523809579e+00,-4.526301316901573698e-06,-2.394590102589660253e-05
2.110317460317460370e+00,-4.811241860851526886e-06,-1.328698908647499111e-05
2.111111111111111160e+00,-3.831830693480467317e-06,1.152975777732535612e-06
2.111904761904761951e+00,-1.623489241451884706e-06,1.838405940131803407e-05
2.112698412698412742e+00,1.502258990308543711e-06,3.656885508614209036e-05
2.113492063492063533e+00,5.034730861021950309e-06,5.302865990641528014e-05
2.114285714285714324e+00,8.373440452226927692e-06,6.454244194309696574e-05
2.115079365079365115e+00,1.094726775724525503e-05,6.797840057783875430e-05
2.115873015873015905e+00,1.231984478967805996e-05,6.116402347736826913e-05
2.116666666666666696e+00,1.226149893531030660e-05,4.375209055777773832e-05
2.117460317460317487e+00,1.077660863490232054e-05,1.775403221267839307e-05
2.118253968253968278e+00,8.086036191577495897e-06,-1.253775946938036680e-05
2.119047619047619069e+00,4.573796653356437158e-06,-4.132358918737294613e-05
2.119841269841269860e+00,7.123384771918101533e-07,-6.259806814966544853e-05
2.120634920634920650e+00,-3.018732912760144686e-06,-7.161722730263021146e-05
2.121428571428571441e+00,-6.207975894721548948e-06,-6.610696815697506121e-05
2.122222222222222232e+00,-8.571436852623839830e-06,-4.686769188670927215e-05
2.123015873015873023e+00,-9.987591968464311671e-06,-1.761377177415803191e-05
2.123809523809523814e+00,-1.050178617748455634e-05,1.588797530351356122e-05
2.124603174603174605e+00,-1.029869545028824910e-05,4.712812121987291179e-05
2.125396825396825395e+00,-9.647652748143591657e-06,7.026911434920229493e-05
2.126190476190476186e+00,-8.830796265069012553e-06,8.133462704941349592e-05
2.126984126984126977e+00,-8.066669841179956770e-06,7.892579187532588515e-05
2.127777777777777768e+00,-7.444753994242707172e-06,6.433251147626876183e-05
2.128571428571428559e+00,-6.891568810146278725e-06,4.104892384530862758e-05
2.129365079365079350e+00,-6.190536685491283605e-06,1.385099408445507709e-05
2.130158730158730140e+00,-5.064107868726540489e-06,-1.229761375995163923e-05
2.130952380952380931e+00,-3.296258460968895765e-06,-3.322724895655608670e-05
2.131746031746031722e+00,-8.446098079123723594e-07,-4.622371637953518879e-05
2.132539682539682513e+00,2.111493705182463136e-06,-5.028886722059300253e-05
2.133333333333333304e+00,5.210686439597724444e-06,-4.604100527273531418e-05
2.134126984126984095e+00,8.016727776423116468e-06,-3.537036372407579622e-05
2.134920634920634885e+00,1.014308466438696593e-05,-2.098047393204776674e-05
2.135714285714285676e+00,1.134459106042881631e-05,-5.915283540816731127e-06
2.136507936507936467e+00,1.154809563463600026e-05,6.877989418160778277e-06
2.137301587301587258e+00,1.082289739857634689e-05,1.493761439940989127e-05
2.138095238095238049e+00,9.315814161708406519e-06,1.662108202819819429e-05
2.138888888888888840e+00,7.188385702404134330e-06,1.135727091607162981e-05
2.139682539682539630e+00,4.588916432985753770e-06,-2.334321229305130879e-07
2.140476190476190421e+00,1.668743221124293810e-06,-1.640584407853485358e-05
2.141269841269841212e+00,-1.378026052572178628e-06,-3.456742559677412766e-05
2.142063492063492003e+00,-4.288890926872927634e-06,-5.173043677100938928e-05
2.142857142857142794e+00,-6.750191360437314825e-06,-6.504692892395789658e-05
2.143650793650793585e+00,-8.458252896712956310e-06,-7.231515451417706213e-05
2.144444444444444375e+00,-9.199318474093310050e-06,-7.236187683492142323e-05
2.145238095238095166e+00,-8.914442542285941481e-06,-6.523345356514257407e-05
2.146031746031745957e+00,-7.724430377028876704e-06,-5.215965850147109075e-05
2.146825396825396748e+00,-5.906283625957420709e-06,-3.529528181584647015e-05
2.147619047619047539e+00,-3.828277693603760554e-06,-1.729449853849167188e-05
2.148412698412698330e+00,-1.862798058703924746e-06,-8.122254646921246745e-07
2.149206349206349120e+00,-3.022736627088437195e-07,1.196434068001776496e-05
2.149999999999999911e+00,6.988282144583934238e-07,1.967249195273385043e-05
2.150793650793650702e+00,1.143613677470824434e-06,2.197401824629723437e-05
2.151587301587301493e+00,1.174706329718759270e-06,1.958723871747310348e-05
2.152380952380952284e+00,1.027836720581325843e-06,1.416111043074925037e-05
2.153174603174603075e+00,9.692593108447198824e-07,8.009781576045588194e-06
2.153968253968253865e+00,1.230077856485162703e-06,3.729756633112965796e-06
2.154761904761904656e+00,1.951451706547916618e-06,3.732507030110717935e-06
2.155555555555555447e+00,3.153290368048738858e-06,9.746142288408848233e-06
2.156349206349206238e+00,4.732780474929787991e-06,2.235971907751372383e-05
2.157142857142857029e+00,6.488337903384747935e-06,4.069166931542220542e-05
2.157936507936507819e+00,8.153854008178859484e-06,6.226692752225527940e-05
2.158730158730158610e+00,9.425664027282807652e-06,8.319503783992637477e-05
2.159523809523809401e+00,9.977098860139581969e-06,9.872798772070479176e-05
2.160317460317460192e+00,9.477116343271592603e-06,1.041921923164110004e-04
2.161111111111110983e+00,7.640242674772825801e-06,9.613034200826954035e-05
2.161904761904761774e+00,4.318186939036472137e-06,7.333813477932898180e-05
2.162698412698412564e+00,-3.928011901913968872e-07,3.744942925634628860e-05
2.163492063492063355e+00,-6.081581108533234354e-06,-7.151112927362934995e-06
2.164285714285714146e+00,-1.203696515197117454e-05,-5.409465442193824437e-05
2.165079365079364937e+00,-1.736313283749944307e-05,-9.628269702207299153e-05
2.165873015873015728e+00,-2.116988014887446405e-05,-1.273144377550439188e-04
2.166666666666666519e+00,-2.278172499382974189e-05,-1.427333451961072439e-04
2.167460317460317309e+00,-2.190105471295200604e-05,-1.407946024076549491e-04
2.168253968253968100e+00,-1.867549483835635637e-05,-1.226059070711812374e-04
2.169047619047618891e+00,-1.365258157355170762e-05,-9.168899166874364310e-05
2.169841269841269682e+00,-7.641851091066582065e-06,-5.315594797852148237e-05
2.170634920634920473e+00,-1.530644151358589251e-06,-1.273699427127919334e-05
2.171428571428571264e+00,3.893017815024415483e-06,2.414516162173449286e-05
2.172222222222222054e+00,8.068669942499596075e-06,5.312736482932917646e-05
2.173015873015872845e+00,1.072322365948939747e-05,7.141331925489675892e-05
2.173809523809523636e+00,1.186440807860496379e-05,7.800352023807674399e-05
2.174603174603174427e+00,1.172310146078650677e-05,7.364830644368022914e-05
2.175396825396825218e+00,1.066541480241812903e-05,6.056029297408652899e-05
2.176190476190476009e+00,9.097302727823895779e-06,4.195469109877610547e-05
2.176984126984126799e+00,7.383035891357237991e-06,2.150177459149335641e-05
2.177777777777777590e+00,5.792381633545637858e-06,2.771903828001975706e-06
2.178571428571428381e+00,4.481405708421949403e-06,-1.125991872974316134e-05
2.179365079365079172e+00,3.502637832857987783e-06,-1.859640140449091738e-05
2.180158730158729963e+00,2.834521591206681334e-06,-1.844672484016658621e-05
2.180952380952380754e+00,2.417815494951963435e-06,-1.127740343768332465e-05
2.181746031746031544e+00,2.187498754929500234e-06,1.319433237644931091e-06
2.182539682539682335e+00,2.092250216286978680e-06,1.692374413885705089e-05
2.183333333333333126e+00,2.098911597294946575e-06,3.271129746420694520e-05
2.184126984126983917e+00,2.185177872428583895e-06,4.593658782623158095e-05
2.184920634920634708e+00,2.327982885723820624e-06,5.438438899268558980e-05
2.185714285714285499e+00,2.495718035314590130e-06,5.669663593419027700e-05
2.186507936507936289e+00,2.649332591504607963e-06,5.251294076263113465e-05
2.187301587301587080e+00,2.752172902785114679e-06,4.241909960586862582e-05
2.188095238095238315e+00,2.783356317838416231e-06,2.775120732751984990e-05
2.188888888888889106e+00,2.746649105565552282e-06,1.033118009248101949e-05
2.189682539682539897e+00,2.667890960307048316e-06,-7.794271520745234079e-06
2.190476190476190688e+00,2.579026934481929006e-06,-2.456884230981699736e-05
2.191269841269841478e+00,2.493479375811135447e-06,-3.809325736415199913e-05
2.192063492063492269e+00,2.382665420451670574e-06,-4.677023639109643667e-05
2.192857142857143060e+00,2.164748613742651651e-06,-4.946139299280642157e-05
2.193650793650793851e+00,1.713779668544204425e-06,-4.567280806957385250e-05
2.194444444444444642e+00,8.912360776897143009e-07,-3.575325312001134827e-05
2.195238095238095433e+00,-4.054285379467919729e-07,-2.105031428858636705e-05
2.196031746031746223e+00,-2.188950368379019803e-06,-3.937501756703530330e-06
2.196825396825397014e+00,-4.338181521008144663e-06,1.238133165144388940e-05
2.197619047619047805e+00,-6.578119876576072465e-06,2.434460128600124390e-05
2.198412698412698596e+00,-8.494078846433480379e-06,2.874752448531204803e-05
2.199206349206349387e+00,-9.584121089606303657e-06,2.355317610814328940e-05
2.200000000000000178e+00,-9.348745136589367428e-06,8.576620152292998452e-06
2.200793650793650968e+00,-7.412261130917696232e-06,-1.418282780502823577e-05
2.201587301587301759e+00,-3.661838240005839068e-06,-4.070215056453339988e-05
2.202380952380952550e+00,1.626203726888162703e-06,-6.558976747218172481e-05
2.203174603174603341e+00,7.721429826610277789e-06,-8.309890571176130976e-05
2.203968253968254132e+00,1.348629789295808101e-05,-8.828024492182743634e-05
2.204761904761904923e+00,1.755919486612721775e-05,-7.804724863371651378e-05
2.205555555555555713e+00,1.865167765305540931e-05,-5.196738309457604651e-05
2.206349206349206504e+00,1.589510455085706633e-05,-1.263366697240027886e-05
2.207142857142857295e+00,9.144699865080151044e-06,3.450085123655747730e-05
2.207936507936508086e+00,-8.583368328054293270e-07,8.189283750483824771e-05
2.208730158730158877e+00,-1.254391740026285115e-05,1.212360319767647718e-04
2.209523809523809668e+00,-2.380598606701247677e-05,1.451329888724518249e-04
2.210317460317460458e+00,-3.246520295656109810e-05,1.487436855638740979e-04
2.211111111111111249e+00,-3.677182767470342300e-05,1.309769897150762658e-04
2.211904761904762040e+00,-3.580804063757323544e-05,9.486245691105746553e-05
2.212698412698412831e+00,-2.968786573835533200e-05,4.695303347483630204e-05
2.213492063492063622e+00,-1.951484323428552786e-05,-4.100842804310494783e-06
2.214285714285714413e+00,-7.119257245465788060e-06,-4.941786081533304807e-05
2.215079365079365203e+00,5.352636043290938656e-06,-8.170310954393407747e-05
2.215873015873015994e+00,1.589349220767702640e-05,-9.658932507053699602e-05
2.216666666666666785e+00,2.302597595222663073e-05,-9.324748363228981180e-05
2.217460317460317576e+00,2.604608921285056825e-05,-7.421515675650481041e-05
2.218253968253968367e+00,2.507759348361781780e-05,-4.457097494572780279e-05
2.219047619047619158e+00,2.094506756435904549e-05,-1.071124003175625059e-05
2.219841269841269948e+00,1.491474282062345226e-05,2.096205026375638699e-05
2.220634920634920739e+00,8.377013728991596317e-06,4.516595595201903319e-05
2.221428571428571530e+00,2.548702802844458019e-06,5.849731628059532057e-05
2.222222222222222321e+00,-1.741024334310603706e-06,5.976436228744642026e-05
2.223015873015873112e+00,-4.144599997298704453e-06,4.990617125038223517e-05
2.223809523809523903e+00,-4.767220713972382740e-06,3.156781559024552476e-05
2.224603174603174693e+00,-4.043709837317318799e-06,8.437378217491197757e-06
2.225396825396825484e+00,-2.568331108759057795e-06,-1.551919330801795061e-05
2.226190476190476275e+00,-9.269943918251893022e-07,-3.677896230179888683e-05
2.226984126984127066e+00,4.299599952448392162e-07,-5.280905239384317237e-05
2.227777777777777857e+00,1.254221516801789858e-06,-6.235386236480042297e-05
2.228571428571428648e+00,1.503750986420579154e-06,-6.543823407017465294e-05
2.229365079365079438e+00,1.298274779819980425e-06,-6.312525630980893765e-05
2.230158730158730229e+00,8.478358997898539353e-07,-5.711152813728138792e-05
2.230952380952381020e+00,3.772990511037229122e-07,-4.925940126528132796e-05
2.231746031746031811e+00,6.508631165228249128e-08,-4.116191969651062028e-05
2.232539682539682602e+00,6.963151538300767251e-09,-3.382240174867529102e-05
2.233333333333333393e+00,2.080169909293577661e-07,-2.751002798143809539e-05
2.234126984126984183e+00,5.992200531105153750e-07,-2.182255722069819095e-05
2.234920634920634974e+00,1.069728864827943147e-06,-1.594352891033761204e-05
2.235714285714285765e+00,1.503435165636987893e-06,-9.026446106108093105e-06
2.236507936507936556e+00,1.808882091468330125e-06,-5.899574873276004873e-07
2.237301587301587347e+00,1.935048696528052768e-06,9.207354473805883719e-06
2.238095238095238138e+00,1.871058401098538463e-06,1.951055289363200869e-05
2.238888888888888928e+00,1.634329151147243484e-06,2.895389456902520853e-05
2.239682539682539719e+00,1.255944716479628082e-06,3.602604322749842098e-05
2.240476190476190510e+00,7.711347159283939042e-07,3.949226073664887927e-05
2.241269841269841301e+00,2.175206441376553064e-07,3.873903821178414269e-05
2.242063492063492092e+00,-3.616621471233462911e-07,3.394063031284768239e-05
2.242857142857142883e+00,-9.144907294983094059e-07,2.600742189369376479e-05
2.243650793650793673e+00,-1.381483488930224136e-06,1.634111837127690689e-05
2.244444444444444464e+00,-1.702128551144370936e-06,6.474076633264728106e-06
2.245238095238095255e+00,-1.825217609568335116e-06,-2.300583472728935610e-06
2.246031746031746046e+00,-1.719916863656144452e-06,-9.199907393083617217e-06
2.246825396825396837e+00,-1.384465105041067321e-06,-1.404404738152678711e-05
2.247619047619047628e+00,-8.499833239592336600e-07,-1.714929156284285364e-05
2.248412698412698418e+00,-1.776367272916078012e-07,-1.906716564770088393e-05
2.249206349206349209e+00,5.512311965754770339e-07,-2.026639322799078687e-05
2.250000000000000000e+00,1.250070196408478243e-06,-2.086830684607766129e-05
2.250793650793650791e+00,1.843096834665992079e-06,-2.052398469137743108e-05
2.251587301587301582e+00,2.277794354806633375e-06,-1.847753771378563367e-05
2.252380952380952372e+00,2.531298630373317617e-06,-1.380896426886384213e-05
2.253174603174603163e+00,2.610510246842510996e-06,-5.800322854228406958e-06
2.253968253968253954e+00,2.546939085583166015e-06,5.674438966170553832e-06
2.254761904761904745e+00,2.386934182086219143e-06,1.986374768264004016e-05
2.255555555555555536e+00,2.177842970562229076e-06,3.507756531697665798e-05
2.256349206349206327e+00,1.952201424727972092e-06,4.891370341091324728e-05
2.257142857142857117e+00,1.714328471251212699e-06,5.873718893457071017e-05
2.257936507936507908e+00,1.434470745698900287e-06,6.228801462465802209e-05
2.258730158730158699e+00,1.053939561599733230e-06,5.824744737963774371e-05
2.259523809523809490e+00,5.012618844891963430e-07,4.660567684819336988e-05
2.260317460317460281e+00,-2.844313439741247497e-07,2.873341740529457389e-05
2.261111111111111072e+00,-1.329504244561061578e-06,7.143736452315413454e-06
2.261904761904761862e+00,-2.608983433142933705e-06,-1.499177740745064024e-05
2.262698412698412653e+00,-4.042090883318536778e-06,-3.445932554969613146e-05
2.263492063492063444e+00,-5.500528920381486680e-06,-4.861943991667895477e-05
2.264285714285714235e+00,-6.825399075145189963e-06,-5.588746675219555059e-05
2.265079365079365026e+00,-7.847826090111843125e-06,-5.595129174971360788e-05
2.265873015873015817e+00,-8.410997032165313571e-06,-4.965002473510879828e-05
2.266666666666666607e+00,-8.393692871105600306e-06,-3.854932571561567241e-05
2.267460317460317398e+00,-7.734467309435148901e-06,-2.438523355729435875e-05
2.268253968253968189e+00,-6.451850029649087176e-06,-8.620994016938861082e-06
2.269047619047618980e+00,-4.652284992153824673e-06,7.692858931904260041e-06
2.269841269841269771e+00,-2.517546944068850722e-06,2.372566761064609443e-05
2.270634920634920562e+00,-2.693405656257565349e-07,3.849144065557872534e-05
2.271428571428571352e+00,1.881037919145702673e-06,5.054618575115508528e-05
2.272222222222222143e+00,3.781636718393085471e-06,5.798782294280442916e-05
2.273015873015872934e+00,5.370048596969309706e-06,5.884333698632232280e-05
2.273809523809523725e+00,6.674659257875016089e-06,5.173299846120650775e-05
2.274603174603174516e+00,7.787515886506841441e-06,3.655632259641546241e-05
2.275396825396825307e+00,8.818524780918652161e-06,1.491818264155808183e-05
2.276190476190476097e+00,9.845305492344945286e-06,-9.894493277388735557e-06
2.276984126984126888e+00,1.087270595505452753e-05,-3.342289592942305034e-05
2.277777777777777679e+00,1.181146287153770838e-05,-5.092573989529761575e-05
2.278571428571428470e+00,1.247857221556950340e-05,-5.844156449112189450e-05
2.279365079365079261e+00,1.261596774752224324e-05,-5.377351998575690122e-05
2.280158730158730052e+00,1.192308190970989805e-05,-3.715038608182596205e-05
2.280952380952380842e+00,1.010377674360085866e-05,-1.136854833010598273e-05
2.281746031746031633e+00,6.933045612928393232e-06,1.867345207120463417e-05
2.282539682539682424e+00,2.344158344565270001e-06,4.697629132016613638e-05
2.283333333333333215e+00,-3.480167590642561848e-06,6.773759883838258731e-05
2.284126984126984006e+00,-1.004931066579889068e-05,7.660747106234938575e-05
2.284920634920634797e+00,-1.658398015007441539e-05,7.158698177177038246e-05
2.285714285714285587e+00,-2.214064557157424733e-05,5.338404825507023704e-05
2.286507936507936378e+00,-2.582399178827548547e-05,2.519906793116118835e-05
2.287301587301587169e+00,-2.701989165154974784e-05,-7.969582981212503512e-06
2.288095238095237960e+00,-2.556086964754777032e-05,-4.034268989157151078e-05
2.288888888888888751e+00,-2.176342892142833446e-05,-6.649888407359212401e-05
2.289682539682539542e+00,-1.633369722556604373e-05,-8.240987789125604507e-05
2.290476190476190332e+00,-1.018697259689522166e-05,-8.616436807783822520e-05
2.291269841269841123e+00,-4.243454783319627131e-06,-7.823656896577949374e-05
2.292063492063491914e+00,7.492941987861461969e-07,-6.124942882157665954e-05
2.292857142857142705e+00,4.336296000225835276e-06,-3.928913472349097197e-05
2.293650793650793496e+00,6.400695348880726264e-06,-1.692689150155955597e-05
2.294444444444444287e+00,7.130054053731118833e-06,1.829895770301997477e-06
2.295238095238095077e+00,6.916303489160645320e-06,1.441831131511082425e-05
2.296031746031745868e+00,6.221779536000317395e-06,2.022437222775027216e-05
2.296825396825396659e+00,5.452553312949196286e-06,2.057432624728671019e-05
2.297619047619047450e+00,4.872655540734656271e-06,1.818738550770529784e-05
2.298412698412698241e+00,4.574993129829156517e-06,1.620999102994256490e-05
2.299206349206349032e+00,4.506715202339879028e-06,1.709976688058775646e-05
2.299999999999999822e+00,4.534135514195080371e-06,2.172002922435753485e-05
2.300793650793650613e+00,4.525485447999117244e-06,2.898361133912467514e-05
2.301587301587301404e+00,4.427172914378918859e-06,3.622267753343545645e-05
2.302380952380952195e+00,4.310162880181362316e-06,4.019448561149420804e-05
2.303174603174602986e+00,4.368418285241662434e-06,3.836000326957543884e-05
2.303968253968253777e+00,4.862328003389684343e-06,2.992256563270507137e-05
2.304761904761904567e+00,6.016667814456679356e-06,1.618515418432307985e-05
2.305555555555555358e+00,7.901362345764943970e-06,7.369593092003457228e-08
2.306349206349206149e+00,1.033626100445029207e-05,-1.495163800539224384e-05
2.307142857142856940e+00,1.285967161424865800e-05,-2.611170359670538801e-05
2.307936507936507731e+00,1.478209149306948873e-05,-3.214728137238494795e-05
2.308730158730158522e+00,1.531901663806582695e-05,-3.349434744974383652e-05
2.309523809523809312e+00,1.377278461407243314e-05,-3.182251640082859391e-05
2.310317460317460103e+00,9.721332271984116187e-06,-2.921208769625345815e-05
2.311111111111110894e+00,3.170051071004532481e-06,-2.732583176410570780e-05
2.311904761904761685e+00,-5.373482869995959865e-06,-2.685155209510613756e-05
2.312698412698412920e+00,-1.493217353982913407e-05,-2.734081166125362864e-05
2.313492063492063711e+00,-2.420698082639433806e-05,-2.743511292308463436e-05
2.314285714285714501e+00,-3.181222691369207315e-05,-2.538036496251822903e-05
2.315079365079365292e+00,-3.654034493615349185e-05,-1.967155358251562475e-05
2.315873015873016083e+00,-3.758960067638389267e-05,-9.637543004252979291e-06
2.316666666666666874e+00,-3.470749785152337836e-05,4.213307044282972212e-06
2.317460317460317665e+00,-2.823292164515933366e-05,2.019938939947457676e-05
2.318253968253968456e+00,-1.904029408166315953e-05,3.582757698523221713e-05
2.319047619047619246e+00,-8.394886739563468494e-06,4.840031652878545914e-05
2.319841269841270037e+00,2.265054242144854445e-06,5.568298406968908505e-05
2.320634920634920828e+00,1.158483426441696660e-05,5.644078900091466006e-05
2.321428571428571619e+00,1.853204861747479357e-05,5.071653932716958758e-05
2.322222222222222410e+00,2.255695527355208681e-05,3.980993500077429200e-05
2.323015873015873201e+00,2.363671372151088994e-05,2.598765452593931074e-05
2.323809523809523991e+00,2.220402317990779131e-05,1.198762344291989760e-05
2.324603174603174782e+00,1.899402271444206034e-05,4.046864898199565616e-07
2.325396825396825573e+00,1.485882178486000883e-05,-6.916755626424773649e-06
2.326190476190476364e+00,1.059653389962577814e-05,-9.317841285528187417e-06
2.326984126984127155e+00,6.827494035624690953e-06,-7.433636154147659796e-06
2.327777777777777946e+00,3.931366005036899711e-06,-2.921593956670686407e-06
2.328571428571428736e+00,2.041464690597075520e-06,2.085651296197487566e-06
2.329365079365079527e+00,1.081742018007239073e-06,5.585237464799655710e-06
2.330158730158730318e+00,8.288255180302000448e-07,6.156963779041478026e-06
2.330952380952381109e+00,9.838358230451517688e-07,3.167124647783277488e-06
2.331746031746031900e+00,1.242828344702503392e-06,-3.245252992355350888e-06
2.332539682539682691e+00,1.358209238698502993e-06,-1.230322994717076153e-05
2.333333333333333481e+00,1.185671828439702654e-06,-2.276683225114046905e-05
2.334126984126984272e+00,7.123680085127751572e-07,-3.312453582991815203e-05
2.334920634920635063e+00,6.291380381264553064e-08,-4.181903845006894858e-05
2.335714285714285854e+00,-5.185885155001202805e-07,-4.751430387624214826e-05
2.336507936507936645e+00,-7.094938127192929076e-07,-4.936225245890036906e-05
2.337301587301587436e+00,-1.679417289732752161e-07,-4.718846156502846283e-05
2.338095238095238226e+00,1.397229290280793636e-06,-4.152330574914708534e-05
2.338888888888889017e+00,4.156210963421630314e-06,-3.345578957088553822e-05
2.339682539682539808e+00,8.099693907179161611e-06,-2.435122110880517916e-05
2.340476190476190599e+00,1.300513467826966905e-05,-1.551945584558919955e-05
2.341269841269841390e+00,1.843951469072070809e-05,-7.932244118411659070e-06
2.342063492063492181e+00,2.380512345174538792e-05,-2.066301671344534721e-06
2.342857142857142971e+00,2.842590967109393093e-05,2.096660129770267913e-06
2.343650793650793762e+00,3.166138874856752399e-05,4.933229008715323379e-06
2.344444444444444553e+00,3.302682120667635533e-05,6.964297877372658280e-06
2.345238095238095344e+00,3.229523283968926267e-05,8.638816380364852565e-06
2.346031746031746135e+00,2.955869867437948057e-05,1.018177356008443848e-05
2.346825396825396925e+00,2.523144742205616741e-05,1.154587803988684299e-05
2.347619047619047716e+00,1.998538770665381900e-05,1.247046056919719677e-05
2.348412698412698507e+00,1.462087955225126682e-05,1.261835225503041387e-05
2.349206349206349298e+00,9.892253524741835373e-06,1.174175700272119228e-05
2.350000000000000089e+00,6.325249880419872232e-06,9.824091428935699004e-06
2.350793650793650880e+00,4.074575125369043148e-06,7.153354650383707210e-06
2.351587301587301670e+00,2.865921646011179477e-06,4.300522648354366975e-06
2.352380952380952461e+00,2.045678537031242518e-06,2.001739418932223587e-06
2.353174603174603252e+00,7.301684102511348751e-07,9.718048132766779610e-07
2.353968253968254043e+00,-1.982762804310588832e-06,1.701032769213949582e-06
2.354761904761904834e+00,-6.792742811968592091e-06,4.299193204981660974e-06
2.355555555555555625e+00,-1.401767235605644008e-05,8.442480257285869295e-06
2.356349206349206415e+00,-2.349129266258833610e-05,1.345020877823972204e-05
2.357142857142857206e+00,-3.455026616860017397e-05,1.847313038035551993e-05
2.357936507936507997e+00,-4.610562509161545244e-05,2.273203945402061548e-05
2.358730158730158788e+00,-5.678542899769493821e-05,2.572559740307524937e-05
2.359523809523809579e+00,-6.513348028888321011e-05,2.734044271019090019e-05
2.360317460317460370e+00,-6.984354022811764052e-05,2.783508341017681332e-05
2.361111111111111160e+00,-6.999549961073910163e-05,2.771207347190458395e-05
2.361904761904761951e+00,-6.524697999862266262e-05,2.752564850226051971e-05
2.362698412698412742e+00,-5.593372118136668138e-05,2.768773662969498697e-05
2.363492063492063533e+00,-4.304987060358243795e-05,2.833154952322489137e-05
2.364285714285714324e+00,-2.810770111322909908e-05,2.926994191526279072e-05
2.365079365079365115e+00,-1.290384754103975252e-05,3.005296093924004146e-05
2.365873015873015905e+00,7.615264091307903712e-07,3.009836224362260568e-05
2.366666666666666696e+00,1.135811479918591838e-05,2.885178742253179942e-05
2.367460317460317487e+00,1.784129161003989147e-05,2.593193972020531649e-05
2.368253968253968278e+00,1.977660139860306192e-05,2.122376167144775217e-05
2.369047619047619069e+00,1.736334818020986948e-05,1.489496340185302424e-05
2.369841269841269860e+00,1.137200096452246372e-05,7.332853146104804019e-06
2.370634920634920650e+00,3.025575424849481390e-06,-9.689992701174769652e-07
2.371428571428571441e+00,-6.144099567330954391e-06,-9.517518742468116514e-06
2.372222222222222232e+00,-1.444715035211603911e-05,-1.786786436269734334e-05
2.373015873015873023e+00,-2.019324283752125848e-05,-2.560270082888875751e-05
2.373809523809523814e+00,-2.186671590000180998e-05,-3.228807667109267880e-05
2.374603174603174605e+00,-1.832551436863684400e-05,-3.747494843193894973e-05
2.375396825396825395e+00,-9.010929892992466811e-06,-4.078720809086715005e-05
2.376190476190476186e+00,5.868723099973546917e-06,-4.207402932474807824e-05
2.376984126984126977e+00,2.523250653757089229e-05,-4.154866574341395846e-05
2.377777777777777768e+00,4.714846152309461994e-05,-3.982201832729823538e-05
2.378571428571428559e+00,6.900897587171198511e-05,-3.777358232107726215e-05
2.379365079365079350e+00,8.785035247030270817e-05,-3.626805015899170525e-05
2.380158730158730140e+00,1.007694836153701188e-04,-3.579654153873337207e-05
2.380952380952380931e+00,1.053648939221462559e-04,-3.616873234154698691e-05
2.381746031746031722e+00,1.001235717812789980e-04,-3.638472921667687933e-05
2.382539682539682513e+00,8.468827977420358686e-05,-3.477042799176109173e-05
2.383333333333333304e+00,5.996506145731531713e-05,-2.938360060758551275e-05
2.384126984126984095e+00,2.805781438213495943e-05,-1.861430337188457458e-05
2.384920634920634885e+00,-7.961097725812121641e-06,-1.833268419343088988e-06
2.385714285714285676e+00,-4.441897909422388947e-05,2.009837250642422516e-05
2.386507936507936467e+00,-7.750890865430262906e-05,4.464078373953875528e-05
2.387301587301587258e+00,-1.037939802762439270e-04,6.783188204371171895e-05
2.388095238095238049e+00,-1.206718622702830179e-04,8.499882443705539649e-05
2.388888888888888840e+00,-1.267171733410600251e-04,9.179310563925163931e-05
2.389682539682539630e+00,-1.218371701525798573e-04,8.529506623215307877e-05
2.390476190476190421e+00,-1.072147912759156471e-04,6.488197213174069777e-05
2.391269841269841212e+00,-8.505944977100552795e-05,3.260344892830254479e-05
2.392063492063492003e+00,-5.822471620576781195e-05,-7.053640568108087644e-06
2.392857142857142794e+00,-2.977271256553416792e-05,-4.795864127329129496e-05
2.393650793650793585e+00,-2.564524229619721365e-06,-8.350496838990848316e-05
2.394444444444444375e+00,2.106285410241755433e-05,-1.079091666383939606e-04
2.395238095238095166e+00,3.950162055415766792e-05,-1.173907002743233098e-04
2.396031746031745957e+00,5.195648619866217712e-05,-1.109900313519275166e-04
2.396825396825396748e+00,5.841837460919919940e-05,-9.080308627236889207e-05
2.397619047619047539e+00,5.954470685802253809e-05,-6.148701701461104982e-05
2.398412698412698330e+00,5.646507291373588984e-05,-2.907179500446614864e-05
2.399206349206349120e+00,5.054278617573104736e-05,6.315056790404400699e-07
2.399999999999999911e+00,4.314023971661924586e-05,2.352659666828066221e-05
2.400793650793650702e+00,3.544104783416410128e-05,3.811547949357041529e-05
2.401587301587301493e+00,2.835974927939222142e-05,4.547380184494854923e-05
2.402380952380952284e+00,2.252825228074211569e-05,4.839177124787011135e-05
2.403174603174603075e+00,1.831588714752110432e-05,5.008766081655128296e-05
2.403968253968253865e+00,1.584144097785416703e-05,5.302042234840014678e-05
2.404761904761904656e+00,1.496767454657398051e-05,5.818843407668139103e-05
2.405555555555555447e+00,1.530294503166492937e-05,6.502740715778499857e-05
2.406349206349206238e+00,1.624392139871023579e-05,7.179162303112857784e-05
2.407142857142857029e+00,1.707570426210949452e-05,7.620480448784769443e-05
2.407936507936507819e+00,1.711762743616708764e-05,7.616639781091473211e-05
2.408730158730158610e+00,1.588096606775488330e-05,7.033475928335221003e-05
2.409523809523809401e+00,1.319657147842908834e-05,5.846170651018306816e-05
2.410317460317460192e+00,9.277039282121044665e-06,4.142563225766614807e-05
2.411111111111110983e+00,4.694581554506775279e-06,2.098947788867122681e-05
2.411904761904761774e+00,2.748603298967983992e-07,-6.270087495228060621e-07
2.412698412698412564e+00,-3.076108162604456089e-06,-2.123658983235888665e-05
2.413492063492063355e+00,-4.581295898162641997e-06,-3.910795329137026422e-05
2.414285714285714146e+00,-3.797766133971790049e-06,-5.322219078922967007e-05
2.415079365079364937e+00,-7.726310426217096617e-07,-6.331072353272417376e-05
2.415873015873015728e+00,3.892269301999195968e-06,-6.968314499197372596e-05
2.416666666666666519e+00,9.097942074483064277e-06,-7.290914526209293868e-05
2.417460317460317309e+00,1.343813927150824515e-05,-7.345742881105442562e-05
2.418253968253968100e+00,1.549926539412954652e-05,-7.140929103502560813e-05
2.419047619047618891e+00,1.420755154926582989e-05,-6.635173999660694841e-05
2.419841269841269682e+00,9.128965247025738793e-06,-5.751276019825008053e-05
2.420634920634920473e+00,6.286717069721087689e-07,-4.413165586115342683e-05
2.421428571428571264e+00,-1.015989380446232825e-05,-2.597259908088961350e-05
2.422222222222222054e+00,-2.154335208505237374e-05,-3.816130150158952589e-06
2.423015873015872845e+00,-3.159393214979337559e-05,2.026443924590077831e-05
2.423809523809523636e+00,-3.851643336362129636e-05,4.299490735002335818e-05
2.424603174603174427e+00,-4.098515875659749629e-05,6.041225792521502338e-05
2.425396825396825218e+00,-3.838832335795382226e-05,6.871853012062205705e-05
2.426190476190476009e+00,-3.093104180768516126e-05,6.528158784921388733e-05
2.426984126984126799e+00,-1.957504772000906418e-05,4.952176091821279991e-05
2.427777777777777590e+00,-5.834228630601997187e-06,2.342595767631691403e-05
2.428571428571428381e+00,8.513525407089867910e-06,-8.500329931382681866e-06
2.429365079365079172e+00,2.171565777195119990e-05,-3.991388844405987336e-05
2.430158730158729963e+00,3.226408753031325338e-05,-6.387034842936101654e-05
2.430952380952380754e+00,3.901362138551897483e-05,-7.438685104071985894e-05
2.431746031746031544e+00,4.121880584373296058e-05,-6.797744315225590192e-05
2.432539682539682335e+00,3.854075970195146680e-05,-4.475411698873706947e-05
2.433333333333333126e+00,3.107360998992631250e-05,-8.738500045489934354e-06
2.434126984126983917e+00,1.940428099945743938e-05,3.280285461373066947e-05
2.434920634920634708e+00,4.666893329331677768e-06,7.092883124944405647e-05
2.435714285714285499e+00,-1.148740563090662913e-05,9.714392323589372878e-05
2.436507936507936289e+00,-2.708068085742779493e-05,1.054957451533897216e-04
2.437301587301587080e+00,-4.016745849572720772e-05,9.403375614487497077e-05
2.438095238095238315e+00,-4.926538416556570216e-05,6.519544588815529809e-05
2.438888888888889106e+00,-5.368444722640712183e-05,2.503855270109479116e-05
2.439682539682539897e+00,-5.360707328176089178e-05,-1.839199582667622721e-05
2.440476190476190688e+00,-4.989454745942273220e-05,-5.703937759226487630e-05
2.441269841269841478e+00,-4.373349159001464265e-05,-8.459532254318387877e-05
2.442063492063492269e+00,-3.629332248956619920e-05,-9.762445108307764145e-05
2.442857142857143060e+00,-2.851420423400411700e-05,-9.586254956325443964e-05
2.443650793650793851e+00,-2.104398081966322808e-05,-8.174590085083679547e-05
2.444444444444444642e+00,-1.427244787560024233e-05,-5.942182458847626190e-05
2.445238095238095433e+00,-8.400462401799419277e-06,-3.358231029727145022e-05
2.446031746031746223e+00,-3.503601375920894873e-06,-8.440015813264831792e-06
2.446825396825397014e+00,4.267325278912934017e-07,1.294562811405407237e-05
2.447619047619047805e+00,3.467291214506293963e-06,2.892978546983783681e-05
2.448412698412698596e+00,5.765053622250170102e-06,3.918879686525205232e-05
2.449206349206349387e+00,7.544174450302220487e-06,4.439196334249127037e-05
2.450000000000000178e+00,9.103295372059446773e-06,4.576642748399993522e-05
2.450793650793650968e+00,1.079270054125957512e-05,4.466186807283129370e-05
2.451587301587301759e+00,1.296803301279150070e-05,4.219492777809063041e-05
2.452380952380952550e+00,1.592517439355277135e-05,3.902843891438207292e-05
2.453174603174603341e+00,1.982760571339636609e-05,3.531319009401881259e-05
2.453968253968254132e+00,2.464202046433784782e-05,3.078741696353740938e-05
2.454761904761904923e+00,3.009921524847560984e-05,2.499576605279588796e-05
2.455555555555555713e+00,3.569426072634517759e-05,1.756175960882981293e-05
2.456349206349206504e+00,4.073234422961621550e-05,8.432200413096001910e-06
2.457142857142857295e+00,4.441645395678321846e-05,-1.983049170967550667e-06
2.457936507936508086e+00,4.596407009225382827e-05,-1.282045973887488145e-05
2.458730158730158877e+00,4.473493359643171868e-05,-2.291352527494226155e-05
2.459523809523809668e+00,4.035036433717078267e-05,-3.102714621466575427e-05
2.460317460317460458e+00,3.278477597730665167e-05,-3.609665800421663296e-05
2.461111111111111249e+00,2.241184191710001404e-05,-3.740709951839522288e-05
2.461904761904762040e+00,9.992475317766244400e-06,-3.468364754690492484e-05
2.462698412698412831e+00,-3.400109957316453071e-06,-2.809714784452866483e-05
2.463492063492063622e+00,-1.651231797157839935e-05,-1.820714617176867606e-05
2.464285714285714413e+00,-2.808136130201762231e-05,-5.869931663014937947e-06
2.465079365079365203e+00,-3.701764627463699102e-05,7.864300767479855342e-06
2.465873015873015994e+00,-4.256483848264476733e-05,2.185041154091784573e-05
2.466666666666666785e+00,-4.440638832798303877e-05,3.494086564116548620e-05
2.467460317460317576e+00,-4.269774550742961460e-05,4.607808575769334737e-05
2.468253968253968367e+00,-3.801972840161006826e-05,5.439229849936471533e-05
2.469047619047619158e+00,-3.126572441254123750e-05,5.930064123578324034e-05
2.469841269841269948e+00,-2.348820240829086530e-05,6.058867949738395438e-05
2.470634920634920739e+00,-1.573544084040100240e-05,5.844204860119949499e-05
2.471428571428571530e+00,-8.907881421901884395e-06,5.339203204666704368e-05
2.472222222222222321e+00,-3.656940517073163739e-06,4.615698506403278145e-05
2.473015873015873112e+00,-3.382508450088432848e-07,3.740749844803245832e-05
2.473809523809523903e+00,9.831725367736403710e-07,2.753936400643678038e-05
2.474603174603174693e+00,4.926506095940399222e-07,1.656572816864350381e-05
2.475396825396825484e+00,-1.425623736939042831e-06,4.206739768125638008e-06
2.476190476190476275e+00,-4.232272451503562175e-06,-9.833680693390759725e-06
2.476984126984127066e+00,-7.264514814737355969e-06,-2.551418738368281284e-05
2.477777777777777857e+00,-9.768125469784546137e-06,-4.218737093023120665e-05
2.478571428571428648e+00,-1.095002709409364162e-05,-5.854720390206307422e-05
2.479365079365079438e+00,-1.006754930497703883e-05,-7.282975530547990703e-05
2.480158730158730229e+00,-6.554260195004175661e-06,-8.320436237063050299e-05
2.480952380952381020e+00,-1.611289615311622684e-07,-8.823035376923847291e-05
2.481746031746031811e+00,8.924627099689755243e-06,-8.723785619245439662e-05
2.482539682539682602e+00,2.002388724016423304e-05,-8.051483918224261178e-05
2.483333333333333393e+00,3.200153351653733247e-05,-6.924438241074693835e-05
2.484126984126984183e+00,4.339886101138857699e-05,-5.521975004385950761e-05
2.484920634920634974e+00,5.264232672769658975e-05,-4.043266243670465401e-05
2.485714285714285765e+00,5.829003047513310425e-05,-2.665349109202577282e-05
2.486507936507936556e+00,5.926932664059628267e-05,-1.510477215579816645e-05
2.487301587301587347e+00,5.506092668388775860e-05,-6.292433040164544291e-06
2.488095238095238138e+00,4.579470227148665934e-05,-1.652670865034582134e-08
2.488888888888888928e+00,3.223845080443473501e-05,4.458796240305284547e-06
2.489682539682539719e+00,1.568158340483409395e-05,8.130557787821092564e-06
2.490476190476190510e+00,-2.262223140351823815e-06,1.195052151622383258e-05
2.491269841269841301e+00,-1.989203274717147226e-05,1.656060385837103570e-05
2.492063492063492092e+00,-3.564893534322420045e-05,2.212910638356760905e-05
2.492857142857142883e+00,-4.829755193389190948e-05,2.832146901578289536e-05
2.493650793650793673e+00,-5.703587877610547826e-05,3.440727126259310792e-05
2.494444444444444464e+00,-6.152775221822035217e-05,3.947212263842062935e-05
2.495238095238095255e+00,-6.186749259464012247e-05,4.267631528445541992e-05
2.496031746031746046e+00,-5.849610493616827224e-05,4.348856956715300471e-05
2.496825396825396837e+00,-5.209184945194641174e-05,4.182777163340490239e-05
2.497619047619047628e+00,-4.345641760284208930e-05,3.807019327117412965e-05
2.498412698412698418e+00,-3.341388288568232148e-05,3.292034437701564308e-05
2.499206349206349209e+00,-2.273404754747450547e-05,2.718830197447124421e-05
2.500000000000000000e+00,-1.208463751230365539e-05,2.154831472543829800e-05
2.500793650793650791e+00,-2.009517822527614756e-06,1.635947102449810593e-05
2.501587301587301582e+00,7.074148933962599694e-06,1.160682381618312808e-05
2.502380952380952372e+00,1.486677352137480751e-05,6.980096490954324984e-06
2.503174603174603163e+00,2.117006996192792264e-05,2.062523477280042733e-06
2.503968253968253954e+00,2.586765797624363095e-05,-3.432576178455760638e-06
2.504761904761904745e+00,2.890780091830575662e-05,-9.458367870137780563e-06
2.505555555555555536e+00,3.029460558370798153e-05,-1.554149965042863550e-05
2.506349206349206327e+00,3.009243675504613333e-05,-2.084524218473203091e-05
2.507142857142857117e+00,2.844388219599564954e-05,-2.437946350442967680e-05
2.507936507936507908e+00,2.559600949880241354e-05,-2.529262583261833447e-05
2.508730158730158699e+00,2.192434419856686739e-05,-2.315234056028561441e-05
2.509523809523809490e+00,1.793978270884817656e-05,-1.812861172999084055e-05
2.510317460317460281e+00,1.426254587078397217e-05,-1.102652600453450585e-05
2.511111111111111072e+00,1.155265541204179513e-05,-3.156875384791247218e-06
2.511904761904761862e+00,1.039935361729694318e-05,3.925527744190784638e-06
2.512698412698412653e+00,1.118824960858734137e-05,8.751711737224557867e-06
2.513492063492063444e+00,1.397775855487383861e-05,1.025429213689152301e-05
2.514285714285714235e+00,1.842044634778471117e-05,7.993737029275085570e-06
2.515079365079365026e+00,2.375886609944612423e-05,2.251121187117982182e-06
2.515873015873015817e+00,2.891090518830067744e-05,-6.014600271960674919e-06
2.516666666666666607e+00,3.263964045377631344e-05,-1.531360438014815921e-05
2.517460317460317398e+00,3.378137789387573804e-05,-2.383382522008948732e-05
2.518253968253968189e+00,3.148801315135573759e-05,-2.967679744991473517e-05
2.519047619047618980e+00,2.543115999637563272e-05,-3.110183011020663311e-05
2.519841269841269771e+00,1.591875739740169891e-05,-2.677018942236278072e-05
2.520634920634920562e+00,3.889881280216347970e-06,-1.598150501440136231e-05
2.521428571428571352e+00,-9.222573204471291890e-06,1.113953089134135530e-06
2.522222222222222143e+00,-2.174277379251592546e-05,2.335782150789028202e-05
2.523015873015872934e+00,-3.206910623721275329e-05,4.852743610613324598e-05
2.523809523809523725e+00,-3.898905437487174073e-05,7.343729066056155946e-05
2.524603174603174516e+00,-4.191751959697006966e-05,9.424762083656272225e-05
2.525396825396825307e+00,-4.099867040817752918e-05,1.069947100195199570e-04
2.526190476190476097e+00,-3.704385663831887145e-05,1.082939938660804595e-04
2.526984126984126888e+00,-3.132009004492361667e-05,9.609094955499494621e-05
2.527777777777777679e+00,-2.524278184005379860e-05,7.027657306860457650e-05
2.528571428571428470e+00,-2.005107512165654713e-05,3.297767856913713197e-05
2.529365079365079261e+00,-1.654711112493818603e-05,-1.160448365988622743e-05
2.530158730158730052e+00,-1.496133214312037147e-05,-5.781510310418093559e-05
2.530952380952380842e+00,-1.496993823131923899e-05,-9.950456846202296595e-05
2.531746031746031633e+00,-1.584804094476519517e-05,-1.311130446474563624e-04
2.532539682539682424e+00,-1.670573971639727334e-05,-1.486442136351791494e-04
2.533333333333333215e+00,-1.673616017440409539e-05,-1.503283189027108805e-04
2.534126984126984006e+00,-1.540986734270310591e-05,-1.368499422774294269e-04
2.534920634920634797e+00,-1.257447008889226998e-05,-1.111078508712771550e-04
2.535714285714285587e+00,-8.449964950500654605e-06,-7.756958359064224421e-05
2.536507936507936378e+00,-3.537761622282978617e-06,-4.136966355849541922e-05
2.537301587301587169e+00,1.521877489888302685e-06,-7.357006352406302429e-06
2.538095238095237960e+00,6.103662547233580649e-06,2.069791742618851731e-05
2.538888888888888751e+00,9.725640627697416216e-06,4.057980620724421230e-05
2.539682539682539542e+00,1.212605906621616386e-05,5.172865542430205450e-05
2.540476190476190332e+00,1.327809773383489085e-05,5.500411309610748849e-05
2.541269841269841123e+00,1.334820947064245098e-05,5.222673647011239070e-05
2.542063492063491914e+00,1.261692099311798797e-05,4.563548729808604399e-05
2.542857142857142705e+00,1.138806499375531011e-05,3.738720930919309883e-05
2.543650793650793496e+00,9.912316587568056799e-06,2.918579758315584089e-05
2.544444444444444287e+00,8.343508635614229241e-06,2.208351941168344186e-05
2.545238095238095077e+00,6.733942946216947748e-06,1.645663193490477786e-05
2.546031746031745868e+00,5.062889535498866085e-06,1.212688542466947150e-05
2.546825396825396659e+00,3.284878632407044308e-06,8.580162223554368983e-06
2.547619047619047450e+00,1.381741797449138946e-06,5.222858492972983563e-06
2.548412698412698241e+00,-5.968168226347055897e-07,1.615243687403040918e-06
2.549206349206349032e+00,-2.515726831956324690e-06,-2.369746620074256065e-06
2.549999999999999822e+00,-4.165562646331507310e-06,-6.490505463818581073e-06
2.550793650793650613e+00,-5.299854418781847303e-06,-1.017552415574796470e-05
2.551587301587301404e+00,-5.689272263034145347e-06,-1.261507543084989058e-05
2.552380952380952195e+00,-5.178585271465670229e-06,-1.285728250964320261e-05
2.553174603174602986e+00,-3.732138906410221142e-06,-9.892747169399714491e-06
2.553968253968253777e+00,-1.457945033790729857e-06,-2.764698345184863041e-06
2.554761904761904567e+00,1.393681946502950418e-06,9.230967561790400926e-06
2.555555555555555358e+00,4.457034199425344291e-06,2.622952215711344819e-05
2.556349206349206149e+00,7.301646269939646389e-06,4.743637403352536170e-05
2.557142857142856940e+00,9.502695762695881788e-06,7.088508997949805133e-05
2.557936507936507731e+00,1.072338092861061754e-05,9.349081806461717419e-05
2.558730158730158522e+00,1.079664328802222911e-05,1.114856769483126123e-04
2.559523809523809312e+00,9.789531102186129131e-06,1.211736933236012083e-04
2.560317460317460103e+00,8.032421078679787956e-06,1.198039676772380947e-04
2.561111111111110894e+00,6.099011588322903009e-06,1.062937411360760740e-04
2.561904761904761685e+00,4.730921663696179991e-06,8.157222793987461442e-05
2.562698412698412920e+00,4.710114212016342979e-06,4.844527195663829488e-05
2.563492063492063711e+00,6.691706304793499430e-06,1.103530701520115653e-05
2.564285714285714501e+00,1.102034457219157649e-05,-2.603605107143668415e-05
2.565079365079365292e+00,1.756552751839308838e-05,-5.851035256935137292e-05
2.565873015873016083e+00,2.562073896325847228e-05,-8.320124620975854590e-05
2.566666666666666874e+00,3.391101598022364230e-05,-9.840985206048998024e-05
2.567460317460317665e+00,4.073844549966964082e-05,-1.039947335014201462e-04
2.568253968253968456e+00,4.426456559168582639e-05,-1.011391350791021821e-04
2.569047619047619246e+00,4.288863888971124975e-05,-9.192568349460127422e-05
2.569841269841270037e+00,3.564388612217578946e-05,-7.884701303877199264e-05
2.570634920634920828e+00,2.251462757560589468e-05,-6.435530898383151144e-05
2.571428571428571619e+00,4.584381473099792045e-06,-5.051065459605940744e-05
2.572222222222222410e+00,-1.604290735858072322e-05,-3.875165850450622220e-05
2.573015873015873201e+00,-3.655710874204293350e-05,-2.979086556442811978e-05
2.573809523809523991e+00,-5.394414594447504205e-05,-2.362754311618323489e-05
2.574603174603174782e+00,-6.557618547134966053e-05,-1.966388081958849211e-05
2.575396825396825573e+00,-6.975213668876870793e-05,-1.690333014563225503e-05
2.576190476190476364e+00,-6.604391538138868086e-05,-1.420203473632622070e-05
2.576984126984127155e+00,-5.534361985674952152e-05,-1.053811208728252643e-05
2.577777777777777946e+00,-3.959282555295785973e-05,-5.260170838476695254e-06
2.578571428571428736e+00,-2.127882360624282885e-05,1.724652252316687399e-06
2.579365079365079527e+00,-2.858228516388642971e-06,9.862302394376528595e-06
2.580158730158730318e+00,1.371764733474835163e-05,1.799695401974001625e-05
2.580952380952381109e+00,2.725140998752573090e-05,2.456645631180069748e-05
2.581746031746031900e+00,3.728677692513723650e-05,2.793196505987495705e-05
2.582539682539682691e+00,4.388963058777537563e-05,2.678391171788881831e-05
2.583333333333333481e+00,4.733914798971729118e-05,2.053111623031209483e-05
2.584126984126984272e+00,4.785930437791012786e-05,9.565674161979477062e-06
2.584920634920635063e+00,4.548842130613060965e-05,-4.687663884655780415e-06
2.585714285714285854e+00,4.012100170622694736e-05,-1.998083806079759309e-05
2.586507936507936645e+00,3.168651886857258668e-05,-3.368276996101236099e-05
2.587301587301587436e+00,2.037673026954251918e-05,-4.335017199343739252e-05
2.588095238095238226e+00,6.812684985739904527e-06,-4.728045228974958597e-05
2.588888888888889017e+00,-7.934717624547145173e-06,-4.489372965740166349e-05
2.589682539682539808e+00,-2.249436657994318065e-05,-3.683366142347374188e-05
2.590476190476190599e+00,-3.546269410892147650e-05,-2.475606357988525800e-05
2.591269841269841390e+00,-4.568670709834392346e-05,-1.086783536196636909e-05
2.592063492063492181e+00,-5.246013763010559764e-05,2.643900716102513282e-06
2.592857142857142971e+00,-5.558146883086894518e-05,1.412047730349656723e-05
2.593650793650793762e+00,-5.529509866044243749e-05,2.273356260755642262e-05
2.594444444444444553e+00,-5.218772802222829095e-05,2.851228088258390942e-05
2.595238095238095344e+00,-4.710770193912858212e-05,3.212262332447181942e-05
2.596031746031746135e+00,-4.111765021375088955e-05,3.450210900628087891e-05
2.596825396825396925e+00,-3.542418346653722848e-05,3.648315040889631887e-05
2.597619047619047716e+00,-3.121050061944244028e-05,3.851943953413340227e-05
2.598412698412698507e+00,-2.935309477199638773e-05,4.057734099582048948e-05
2.599206349206349298e+00,-3.009705956600124035e-05,4.219441907608310384e-05
2.600000000000000089e+00,-3.282763486201642164e-05,4.266088194204040944e-05
2.600793650793650880e+00,-3.606564046661440970e-05,4.125612786912511164e-05
2.601587301587301670e+00,-3.774159426796177468e-05,3.747134436287990084e-05
2.602380952380952461e+00,-3.570608052544088889e-05,3.116481989637008429e-05
2.603174603174603252e+00,-2.834540655924118192e-05,2.262091203146958981e-05
2.603968253968254043e+00,-1.511716598852934281e-05,1.250821667742673963e-05
2.604761904761904834e+00,3.174044859128084308e-06,1.753272128189733811e-06
2.605555555555555625e+00,2.446347009848834776e-05,-8.637319844884741018e-06
2.606349206349206415e+00,4.585603638680589073e-05,-1.776212206359367929e-05
2.607142857142857206e+00,6.426822828943747252e-05,-2.497070433587691776e-05
2.607936507936507997e+00,7.709851299496386337e-05,-2.993409103071471296e-05
2.608730158730158788e+00,8.275906775059301652e-05,-3.262822728498296891e-05
2.609523809523809579e+00,8.096195181046983598e-05,-3.324948159491657418e-05
2.610317460317460370e+00,7.272351732547027790e-05,-3.210413433433420029e-05
2.611111111111111160e+00,6.010890596335712380e-05,-2.951697527561613244e-05
2.611904761904761951e+00,4.577773664101757921e-05,-2.578510252689395846e-05
2.612698412698412742e+00,3.241889049202729181e-05,-2.117145962078283391e-05
2.613492063492063533e+00,2.218455572989481067e-05,-1.590757988707808580e-05
2.614285714285714324e+00,1.624736884665075798e-05,-1.017555012657862616e-05
2.615079365079365115e+00,1.459139258924316609e-05,-4.068841847659187913e-06
2.615873015873015905e+00,1.609403089869752617e-05,2.431701767899765937e-06
2.616666666666666696e+00,1.887549592140202543e-05,9.420609985285807730e-06
2.617460317460317487e+00,2.082154439138888746e-05,1.695413906135178649e-05
2.618253968253968278e+00,2.014867340211176660e-05,2.489647847819861107e-05
2.619047619047619069e+00,1.587420513432540357e-05,3.279847510667497642e-05
2.619841269841269860e+00,8.068370939061987826e-06,3.988081261174747475e-05
2.620634920634920650e+00,-2.186778555371548247e-06,4.515568286960585634e-05
2.621428571428571441e+00,-1.311825547979967809e-05,4.766299186183596906e-05
2.622222222222222232e+00,-2.275141202029191419e-05,4.674553469887283888e-05
2.623015873015873023e+00,-2.940445284068916325e-05,4.226700981602030463e-05
2.623809523809523814e+00,-3.204665753135453024e-05,3.469650056384774466e-05
2.624603174603174605e+00,-3.045014409058488696e-05,2.503143796488814605e-05
2.625396825396825395e+00,-2.514123455905365663e-05,1.458408171736554671e-05
2.626190476190476186e+00,-1.720800328085310646e-05,4.693833830597723160e-06
2.626984126984126977e+00,-8.037239089447971712e-06,-3.558145611567018085e-06
2.627777777777777768e+00,9.557646164980119550e-07,-9.561790522404688421e-06
2.628571428571428559e+00,8.562054589847560714e-06,-1.326997966864868869e-05
2.629365079365079350e+00,1.395360454866270724e-05,-1.515365225596336910e-05
2.630158730158730140e+00,1.678176197792628264e-05,-1.604008626969272305e-05
2.630952380952380931e+00,1.718756572684549300e-05,-1.688050284426367896e-05
2.631746031746031722e+00,1.571792665987281338e-05,-1.850157053504684386e-05
2.632539682539682513e+00,1.315559861280773690e-05,-2.138893856584646408e-05
2.633333333333333304e+00,1.029304659532349046e-05,-2.554015706077889206e-05
2.634126984126984095e+00,7.703321553864207543e-06,-3.041511918550955131e-05
2.634920634920634885e+00,5.572715512403598884e-06,-3.500002278069031528e-05
2.635714285714285676e+00,3.650381217613912297e-06,-3.797903896273911901e-05
2.636507936507936467e+00,1.338322858751678293e-06,-3.797959462379979414e-05
2.637301587301587258e+00,-2.098596064448079398e-06,-3.383675086482106358e-05
2.638095238095238049e+00,-7.262275991266679595e-06,-2.482289157132009543e-05
2.638888888888888840e+00,-1.437076057621986672e-05,-1.081087498477403735e-05
2.639682539682539630e+00,-2.310228098707210753e-05,7.632400769043034048e-06
2.640476190476190421e+00,-3.258035020046398813e-05,2.920915380304165711e-05
2.641269841269841212e+00,-4.150576992564659700e-05,5.190641088647520818e-05
2.642063492063492003e+00,-4.840374921405055813e-05,7.308598754490612970e-05
2.642857142857142794e+00,-5.192900374698007236e-05,8.968925167514777807e-05
2.643650793650793585e+00,-5.116033860127207984e-05,9.858594535959073167e-05
2.644444444444444375e+00,-4.581859193594095157e-05,9.705413272292218044e-05
2.645238095238095166e+00,-3.635902365253163617e-05,8.332537487912952169e-05
2.646031746031745957e+00,-2.391923640046736689e-05,5.708747657406598145e-05
2.646825396825396748e+00,-1.013778936194963278e-05,1.981774788738954428e-05
2.647619047619047539e+00,3.115356970788738696e-06,-2.517043548461198553e-05
2.648412698412698330e+00,1.404570223472047214e-05,-7.303765666293966709e-05
2.649206349206349120e+00,2.123189643181559556e-05,-1.180720380128878717e-04
2.649999999999999911e+00,2.387522913241015615e-05,-1.545792079908962465e-04
2.650793650793650702e+00,2.196353745164696491e-05,-1.778333256109760512e-04
2.651587301587301493e+00,1.631161522601736141e-05,-1.848951451539330331e-04
2.652380952380952284e+00,8.450309813527560209e-06,-1.751290500699605711e-04
2.653174603174603075e+00,3.652417834372084066e-07,-1.503048601267381742e-04
2.653968253968253865e+00,-5.873189173700830351e-06,-1.142476743465553542e-04
2.654761904761904656e+00,-8.512080512472617097e-06,-7.210079516835344855e-05
2.655555555555555447e+00,-6.462418037420496219e-06,-2.936973628328990444e-05
2.656349206349206238e+00,4.817397906407669816e-07,9.027637094760112820e-06
2.657142857142857029e+00,1.158612322558085940e-05,3.949945825682109633e-05
2.657936507936507819e+00,2.527788914895938072e-05,6.018147182180339367e-05
2.658730158730158610e+00,3.937859530155025039e-05,7.097198540830559465e-05
2.659523809523809401e+00,5.143324882621481416e-05,7.324711842852981228e-05
2.660317460317460192e+00,5.909800474571459976e-05,6.935454832854158925e-05
2.661111111111110983e+00,6.054080206025904223e-05,6.201285484851382307e-05
2.661904761904761774e+00,5.479385792158287128e-05,5.374913080745056111e-05
2.662698412698412564e+00,4.198513274074340388e-05,4.648591182283103230e-05
2.663492063492063355e+00,2.338170266626473108e-05,4.134142905904052368e-05
2.664285714285714146e+00,1.210028146723326420e-06,3.864673438045832979e-05
2.665079365079364937e+00,-2.172713693516188974e-05,3.812844410057688807e-05
2.665873015873015728e+00,-4.255812108082670186e-05,3.917361994423514056e-05
2.666666666666666519e+00,-5.885626062930486780e-05,4.109061001108137623e-05
2.667460317460317309e+00,-6.904096759824058843e-05,4.330188569236628136e-05
2.668253968253968100e+00,-7.257981132304852287e-05,4.543880083958262440e-05
2.669047619047618891e+00,-6.995983532873546176e-05,4.733825184963720057e-05
2.669841269841269682e+00,-6.245629821146131606e-05,4.895919368520672461e-05
2.670634920634920473e+00,-5.177670776295669505e-05,5.024758230158611535e-05
2.671428571428571264e+00,-3.968111799932264928e-05,5.099189370827069827e-05
2.672222222222222054e+00,-2.766844438499656744e-05,5.072780730620784996e-05
2.673015873015872845e+00,-1.678179327079241153e-05,4.875286532637948365e-05
2.673809523809523636e+00,-7.543011234367621954e-06,4.428087139944431109e-05
2.674603174603174427e+00,5.653940365207095721e-09,3.670424268411839262e-05
2.675396825396825218e+00,6.190670622158935805e-06,2.587075476707492816e-05
2.676190476190476009e+00,1.156591807106675011e-05,1.225626052213489044e-05
2.676984126984126799e+00,1.676981993795238494e-05,-3.054707941137477746e-06
2.677777777777777590e+00,2.239441381595597163e-05,-1.859335647412353808e-05
2.678571428571428381e+00,2.886737141919224994e-05,-3.286209115857503067e-05
2.679365079365079172e+00,3.634663547476596257e-05,-4.469030957184051396e-05
2.680158730158729963e+00,4.463785747012553629e-05,-5.346197147023851090e-05
2.680952380952380754e+00,5.315787409908111346e-05,-5.914376635250987932e-05
2.681746031746031544e+00,6.097088124008578057e-05,-6.212239602761804704e-05
2.682539682539682335e+00,6.691172630459254252e-05,-6.292578872788455663e-05
2.683333333333333126e+00,6.978574587379691302e-05,-6.193753003638891139e-05
2.684126984126983917e+00,6.860673292032664294e-05,-5.921218360965181692e-05
2.684920634920634708e+00,6.281676222960900970e-05,-5.446233852295702280e-05
2.685714285714285499e+00,5.243288359710057965e-05,-4.722450378957925450e-05
2.686507936507936289e+00,3.808556300326794002e-05,-3.714111834095704481e-05
2.687301587301587080e+00,2.094252051526081395e-05,-2.424732721838449893e-05
2.688095238095238315e+00,2.537768520325880069e-06,-9.145400333928060938e-06
2.688888888888889106e+00,-1.545731437456431204e-05,7.007725924101777218e-06
2.689682539682539897e+00,-3.147722058952097098e-05,2.270003220928753357e-05
2.690476190476190688e+00,-4.427849326107279369e-05,3.637966295695389281e-05
2.691269841269841478e+00,-5.309651602692624841e-05,4.677646458588401938e-05
2.692063492063492269e+00,-5.772215608509128395e-05,5.312648218008571429e-05
2.692857142857143060e+00,-5.848797413594155974e-05,5.523781298337799873e-05
2.693650793650793851e+00,-5.616371924012411419e-05,5.339713922286133858e-05
2.694444444444444642e+00,-5.177374355669841799e-05,4.817379864640951824e-05
2.695238095238095433e+00,-4.636553573209409074e-05,4.020904645626821540e-05
2.696031746031746223e+00,-4.077526636456047605e-05,3.007203154107067493e-05
2.696825396825397014e+00,-3.544712864757970519e-05,1.822913554137446792e-05
2.697619047619047805e+00,-3.036074887497041151e-05,5.126498185616260985e-06
2.698412698412698596e+00,-2.509864912724700300e-05,-8.657753100545470637e-06
2.699206349206349387e+00,-1.904553419411116478e-05,-2.226323792949277199e-05
2.700000000000000178e+00,-1.166627693010378226e-05,-3.447679603097620227e-05
2.700793650793650968e+00,-2.778240230080706955e-06,-4.380189820696081776e-05
2.701587301587301759e+00,7.270454935984113158e-06,-4.868950160917536683e-05
2.702380952380952550e+00,1.758001173253018759e-05,-4.789906563974939013e-05
2.703174603174603341e+00,2.685452006418594074e-05,-4.090549925592145780e-05
2.703968253968254132e+00,3.370438836455329304e-05,-2.823258194132653812e-05
2.704761904761904923e+00,3.702302610594816062e-05,-1.158933824181087593e-05
2.705555555555555713e+00,3.633430923948610431e-05,6.281259509329342375e-06
2.706349206349206504e+00,3.199757848619634240e-05,2.206286391766597838e-05
2.707142857142857295e+00,2.518013343950495570e-05,3.256385571849630597e-05
2.707936507936508086e+00,1.756951821620916218e-05,3.549069983618069284e-05
2.708730158730158877e+00,1.088829071732848075e-05,3.008156586092872710e-05
2.709523809523809668e+00,6.359936781278109923e-06,1.739745422229503686e-05
2.710317460317460458e+00,4.313437421464119182e-06,1.511349356432986657e-07
2.711111111111111249e+00,4.078235181305155277e-06,-1.791296841582206553e-05
2.711904761904762040e+00,4.220177679062001838e-06,-3.293496642134911546e-05
2.712698412698412831e+00,3.045273844077145510e-06,-4.189999489493698935e-05
2.713492063492063622e+00,-7.971692858299642120e-07,-4.336820497861126910e-05
2.714285714285714413e+00,-7.813047050753246691e-06,-3.776242050627867127e-05
2.715079365079365203e+00,-1.742711817356606719e-05,-2.713520424369880057e-05
2.715873015873015994e+00,-2.808500794611059652e-05,-1.450224844131902871e-05
2.716666666666666785e+00,-3.765665169742196580e-05,-2.967507805725919313e-06
2.717460317460317576e+00,-4.401063999634984822e-05,5.080770509304840574e-06
2.718253968253968367e+00,-4.557959328242944209e-05,8.477390011395844553e-06
2.719047619047619158e+00,-4.174561710344573039e-05,7.392957761688070881e-06
2.719841269841269948e+00,-3.293935349512492006e-05,3.090647837755012869e-06
2.720634920634920739e+00,-2.044415708029601516e-05,-2.543793233124257210e-06
2.721428571428571530e+00,-5.991900661867513286e-06,-7.542664780104426820e-06
2.722222222222222321e+00,8.705608861767368635e-06,-1.033289371555738575e-05
2.723015873015873112e+00,2.234120409913136911e-05,-1.005762397731347007e-05
2.723809523809523903e+00,3.420718072191531047e-05,-6.701000123728846870e-06
2.724603174603174693e+00,4.416536935144747242e-05,-1.021895793402012422e-06
2.725396825396825484e+00,5.243266122764369966e-05,5.660319141139400149e-06
2.726190476190476275e+00,5.927895431350977074e-05,1.176743751493630568e-05
2.726984126984127066e+00,6.475533420983966605e-05,1.579299470646111064e-05
2.727777777777777857e+00,6.854826972530416612e-05,1.661421881626615275e-05
2.728571428571428648e+00,6.999884294090501409e-05,1.374784115884335462e-05
2.729365079365079438e+00,6.825869565000742948e-05,7.516903035446189933e-06
2.730158730158730229e+00,6.250828793279095076e-05,-9.054828049387551139e-07
2.730952380952381020e+00,5.216071333171899921e-05,-9.610636105809743952e-06
2.731746031746031811e+00,3.701227912789881787e-05,-1.625086094851441743e-05
2.732539682539682602e+00,1.734739761749746188e-05,-1.850723624645144569e-05
2.733333333333333393e+00,-5.979159956961061660e-06,-1.466191442281017450e-05
2.734126984126984183e+00,-3.148752912265801335e-05,-4.147245231735485631e-06
2.734920634920634974e+00,-5.709477415189880109e-05,1.209473627024038464e-05
2.735714285714285765e+00,-8.028043459944030839e-05,3.159605567645034149e-05
2.736507936507936556e+00,-9.842834668773451018e-05,5.076487873389612420e-05
2.737301587301587347e+00,-1.093019604342915344e-04,6.565428449138093847e-05
2.738095238095238138e+00,-1.115319637605755905e-04,7.291583101116105045e-05
2.738888888888888928e+00,-1.049595612654085621e-04,7.067367576092557573e-05
2.739682539682539719e+00,-9.071086428495137770e-05,5.905759156298597500e-05
2.740476190476190510e+00,-7.096406335656616198e-05,4.022616856509955236e-05
2.741269841269841301e+00,-4.847063712625723791e-05,1.786308656249768721e-05
2.742063492063492092e+00,-2.596472698656156425e-05,-3.712909947210033928e-06
2.742857142857142883e+00,-5.619963452045565676e-06,-2.057035773206808706e-05
2.743650793650793673e+00,1.131076252313065302e-05,-3.003523271493993541e-05
2.744444444444444464e+00,2.459612042751112632e-05,-3.119004879204927648e-05
2.745238095238095255e+00,3.486305626305054187e-05,-2.491480315341584975e-05
2.746031746031746046e+00,4.322901461399296759e-05,-1.351910500286591333e-05
2.746825396825396837e+00,5.083545938219087378e-05,-1.064606101503687341e-07
2.747619047619047628e+00,5.841086984035292215e-05,1.215377587032078020e-05
2.748412698412698418e+00,6.598413496812631257e-05,2.068082071336429565e-05
2.749206349206349209e+00,7.282965707817296280e-05,2.393345909469271171e-05
2.750000000000000000e+00,7.765900423179133234e-05,2.158020997569520054e-05
2.750793650793650791e+00,7.899669188700470727e-05,1.437668520626189904e-05
2.751587301587301582e+00,7.561624344389979342e-05,3.810785198461462164e-06
2.752380952380952372e+00,6.689565369835846699e-05,-8.362164436357680323e-06
2.753174603174603163e+00,5.299043848990015062e-05,-2.054813965973723949e-05
2.753968253968253954e+00,3.479924804257090195e-05,-3.158958607342882027e-05
2.754761904761904745e+00,1.377238252173153754e-05,-4.083933811612138430e-05
2.755555555555555536e+00,-8.347269393074808192e-06,-4.806147084198490038e-05
2.756349206349206327e+00,-2.976915004273024000e-05,-5.323662171128948876e-05
2.757142857142857117e+00,-4.884346248684943564e-05,-5.636150562266343275e-05
2.757936507936507908e+00,-6.419188785054279656e-05,-5.731514072546585600e-05
2.758730158730158699e+00,-7.479817555643134192e-05,-5.583033255773805370e-05
2.759523809523809490e+00,-8.007115593691524903e-05,-5.157062083061907359e-05
2.760317460317460281e+00,-7.988091208814004180e-05,-4.428176798505698957e-05
2.761111111111111072e+00,-7.456400302220565432e-05,-3.396933652821891960e-05
2.761904761904761862e+00,-6.489377035763135404e-05,-2.104938193002214896e-05
2.762698412698412653e+00,-5.200972439122731689e-05,-6.425333087223661993e-06
2.763492063492063444e+00,-3.729796069776800669e-05,8.540520595496356299e-06
2.764285714285714235e+00,-2.222162602487070534e-05,2.217042540496377758e-05
2.765079365079365026e+00,-8.118984220032523141e-06,3.271481765424671067e-05
2.765873015873015817e+00,3.993066414215689604e-06,3.865964927416243953e-05
2.766666666666666607e+00,1.356302694624563840e-05,3.904335040993020355e-05
2.767460317460317398e+00,2.055672084025823943e-05,3.371874579727772642e-05
2.768253968253968189e+00,2.539731183637942256e-05,2.349518879008975346e-05
2.769047619047618980e+00,2.879909648158850277e-05,1.011066911509375587e-05
2.769841269841269771e+00,3.152690884123965511e-05,-3.986414877806246758e-06
2.770634920634920562e+00,3.413550396950277828e-05,-1.602485480288527885e-05
2.771428571428571352e+00,3.675629460218785119e-05,-2.340349712255030798e-05
2.772222222222222143e+00,3.899695944129865033e-05,-2.419372449247000803e-05
2.773015873015872934e+00,4.000027635422549722e-05,-1.754764507343334952e-05
2.773809523809523725e+00,3.867219881126444676e-05,-3.925347920391875246e-06
2.774603174603174516e+00,3.403986413688637287e-05,1.491071440316444305e-05
2.775396825396825307e+00,2.565002614562712321e-05,3.614415592298772880e-05
2.776190476190476097e+00,1.388653192865724138e-05,5.636126665542242476e-05
2.776984126984126888e+00,8.919703903291491660e-08,7.213662976752129616e-05
2.777777777777777679e+00,-1.359835834653554462e-05,8.063362919989453675e-05
2.778571428571428470e+00,-2.464589180519275466e-05,8.009641370323159794e-05
2.779365079365079261e+00,-3.072208167951266954e-05,7.013542842566779093e-05
2.780158730158730052e+00,-3.028132544594822284e-05,5.176104712896998516e-05
2.780952380952380842e+00,-2.296943731532000035e-05,2.717905481666908228e-05
2.781746031746031633e+00,-9.722748560319256105e-06,-5.911031232101975177e-07
2.782539682539682424e+00,7.455781614728701864e-06,-2.818887470671436636e-05
2.783333333333333215e+00,2.594921233053498530e-05,-5.238612293526853533e-05
2.784126984126984006e+00,4.305149455001316304e-05,-7.048638705684243057e-05
2.784920634920634797e+00,5.641311563166586019e-05,-8.060272664527175690e-05
2.785714285714285587e+00,6.431406619220358175e-05,-8.180185006583545640e-05
2.786507936507936378e+00,6.575174282711611698e-05,-7.413200382482000551e-05
2.787301587301587169e+00,6.040403103588236664e-05,-5.856490382761581520e-05
2.788095238095237960e+00,4.856226192247058333e-05,-3.687555040132929228e-05
2.788888888888888751e+00,3.110625495273021597e-05,-1.146792270447580394e-05
2.789682539682539542e+00,9.524510547214638432e-06,1.485599455554439865e-05
2.790476190476190332e+00,-1.409093468995247500e-05,3.918286156125740094e-05
2.791269841269841123e+00,-3.717420309459058375e-05,5.881411431231997529e-05
2.792063492063491914e+00,-5.699999440234964206e-05,7.159693694771736576e-05
2.792857142857142705e+00,-7.115443821739718747e-05,7.621005510135890431e-05
2.793650793650793496e+00,-7.804379403871398307e-05,7.234643894137826842e-05
2.794444444444444287e+00,-7.727765016632537191e-05,6.074257232644361139e-05
2.795238095238095077e+00,-6.978592299091096549e-05,4.303483691019493562e-05
2.796031746031745868e+00,-5.760983805342893675e-05,2.147283635549274226e-05
2.796825396825396659e+00,-4.341436893891693471e-05,-1.435470691505510686e-06
2.797619047619047450e+00,-2.986098401471413166e-05,-2.325866510116879769e-05
2.798412698412698241e+00,-1.901925774419058261e-05,-4.189736115638833310e-05
2.799206349206349032e+00,-1.197284598028639316e-05,-5.575209178241914606e-05
2.799999999999999822e+00,-8.706083596600236091e-06,-6.383177770846418947e-05
2.800793650793650613e+00,-8.271685256969548453e-06,-6.582771978950090273e-05
2.801587301587301404e+00,-9.165098676091026813e-06,-6.214470729725466672e-05
2.802380952380952195e+00,-9.786316970224026820e-06,-5.385357194610550832e-05
2.803174603174602986e+00,-8.864160422288822546e-06,-4.253752093403478983e-05
2.803968253968253777e+00,-5.746082316892647091e-06,-3.004222718813086496e-05
2.804761904761904567e+00,-5.022056125716776364e-07,-1.817598879248608947e-05
2.805555555555555358e+00,6.161043701416769846e-06,-8.419739991517252476e-06
2.806349206349206149e+00,1.314248995920207459e-05,-1.700964760048491962e-06
2.807142857142856940e+00,1.927471763172752632e-05,1.727013961319032709e-06
2.807936507936507731e+00,2.364714536659196566e-05,2.275681859529179625e-06
2.808730158730158522e+00,2.582771993518942797e-05,8.822701462237094732e-07
2.809523809523809312e+00,2.591820096938505599e-05,-1.227878681458881145e-06
2.810317460317460103e+00,2.443949140123696340e-05,-2.821319379380865491e-06
2.811111111111110894e+00,2.210687926387051852e-05,-2.913628075833000817e-06
2.811904761904761685e+00,1.958730421585207809e-05,-9.469371411586504750e-07
2.812698412698412920e+00,1.732092703302452643e-05,3.146347781940587582e-06
2.813492063492063711e+00,1.545207638528662921e-05,8.995695230583891964e-06
2.814285714285714501e+00,1.387178226573944054e-05,1.592759752076043154e-05
2.815079365079365292e+00,1.233896230883194899e-05,2.312673345642214198e-05
2.815873015873016083e+00,1.062600654989580461e-05,2.976809337884170424e-05
2.816666666666666874e+00,8.632137971727983845e-06,3.509585405424962579e-05
2.817460317460317665e+00,6.426824282001324569e-06,3.846561654589511985e-05
2.818253968253968456e+00,4.218080815320543394e-06,3.938840317668029046e-05
2.819047619047619246e+00,2.270116891266256389e-06,3.760256323022340960e-05
2.819841269841270037e+00,8.080029940224425521e-07,3.316395562139254501e-05
2.820634920634920828e+00,-5.644507245721655623e-08,2.651152338924966912e-05
2.821428571428571619e+00,-3.550812144164112804e-07,1.845718302570936449e-05
2.822222222222222410e+00,-2.416955179731169157e-07,1.007103016639561369e-05
2.823015873015873201e+00,7.451483044515212497e-08,2.472477533017222052e-06
2.823809523809523991e+00,4.172579084438022248e-07,-3.424864016970486663e-06
2.824603174603174782e+00,7.210690579135538903e-07,-7.146816466654484709e-06
2.825396825396825573e+00,1.069226191220899098e-06,-8.804381857417103245e-06
2.826190476190476364e+00,1.675144075808216990e-06,-9.103321665932148611e-06
2.826984126984127155e+00,2.808613403379744045e-06,-9.197469232192086549e-06
2.827777777777777946e+00,4.685226905331514431e-06,-1.039966021456218553e-05
2.828571428571428736e+00,7.349640722592939182e-06,-1.380114776917441493e-05
2.829365079365079527e+00,1.058838550849456864e-05,-1.988444728121181883e-05
2.830158730158730318e+00,1.390403318876295211e-05,-2.823470708070765570e-05
2.830952380952381109e+00,1.656960879955744507e-05,-3.744925398132049920e-05
2.831746031746031900e+00,1.776267956705067998e-05,-4.530892003079524876e-05
2.832539682539682691e+00,1.675680527726757749e-05,-4.921289207903225583e-05
2.833333333333333481e+00,1.312840788639753329e-05,-4.680409331843751221e-05
2.834126984126984272e+00,6.924034051879168604e-06,-3.664423836621845003e-05
2.834920634920635063e+00,-1.267802679215648699e-06,-1.876007213987195690e-05
2.835714285714285854e+00,-1.037865799063745806e-05,5.107785983828510150e-06
2.836507936507936645e+00,-1.905913775430617332e-05,3.166218281206677730e-05
2.837301587301587436e+00,-2.597510594568187210e-05,5.662300080768509875e-05
2.838095238095238226e+00,-3.012692021554786820e-05,7.560887767302391026e-05
2.838888888888889017e+00,-3.110204286700767441e-05,8.511326700826563226e-05
2.839682539682539808e+00,-2.918062125570133089e-05,8.331143286467462166e-05
2.840476190476190599e+00,-2.525182234182668620e-05,7.047497153685491585e-05
2.841269841269841390e+00,-2.055911910317657139e-05,4.889219608635932032e-05
2.842063492063492181e+00,-1.634979399024558635e-05,2.234332485121554411e-05
2.842857142857142971e+00,-1.353050059856266634e-05,-4.705671355962694517e-06
2.843650793650793762e+00,-1.242135629541728628e-05,-2.798385751630437992e-05
2.844444444444444553e+00,-1.267068329508662664e-05,-4.418706526546504532e-05
2.845238095238095344e+00,-1.335733155770921816e-05,-5.151242951664808937e-05
2.846031746031746135e+00,-1.326988591152769308e-05,-4.988405960401299459e-05
2.846825396825396925e+00,-1.130271912718117001e-05,-4.084577597112418147e-05
2.847619047619047716e+00,-6.850782237354671707e-06,-2.714457795969028557e-05
2.848412698412698507e+00,-5.471232552613562182e-08,-1.208418210193059406e-05
2.849206349206349298e+00,8.209820295502851461e-06,1.215711231697088465e-06
2.850000000000000089e+00,1.659450235103042358e-05,1.048134121432073805e-05
2.850793650793650880e+00,2.367748473864882830e-05,1.469938461416256480e-05
2.851587301587301670e+00,2.834047362282050408e-05,1.417779279814085008e-05
2.852380952380952461e+00,3.000139094630225058e-05,1.025728990578564862e-05
2.853174603174603252e+00,2.866089498765086438e-05,4.791163980442026011e-06
2.853968253968254043e+00,2.479887700797137059e-05,-4.273131948563833690e-07
2.854761904761904834e+00,1.919712921316148467e-05,-4.121493712508940072e-06
2.855555555555555625e+00,1.275820802431324165e-05,-5.767547360327994985e-06
2.856349206349206415e+00,6.358301666737294403e-06,-5.588165884656185878e-06
2.857142857142857206e+00,7.426143470864631610e-07,-4.353547048752355313e-06
2.857936507936507997e+00,-3.541272656516548006e-06,-3.081580742641768152e-06
2.858730158730158788e+00,-6.178572409402762248e-06,-2.735251615436125638e-06
2.859523809523809579e+00,-7.097629377772528537e-06,-3.992237298471871108e-06
2.860317460317460370e+00,-6.462946611690769114e-06,-7.123282318123802833e-06
2.861111111111111160e+00,-4.656887798968504498e-06,-1.197717050713623437e-05
2.861904761904761951e+00,-2.249539353115589657e-06,-1.804446188181306512e-05
2.862698412698412742e+00,5.232158986166137991e-08,-2.456576360845653937e-05
2.863492063492063533e+00,1.489826742889405910e-06,-3.065789519174542629e-05
2.864285714285714324e+00,1.376530119898188404e-06,-3.544169628814824085e-05
2.865079365079365115e+00,-7.466298063162417564e-07,-3.816110075327738051e-05
2.865873015873015905e+00,-4.956305347814441136e-06,-3.828437786828630426e-05
2.866666666666666696e+00,-1.084120784214118422e-05,-3.557843175847993813e-05
2.867460317460317487e+00,-1.750187683994197733e-05,-3.014813118356414720e-05
2.868253968253968278e+00,-2.369147471621128417e-05,-2.243513596607475823e-05
2.869047619047619069e+00,-2.808362829612852886e-05,-1.317351923757049401e-05
2.869841269841269860e+00,-2.959305524166530308e-05,-3.301189760069014933e-06
2.870634920634920650e+00,-2.763923427737880853e-05,6.172666964438423633e-06
2.871428571428571441e+00,-2.225999975173150269e-05,1.433799699266330968e-05
2.872222222222222232e+00,-1.404629446480947203e-05,2.056975942757560661e-05
2.873015873015873023e+00,-3.944579530135528201e-06,2.468412328114367180e-05
2.873809523809523814e+00,6.982227426475149062e-06,2.700564082844644282e-05
2.874603174603174605e+00,1.774657376621261413e-05,2.829514658934234855e-05
2.875396825396825395e+00,2.752742144338782678e-05,2.952346216360972859e-05
2.876190476190476186e+00,3.565483549926142453e-05,3.152926600142419796e-05
2.876984126984126977e+00,4.152801379621015224e-05,3.465531089299294217e-05
2.877777777777777768e+00,4.453919146867950206e-05,3.849323125329794294e-05
2.878571428571428559e+00,4.407936800597355006e-05,4.185855488008829301e-05
2.879365079365079350e+00,3.966624640556237259e-05,4.305342240954390995e-05
2.880158730158730140e+00,3.116980522190322629e-05,4.037386171485160910e-05
2.880952380952380931e+00,1.904704292805399051e-05,3.272200235809631246e-05
2.881746031746031722e+00,4.469469201546196198e-06,2.012907004317275573e-05
2.882539682539682513e+00,-1.074684250136251663e-05,4.002173763587952034e-06
2.883333333333333304e+00,-2.442800277859639448e-05,-1.302308033196614674e-05
2.884126984126984095e+00,-3.448256709301966466e-05,-2.762938165723096128e-05
2.884920634920634885e+00,-3.937321358594565962e-05,-3.664240809361614328e-05
2.885714285714285676e+00,-3.848086228430326350e-05,-3.790609448519049064e-05
2.886507936507936467e+00,-3.224739593750799760e-05,-3.093626242667522886e-05
2.887301587301587258e+00,-2.204524968756002240e-05,-1.712900162201081575e-05
2.888095238095238049e+00,-9.810508455257190748e-06,5.609554459494884204e-07
2.888888888888888840e+00,2.437829100343613186e-06,1.837755751010537625e-05
2.889682539682539630e+00,1.302783319730080517e-05,3.271583866962928937e-05
2.890476190476190421e+00,2.087971467849082367e-05,4.097379384174346177e-05
2.891269841269841212e+00,2.552491712989641916e-05,4.206232679558867554e-05
2.892063492063492003e+00,2.696306161135929020e-05,3.646520002788237081e-05
2.892857142857142794e+00,2.547459012143388338e-05,2.589104191411511279e-05
2.893650793650793585e+00,2.148660598313893673e-05,1.266888335131227501e-05
2.894444444444444375e+00,1.552840669327668573e-05,-9.147298494116756618e-07
2.895238095238095166e+00,8.258163970540486999e-06,-1.314739658415318845e-05
2.896031746031745957e+00,5.082263445545359713e-07,-2.315302594703122616e-05
2.896825396825396748e+00,-6.719816698254787328e-06,-3.083461371495361587e-05
2.897619047619047539e+00,-1.236899753176797694e-05,-3.655990708711793618e-05
2.898412698412698330e+00,-1.555843010980810653e-05,-4.075123042907569229e-05
2.899206349206349120e+00,-1.586382413963011295e-05,-4.357297444108449255e-05
2.899999999999999911e+00,-1.351939295392395948e-05,-4.484630054067090623e-05
2.900793650793650702e+00,-9.421601357004094854e-06,-4.419191722747897115e-05
2.901587301587301493e+00,-4.901526308667625154e-06,-4.128418011027727821e-05
2.902380952380952284e+00,-1.348245031576755368e-06,-3.605746194970436367e-05
2.903174603174603075e+00,1.689874808319789985e-07,-2.875261128655097150e-05
2.903968253968253865e+00,-8.428845270285490319e-07,-1.979175382778554035e-05
2.904761904761904656e+00,-4.210588771893044625e-06,-9.564090277243898723e-06
2.905555555555555447e+00,-9.155131414375041252e-06,1.753366859821726327e-06
2.906349206349206238e+00,-1.447374479695601082e-05,1.423598277508394905e-05
2.907142857142857029e+00,-1.881891387633460118e-05,2.806723177420636500e-05
2.907936507936507819e+00,-2.103645137586643212e-05,4.323898785229724514e-05
2.908730158730158610e+00,-2.048743459834900644e-05,5.919800908342099798e-05
2.909523809523809401e+00,-1.725029551695224383e-05,7.458632301795459533e-05
2.910317460317460192e+00,-1.211681200654716159e-05,8.721425914518887799e-05
2.911111111111110983e+00,-6.365202278892355628e-06,9.433323915644483055e-05
2.911904761904761774e+00,-1.380275961896001492e-06,9.316937245725736649e-05
2.912698412698412564e+00,1.752232946770446776e-06,8.158808369243693813e-05
2.913492063492063355e+00,2.545461530730471495e-06,5.872159028977910869e-05
2.914285714285714146e+00,1.214964141863913951e-06,2.540716192315862351e-05
2.915079365079364937e+00,-1.435817544694233696e-06,-1.566852144419817719e-05
2.915873015873015728e+00,-4.295745156340930887e-06,-6.016676366873449064e-05
2.916666666666666519e+00,-6.286554395195631507e-06,-1.026255325529145421e-04
2.917460317460317309e+00,-6.650621639544005793e-06,-1.372515897930151716e-04
2.918253968253968100e+00,-5.110067872724903423e-06,-1.588571904586760525e-04
2.919047619047618891e+00,-1.878274798200424867e-06,-1.637846851529025825e-04
2.919841269841269682e+00,2.448150774494511033e-06,-1.506457747378341940e-04
2.920634920634920473e+00,7.065540718399771653e-06,-1.207167092381161407e-04
2.921428571428571264e+00,1.115418376419062884e-05,-7.788135313834004423e-05
2.922222222222222054e+00,1.404287715693621576e-05,-2.809389352666541816e-05
2.923015873015872845e+00,1.532344195443681155e-05,2.157271605266821533e-05
2.923809523809523636e+00,1.490802631269057747e-05,6.413441361361187261e-05
2.924603174603174427e+00,1.303228418952908713e-05,9.393071783484552371e-05
2.925396825396825218e+00,1.021092242078775456e-05,1.076291533473843333e-04
2.926190476190476009e+00,7.151278673608530142e-06,1.047751117173162372e-04
2.926984126984126799e+00,4.629240114337213249e-06,8.776040091361949561e-05
2.927777777777777590e+00,3.334169727246966610e-06,6.122274224871797810e-05
2.928571428571428381e+00,3.700293183203408088e-06,3.102557511407739597e-05
2.929365079365079172e+00,5.761605574455405702e-06,3.061722930295905253e-06
2.930158730158729963e+00,9.084331932851371236e-06,-1.784785371426511396e-05
2.930952380952380754e+00,1.282499490422944870e-05,-2.873230987861880649e-05
2.931746031746031544e+00,1.592330836703532640e-05,-2.879663694384901966e-05
2.932539682539682335e+00,1.738402700336052405e-05,-1.928574741469400470e-05
2.933333333333333126e+00,1.656222693069670204e-05,-2.984081265988919496e-06
2.934126984126983917e+00,1.336120081027348433e-05,1.648651452975511390e-05
2.934920634920634708e+00,8.277604641760598694e-06,3.539356865118715122e-05
2.935714285714285499e+00,2.272557359544610915e-06,5.049979202549105539e-05
2.936507936507936289e+00,-3.498948287166745643e-06,5.946426422310937350e-05
2.937301587301587080e+00,-8.016030538004334711e-06,6.102808513278765938e-05
2.938095238095238315e+00,-1.066467436613573461e-05,5.503087831726670215e-05
2.938888888888889106e+00,-1.136052292422416182e-05,4.232229821003161862e-05
2.939682539682539897e+00,-1.049035977213513452e-05,2.461114462648598052e-05
2.940476190476190688e+00,-8.717582947424928745e-06,4.262147135760859007e-06
2.941269841269841478e+00,-6.745258944376561803e-06,-1.596533728301023733e-05
2.942063492063492269e+00,-5.128815825542007111e-06,-3.323855071290364742e-05
2.942857142857143060e+00,-4.188400669855575475e-06,-4.502298142859500579e-05
2.943650793650793851e+00,-4.017589523365238577e-06,-4.948156830184779017e-05
2.944444444444444642e+00,-4.549005914350633573e-06,-4.585696178386198038e-05
2.945238095238095433e+00,-5.630066257747418898e-06,-3.475979304081317769e-05
2.946031746031746223e+00,-7.076181584895733332e-06,-1.825868526204503875e-05
2.946825396825397014e+00,-8.689214656713390179e-06,3.247993493116395854e-07
2.947619047619047805e+00,-1.024595823249858046e-05,1.695306078185138953e-05
2.948412698412698596e+00,-1.147339875927704793e-05,2.767652768534117005e-05
2.949206349206349387e+00,-1.203505931139051149e-05,2.953293311274072228e-05
2.950000000000000178e+00,-1.155276578171247162e-05,2.130263204851412292e-05
2.950793650793650968e+00,-9.676611318999301097e-06,3.893610091295004372e-06
2.951587301587301759e+00,-6.193960286765394690e-06,-1.976883724131018032e-05
2.952380952380952550e+00,-1.145073022835065033e-06,-4.532373235449846925e-05
2.953174603174603341e+00,5.100007252068248756e-06,-6.787272221571877826e-05
2.953968253968254132e+00,1.184422425462713994e-05,-8.297172899970884068e-05
2.954761904761904923e+00,1.816480603233946284e-05,-8.748963725530007176e-05
2.955555555555555713e+00,2.309793714812291384e-05,-8.015585084632787633e-05
2.956349206349206504e+00,2.585735343380554435e-05,-6.170222710839122916e-05
2.957142857142857295e+00,2.601852800390541304e-05,-3.460392991124742486e-05
2.957936507936508086e+00,2.360824702314644647e-05,-2.511902612323029764e-06
2.958730158730158877e+00,1.907335513462145651e-05,3.047240310406460582e-05
2.959523809523809668e+00,1.314713227100837011e-05,6.050758082669021958e-05
2.960317460317460458e+00,6.665953936979142964e-06,8.455209660514567617e-05
2.961111111111111249e+00,3.977699630337701638e-07,1.006343137652920404e-04
2.961904761904762040e+00,-5.072629181047254501e-06,1.078412080630025905e-04
2.962698412698412831e+00,-9.386069505473435126e-06,1.061039979159901817e-04
2.963492063492063622e+00,-1.239076931695581240e-05,9.591561739898837153e-05
2.964285714285714413e+00,-1.409050802949757366e-05,7.811655091404503734e-05
2.965079365079365203e+00,-1.458851344666384770e-05,5.383500629023686782e-05
2.965873015873015994e+00,-1.404793982961653173e-05,2.458697076806297274e-05
2.966666666666666785e+00,-1.267517999544369000e-05,-7.541509959239404486e-06
2.967460317460317576e+00,-1.071782248852313470e-05,-3.976609480986025811e-05
2.968253968253968367e+00,-8.461232029964720994e-06,-6.867481789736638430e-05
2.969047619047619158e+00,-6.209454378544072878e-06,-9.059048840668396379e-05
2.969841269841269948e+00,-4.245565730397125939e-06,-1.022165956524059919e-04
2.970634920634920739e+00,-2.778835534016007142e-06,-1.014370011263219612e-04
2.971428571428571530e+00,-1.895606315091537625e-06,-8.803993554642079798e-05
2.972222222222222321e+00,-1.533156129137983982e-06,-6.410655325169177304e-05
2.973015873015873112e+00,-1.489829021894731533e-06,-3.387058969869030927e-05
2.973809523809523903e+00,-1.473512863027765449e-06,-3.002751844906640439e-06
2.974603174603174693e+00,-1.179000952901444989e-06,2.254973881856502631e-05
2.975396825396825484e+00,-3.762046951073701924e-07,3.789218160412108685e-05
2.976190476190476275e+00,1.012964013425186278e-06,4.033667723785677202e-05
2.976984126984127066e+00,2.869998126038676188e-06,3.007045052083683509e-05
2.977777777777777857e+00,4.881690627821108847e-06,1.014666777319719739e-05
2.978571428571428648e+00,6.592128523057128327e-06,-1.422071486958732302e-05
2.979365079365079438e+00,7.496748218619203048e-06,-3.689371537157594221e-05
2.980158730158730229e+00,7.160027045904113452e-06,-5.226956489141081937e-05
2.980952380952381020e+00,5.331128967022594840e-06,-5.658896019179010631e-05
2.981746031746031811e+00,2.029891757401625643e-06,-4.875617393431971142e-05
2.982539682539682602e+00,-2.419388835866434154e-06,-3.046319784576394802e-05
2.983333333333333393e+00,-7.417749287238199112e-06,-5.603667701814370366e-06
2.984126984126984183e+00,-1.218291030993246287e-05,2.083010907171108016e-05
2.984920634920634974e+00,-1.588875096654006951e-05,4.402348202411683761e-05
2.985714285714285765e+00,-1.783093287303122413e-05,6.041687103078690479e-05
2.986507936507936556e+00,-1.758879423731503041e-05,6.831525733757815271e-05
2.987301587301587347e+00,-1.514540266294213992e-05,6.794002811287306264e-05
2.988095238095238138e+00,-1.092437231473357385e-05,6.100900190762933284e-05
2.988888888888888928e+00,-5.713930323966693749e-06,5.004825016673143895e-05
2.989682539682539719e+00,-4.809895403588871120e-07,3.767850278863423425e-05
2.990476190476190510e+00,3.879159561032450902e-06,2.607813365653189724e-05
2.991269841269841301e+00,6.780429942760165380e-06,1.672413879122538392e-05
2.992063492063492092e+00,8.092122829644526541e-06,1.039649778651332369e-05
2.992857142857142883e+00,8.145399026884380788e-06,7.346550752683954718e-06
2.993650793650793673e+00,7.599429659119988725e-06,7.499474137409199537e-06
2.994444444444444464e+00,7.211354772763290979e-06,1.058204273566037927e-05
2.995238095238095255e+00,7.581172938759175540e-06,1.612465843820057250e-05
2.996031746031746046e+00,8.946857482503276884e-06,2.336079013799928641e-05
2.996825396825396837e+00,1.108859112279870442e-05,3.111193559312099618e-05
2.997619047619047628e+00,1.337042344246647040e-05,3.777250504572596062e-05
2.998412698412698418e+00,1.491135787142707426e-05,4.147486477115702990e-05
2.999206349206349209e+00,1.484417426925145512e-05,4.042878638351535281e-05
3.000000000000000000e+00,1.259543449235440357e-05,3.333907306649758884e-05
3.000793650793650791e+00,8.108127879112260182e-06,1.976556504662545057e-05
3.001587301587301582e+00,1.933191595529438027e-06,3.183439826238091890e-07
3.002380952380952372e+00,-4.856359585183578332e-06,-2.335373332591007866e-05
3.003174603174603163e+00,-1.092181985469665877e-05,-4.876455374363962192e-05
3.003968253968253954e+00,-1.501344065783612454e-05,-7.293058577611050077e-05
3.004761904761904745e+00,-1.630620899679274477e-05,-9.277990579117467804e-05
3.005555555555555536e+00,-1.460533758811001193e-05,-1.055622215490827531e-04
3.006349206349206327e+00,-1.036585364330314442e-05,-1.092147435191335514e-04
3.007142857142857117e+00,-4.543222613209109297e-06,-1.026662941097725699e-04
3.007936507936507908e+00,1.658593288000096026e-06,-8.606698567444293025e-05
3.008730158730158699e+00,7.065706499270807369e-06,-6.091317200369128986e-05
3.009523809523809490e+00,1.078066604203167927e-05,-3.002281984716688204e-05
3.010317460317460281e+00,1.235671558341542740e-05,2.679538788971545965e-06
3.011111111111111072e+00,1.186908681290892185e-05,3.259215874824503405e-05
3.011904761904761862e+00,9.860549100235072495e-06,5.507732135478674251e-05
3.012698412698412653e+00,7.161551587604125922e-06,6.626607756493874395e-05
3.013492063492063444e+00,4.625715569035722415e-06,6.390751605036411288e-05
3.014285714285714235e+00,2.860387129937272840e-06,4.806938046264798924e-05
3.015079365079365026e+00,2.044131820306878619e-06,2.146050003817305996e-05
3.015873015873015817e+00,1.897955562201317316e-06,-1.081576805594916534e-05
3.016666666666666607e+00,1.824279375280377948e-06,-4.214282046495453884e-05
3.017460317460317398e+00,1.166094700804748411e-06,-6.578420416609137404e-05
3.018253968253968189e+00,-5.111286696210691085e-07,-7.647066717584166402e-05
3.019047619047618980e+00,-3.228272292041368180e-06,-7.173795199357015117e-05
3.019841269841269771e+00,-6.572576336355061917e-06,-5.259221905135568181e-05
3.020634920634920562e+00,-9.854696748679763762e-06,-2.326423454555339904e-05
3.021428571428571352e+00,-1.236779693992026191e-05,9.897347432147820157e-06
3.022222222222222143e+00,-1.363074177273726352e-05,4.006468843718040591e-05
3.023015873015872934e+00,-1.351565539372839869e-05,6.161610976580554958e-05
3.023809523809523725e+00,-1.222495925820755872e-05,7.140025279741897166e-05
3.024603174603174516e+00,-1.015487492653025772e-05,6.927511770001282536e-05
3.025396825396825307e+00,-7.724522144539112094e-06,5.784684776839084250e-05
3.026190476190476097e+00,-5.247551727363874627e-06,4.154442912483120366e-05
3.026984126984126888e+00,-2.886565716588817670e-06,2.531582363798310373e-05
3.027777777777777679e+00,-6.847297319521017145e-07,1.330533065880459950e-05
3.028571428571428470e+00,1.361297682677674482e-06,7.861128844014907805e-06
3.029365079365079261e+00,3.228612412051858340e-06,9.119001195580866029e-06
3.030158730158730052e+00,4.825426052431471440e-06,1.523442479375269956e-05
3.030952380952380842e+00,5.991607177812581191e-06,2.314482294409353372e-05
3.031746031746031633e+00,6.540014467115720080e-06,2.959797079981272880e-05
3.032539682539682424e+00,6.324470580892513295e-06,3.212259865814717254e-05
3.033333333333333215e+00,5.313414156318175987e-06,2.965597996467889613e-05
3.034126984126984006e+00,3.646884149305544867e-06,2.266594155588296766e-05
3.034920634920634797e+00,1.657447222757908554e-06,1.277348384415526540e-05
3.035714285714285587e+00,-1.587365806525415423e-07,2.047083117296706657e-06
3.036507936507936378e+00,-1.226721653085828290e-06,-7.750981602366286647e-06
3.037301587301587169e+00,-1.027660649377423274e-06,-1.567711592303754268e-05
3.038095238095237960e+00,7.399310129530112221e-07,-2.169635258933865328e-05
3.038888888888888751e+00,4.017157421454398311e-06,-2.635349578112318656e-05
3.039682539682539542e+00,8.316670765881597894e-06,-3.020619805419961568e-05
3.040476190476190332e+00,1.277479984091804429e-05,-3.329239704228268370e-05
3.041269841269841123e+00,1.633080106351390053e-05,-3.488495358838896381e-05
3.042063492063491914e+00,1.799043410041729351e-05,-3.367137814893319056e-05
3.042857142857142705e+00,1.709515793153347003e-05,-2.832042362973521697e-05
3.043650793650793496e+00,1.351311365826640165e-05,-1.821631267623824687e-05
3.044444444444444287e+00,7.693270056595505143e-06,-4.036277225909750312e-06
3.045238095238095077e+00,5.673330372073619676e-07,1.211539894431846624e-05
3.046031746031745868e+00,-6.669892151158547931e-06,2.712584866028327861e-05
3.046825396825396659e+00,-1.283628941896946285e-05,3.771799958208212316e-05
3.047619047619047450e+00,-1.701644032208475050e-05,4.141541767011069181e-05
3.048412698412698241e+00,-1.872867942948131521e-05,3.728130641790175113e-05
3.049206349206349032e+00,-1.797228137976285669e-05,2.619040134949846081e-05
3.049999999999999822e+00,-1.516145278863706011e-05,1.057963753950904585e-05
3.050793650793650613e+00,-1.098469541220084329e-05,-6.200710672094070153e-06
3.051587301587301404e+00,-6.240562067691708868e-06,-2.071486111055149154e-05
3.052380952380952195e+00,-1.692552557941218415e-06,-3.021697155859746239e-05
3.053174603174602986e+00,2.034022768074841641e-06,-3.319505906182815139e-05
3.053968253968253777e+00,4.510494691591977524e-06,-2.958833471228426154e-05
3.054761904761904567e+00,5.528833241118223877e-06,-2.067303709260638790e-05
3.055555555555555358e+00,5.104346278862313357e-06,-8.686151242231176362e-06
3.056349206349206149e+00,3.463722304434444458e-06,3.700540212137593034e-06
3.057142857142856940e+00,1.014238934550717694e-06,1.393457096505406440e-05
3.057936507936507731e+00,-1.715834183899822753e-06,2.005917993775677111e-05
3.058730158730158522e+00,-4.168768256042429415e-06,2.103410832654129540e-05
3.059523809523809312e+00,-5.866507715481541410e-06,1.685628981515456391e-05
3.060317460317460103e+00,-6.507230405048322597e-06,8.472149667205903142e-06
3.061111111111110894e+00,-6.018030895195294213e-06,-2.489747039972585381e-06
3.061904761904761685e+00,-4.548525377862308967e-06,-1.410194101875777003e-05
3.062698412698412920e+00,-2.413371919789871713e-06,-2.454586494444881375e-05
3.063492063492063711e+00,-8.253227511178269894e-09,-3.244467607477209659e-05
3.064285714285714501e+00,2.273161163384799383e-06,-3.704568642997606726e-05
3.065079365079365292e+00,4.102250427380766242e-06,-3.822983590065669244e-05
3.065873015873016083e+00,5.252460319494833951e-06,-3.638225925054163265e-05
3.066666666666666874e+00,5.614746256563440260e-06,-3.218963266905364759e-05
3.067460317460317665e+00,5.199685961569873346e-06,-2.642855257145045435e-05
3.068253968253968456e+00,4.131693935941398659e-06,-1.978982462175097611e-05
3.069047619047619246e+00,2.634714799645619051e-06,-1.276455613603320608e-05
3.069841269841270037e+00,1.004261498488978940e-06,-5.604715455014498392e-06
3.070634920634920828e+00,-4.383366084501745298e-07,1.640306448443791777e-06
3.071428571428571619e+00,-1.406418852354813401e-06,9.020731460057847340e-06
3.072222222222222410e+00,-1.710573605348102640e-06,1.653717352942381955e-05
3.073015873015873201e+00,-1.304860996274818740e-06,2.397656233241735120e-05
3.073809523809523991e+00,-3.003615249198477048e-07,3.077890358758757466e-05
3.074603174603174782e+00,1.060639296417887398e-06,3.599340169259879956e-05
3.075396825396825573e+00,2.463729890115582328e-06,3.837864474084462708e-05
3.076190476190476364e+00,3.598012475422655618e-06,3.666628289183134995e-05
3.076984126984127155e+00,4.227049454924786728e-06,2.994542972966741728e-05
3.077777777777777946e+00,4.236637440198010563e-06,1.806448160166975326e-05
3.078571428571428736e+00,3.649391920726663709e-06,1.921233717218717608e-06
3.079365079365079527e+00,2.606341856969407754e-06,-1.646800408209444323e-05
3.080158730158730318e+00,1.323888846792392044e-06,-3.417852396401618756e-05
3.080952380952381109e+00,3.902384574479428328e-08,-4.785966437304661183e-05
3.081746031746031900e+00,-1.043231652235484969e-06,-5.441078304997219039e-05
3.082539682539682691e+00,-1.788264453941611171e-06,-5.170491910260786248e-05
3.083333333333333481e+00,-2.149015859599737995e-06,-3.917746877097706747e-05
3.084126984126984272e+00,-2.160685146686071304e-06,-1.811300032325246966e-05
3.084920634920635063e+00,-1.917357785707846505e-06,8.468496222950783851e-06
3.085714285714285854e+00,-1.538682458711373296e-06,3.632631216055131159e-05
3.086507936507936645e+00,-1.136277829366910712e-06,6.081476436310967600e-05
3.087301587301587436e+00,-7.888239433545811223e-07,7.781969553606195408e-05
3.088095238095238226e+00,-5.317977990755613680e-07,8.459343133363770629e-05
3.088888888888889017e+00,-3.630143607814812325e-07,8.028214164248193810e-05
3.089682539682539808e+00,-2.598892614104568659e-07,6.602232048948213354e-05
3.090476190476190599e+00,-2.005714214045890675e-07,4.460899460573792912e-05
3.091269841269841390e+00,-1.802452122101221779e-07,1.985604136283797397e-05
3.092063492063492181e+00,-2.162100465702501714e-07,-4.169689270022935438e-06
3.092857142857142971e+00,-3.398734061969082727e-07,-2.386856371137757068e-05
3.093650793650793762e+00,-5.787145497962407318e-07,-3.666746219415199657e-05
3.094444444444444553e+00,-9.345705569326008926e-07,-4.136615971203541614e-05
3.095238095238095344e+00,-1.365350819855987025e-06,-3.826022308001378791e-05
3.096031746031746135e+00,-1.776235162647256311e-06,-2.904473367420203758e-05
3.096825396825396925e+00,-2.024743692082284972e-06,-1.650507510584445835e-05
3.097619047619047716e+00,-1.942070202309948536e-06,-4.010699267079787515e-06
3.098412698412698507e+00,-1.370331215057102173e-06,5.141694856769336539e-06
3.099206349206349298e+00,-2.116815901039340107e-07,8.441933018327256829e-06
3.100000000000000089e+00,1.519315588249073014e-06,4.797423126142528796e-06
3.100793650793650880e+00,3.653723879051470135e-06,-5.082131623001361240e-06
3.101587301587301670e+00,5.854353932339534406e-06,-1.869474272377327586e-05
3.102380952380952461e+00,7.647311495001696093e-06,-3.223249604735482283e-05
3.103174603174603252e+00,8.507755672072451195e-06,-4.150347269702064424e-05
3.103968253968254043e+00,7.990894015375620156e-06,-4.308909950039950391e-05
3.104761904761904834e+00,5.877417749891285923e-06,-3.539852373446823123e-05
3.105555555555555625e+00,2.287241551366077423e-06,-1.924769313481435975e-05
3.106349206349206415e+00,-2.283845428266330126e-06,2.283782394867575966e-06
3.107142857142857206e+00,-7.031929541426334419e-06,2.470730283740489168e-05
3.107936507936507997e+00,-1.101582170462370806e-05,4.340329766810333928e-05
3.108730158730158788e+00,-1.339742636892540444e-05,5.487319002618486587e-05
3.109523809523809579e+00,-1.368642763825673276e-05,5.754580601526631563e-05
3.110317460317460370e+00,-1.190368515544165536e-05,5.191287659415239585e-05
3.111111111111111160e+00,-8.588422201173724098e-06,4.002857225815912348e-05
3.111904761904761951e+00,-4.627715872213462200e-06,2.462491179062691461e-05
3.112698412698412742e+00,-9.654025703342363498e-07,8.191252903010109947e-06
3.113492063492063533e+00,1.692457252832489008e-06,-7.678536819803009352e-06
3.114285714285714324e+00,3.057852422546807174e-06,-2.250954248701698203e-05
3.115079365079365115e+00,3.271992031794269327e-06,-3.673657710333333752e-05
3.115873015873015905e+00,2.776371805811743339e-06,-5.117225340981849675e-05
3.116666666666666696e+00,2.122508684050922095e-06,-6.632361964852808084e-05
3.117460317460317487e+00,1.795573455008909692e-06,-8.176247790752841881e-05
3.118253968253968278e+00,2.094274421078433843e-06,-9.576695806846663352e-05
3.119047619047619069e+00,3.078434497463638862e-06,-1.054137741970469135e-04
3.119841269841269860e+00,4.577994937357794971e-06,-1.071819677235101744e-04
3.120634920634920650e+00,6.248947406199244830e-06,-9.794674904278031645e-05
3.121428571428571441e+00,7.658342317008318809e-06,-7.606980987482027574e-05
3.122222222222222232e+00,8.380453372478845837e-06,-4.221826573792493881e-05
3.123015873015873023e+00,8.088608709799726245e-06,3.880825532948883943e-07
3.123809523809523814e+00,6.630696281916384040e-06,4.641967404638200052e-05
3.124603174603174605e+00,4.078934449157249075e-06,8.947129630380280753e-05
3.125396825396825395e+00,7.448993149339048642e-07,1.234189568991142299e-04
3.126190476190476186e+00,-2.849643385619729475e-06,1.437548555867317588e-04
3.126984126984126977e+00,-6.052509944720086148e-06,1.485663859330467376e-04
3.127777777777777768e+00,-8.207243349734314437e-06,1.388993429173122484e-04
3.128571428571428559e+00,-8.804314047554584187e-06,1.183820419710238439e-04
3.129365079365079350e+00,-7.620199716370409769e-06,9.218624528176817790e-05
3.130158730158730140e+00,-4.801947849351893023e-06,6.561559057106502047e-05
3.130952380952380931e+00,-8.651913292051228822e-07,4.275328962181430592e-05
3.131746031746031722e+00,3.402598540024315391e-06,2.559446702420653473e-05
3.132539682539682513e+00,7.112700859576469809e-06,1.392246500145476404e-05
3.133333333333333304e+00,9.475240699841112898e-06,5.920905840837866716e-06
3.134126984126984095e+00,9.976115840475296387e-06,-7.510353860334983784e-07
3.134920634920634885e+00,8.487483641681128736e-06,-7.849772767609223151e-06
3.135714285714285676e+00,5.290144098471739810e-06,-1.582400200510057330e-05
3.136507936507936467e+00,1.010154108192667651e-06,-2.372322007840044279e-05
3.137301587301587258e+00,-3.510082965371893208e-06,-2.972295078602820773e-05
3.138095238095238049e+00,-7.377727938794191664e-06,-3.201684577530662207e-05
3.138888888888888840e+00,-9.822792433050161475e-06,-2.971273950939151408e-05
3.139682539682539630e+00,-1.035041773878028485e-05,-2.340108930849834257e-05
3.140476190476190421e+00,-8.846158535819213992e-06,-1.519692293566498101e-05
3.141269841269841212e+00,-5.614224256190548819e-06,-8.230249997387097853e-06
3.142063492063492003e+00,-1.338519823373458300e-06,-5.730038583304363579e-06
3.142857142857142794e+00,3.032296443539953092e-06,-9.977888060545547766e-06
3.143650793650793585e+00,6.462983420414914211e-06,-2.146494774953782228e-05
3.144444444444444375e+00,8.048218697603637856e-06,-3.854817978950316121e-05
3.145238095238095166e+00,7.230371858902997719e-06,-5.777068883908254644e-05
3.146031746031745957e+00,3.971861489260370722e-06,-7.480497027238512567e-05
3.146825396825396748e+00,-1.167720538968576057e-06,-8.574650138217997065e-05
3.147619047619047539e+00,-7.090580563525164913e-06,-8.832042866326573973e-05
3.148412698412698330e+00,-1.237025207781341641e-05,-8.256346297031203255e-05
3.149206349206349120e+00,-1.558319813898467068e-05,-7.073018057652680354e-05
3.149999999999999911e+00,-1.568679531713239141e-05,-5.646666763045605760e-05
3.150793650793650702e+00,-1.233684833209936520e-05,-4.356104874770246738e-05
3.151587301587301493e+00,-6.039686390074668423e-06,-3.471304561155253050e-05
3.152380952380952284e+00,1.926981042438090928e-06,-3.072851062913614374e-05
3.153174603174603075e+00,9.823025683060859217e-06,-3.037466128583100281e-05
3.153968253968253865e+00,1.590619497611133639e-05,-3.090193985161933561e-05
3.154761904761904656e+00,1.890425360824944258e-05,-2.902973472867720353e-05
3.155555555555555447e+00,1.834393249172412682e-05,-2.206719230404973636e-05
3.156349206349206238e+00,1.462895916520422984e-05,-8.823898535394621428e-06
3.157142857142857029e+00,8.855101785070288646e-06,9.950920020453343128e-06
3.157936507936507819e+00,2.447481200169428462e-06,3.171097393743802184e-05
3.158730158730158610e+00,-3.243590821573906548e-06,5.277416324190253931e-05
3.159523809523809401e+00,-7.262134888602191115e-06,6.929382037740588909e-05
3.160317460317460192e+00,-9.206065220085611611e-06,7.825679620177473548e-05
3.161111111111110983e+00,-9.212128043657571627e-06,7.823894620778986016e-05
3.161904761904761774e+00,-7.801180678312484381e-06,6.973433385857609988e-05
3.162698412698412564e+00,-5.648772002700436002e-06,5.499696677076568304e-05
3.163492063492063355e+00,-3.355077454010162304e-06,3.745772900812846512e-05
3.164285714285714146e+00,-1.278776663864879387e-06,2.087918192949799091e-05
3.165079365079364937e+00,5.240813154137806479e-07,8.471351601428982366e-06
3.165873015873015728e+00,2.246640641289437671e-06,2.198792043345803381e-06
3.166666666666666519e+00,4.185718662586352357e-06,2.452607731725962522e-06
3.167460317460317309e+00,6.552329047672016406e-06,8.150036747981398948e-06
3.168253968253968100e+00,9.300298816218087762e-06,1.719568872444393137e-05
3.169047619047618891e+00,1.203403979578455743e-05,2.713896424218887839e-05
3.169841269841269682e+00,1.403891729201099703e-05,3.582317979628434589e-05
3.170634920634920473e+00,1.444424438946458201e-05,4.184992287833133720e-05
3.171428571428571264e+00,1.248634469153914982e-05,4.475675944517975392e-05
3.172222222222222054e+00,7.800332026156421163e-06,4.489264240225471268e-05
3.173015873015872845e+00,6.475336284600765933e-07,4.305156761539705894e-05
3.173809523809523636e+00,-8.011657076920168766e-06,3.999050443854614527e-05
3.174603174603174427e+00,-1.665820773412587960e-05,3.600493234390642088e-05
3.175396825396825218e+00,-2.356364363932036355e-05,3.073494666076805276e-05
3.176190476190476009e+00,-2.725896820392007534e-05,2.330284218674059165e-05
3.176984126984126799e+00,-2.696577505401142198e-05,1.275449490783496937e-05
3.177777777777777590e+00,-2.282638067234195046e-05,-1.354023458765983377e-06
3.178571428571428381e+00,-1.584311046189039481e-05,-1.845458035869872044e-05
3.179365079365079172e+00,-7.556336684459269370e-06,-3.675997337104737673e-05
3.180158730158729963e+00,4.053193310811045570e-07,-5.346536262841011230e-05
3.180952380952380754e+00,6.734387786879423284e-06,-6.534267900025761617e-05
3.181746031746031544e+00,1.069119180599651398e-05,-6.959103655373972226e-05
3.182539682539682335e+00,1.215391313058167170e-05,-6.471374290672455675e-05
3.183333333333333126e+00,1.151220900944405579e-05,-5.114742293236100443e-05
3.184126984126983917e+00,9.473398880845370189e-06,-3.139882798487711940e-05
3.184920634920634708e+00,6.845059622257927643e-06,-9.569375167055427760e-06
3.185714285714285499e+00,4.343180319746215330e-06,9.653574656192560831e-06
3.186507936507936289e+00,2.460437168060506023e-06,2.225455499469481470e-05
3.187301587301587080e+00,1.411707850362371140e-06,2.599348324416697563e-05
3.188095238095238315e+00,1.153644720125719034e-06,2.098448756202743115e-05
3.188888888888889106e+00,1.457944200259543898e-06,9.563175716949362764e-06
3.189682539682539897e+00,2.009344124793889620e-06,-4.486464452783978502e-06
3.190476190476190688e+00,2.500445391305206124e-06,-1.705329628408259622e-05
3.191269841269841478e+00,2.703465386814138045e-06,-2.478422649021387749e-05
3.192063492063492269e+00,2.509495310001014744e-06,-2.581180584024815857e-05
3.192857142857143060e+00,1.934815975506677871e-06,-1.997083291008617081e-05
3.193650793650793851e+00,1.099589958129156028e-06,-8.541152894965932732e-06
3.194444444444444642e+00,1.872316930587375693e-07,6.302174685062090009e-06
3.195238095238095433e+00,-6.057549110775867439e-07,2.209218452048133724e-05
3.196031746031746223e+00,-1.118857461681149117e-06,3.652655252704260118e-05
3.196825396825397014e+00,-1.264929018967260562e-06,4.768915794546926823e-05
3.197619047619047805e+00,-1.047083991039012804e-06,5.407806843136298599e-05
3.198412698412698596e+00,-5.511454622718021372e-07,5.456762296604277988e-05
3.199206349206349387e+00,8.317344649980289752e-08,4.843826953399593156e-05
3.200000000000000178e+00,7.025784669253609189e-07,3.553585877014882864e-05
3.200793650793650968e+00,1.179397609252744674e-06,1.651241027240345330e-05
3.201587301587301759e+00,1.438933949278290676e-06,-6.988175330513403972e-06
3.202380952380952550e+00,1.469191901784713772e-06,-3.235518735916197581e-05
3.203174603174603341e+00,1.313044079578950074e-06,-5.633730232072892954e-05
3.203968253968254132e+00,1.047844160525273341e-06,-7.563492299870559754e-05
3.204761904761904923e+00,7.602983059817292294e-07,-8.759485709359164467e-05
3.205555555555555713e+00,5.243988874391880620e-07,-9.077662411501268133e-05
3.206349206349206504e+00,3.876118230871457772e-07,-8.519675046000803581e-05
3.207142857142857295e+00,3.666155462100276687e-07,-7.218905294723685522e-05
3.207936507936508086e+00,4.505427986311993652e-07,-5.397903399641753078e-05
3.208730158730158877e+00,6.081518543444404472e-07,-3.316987593088748849e-05
3.209523809523809668e+00,7.957628313221538664e-07,-1.232380426306027102e-05
3.210317460317460458e+00,9.641615630802792725e-07,6.281389139187374912e-06
3.211111111111111249e+00,1.063720036682525514e-06,2.075882055627111049e-05
3.211904761904762040e+00,1.047336438268759904e-06,2.968196495181675340e-05
3.212698412698412831e+00,8.714129052352892839e-07,3.220014449685864140e-05
3.213492063492063622e+00,4.969122981566852054e-07,2.821152573608602486e-05
3.214285714285714413e+00,-1.055168737096046776e-07,1.852664363437127602e-05
3.215079365079365203e+00,-9.432019072675522551e-07,4.916515736735138809e-06
3.215873015873015994e+00,-1.983576886624761508e-06,-1.003889181942677141e-05
3.216666666666666785e+00,-3.138080991316565271e-06,-2.331979572614917507e-05
3.217460317460317576e+00,-4.256933611910216429e-06,-3.199915911543921136e-05
3.218253968253968367e+00,-5.141104194757761993e-06,-3.383646615389995121e-05
3.219047619047619158e+00,-5.573120519988559925e-06,-2.780963258676377462e-05
3.219841269841269948e+00,-5.363474925058344445e-06,-1.445653104840881152e-05
3.220634920634920739e+00,-4.403899593164912227e-06,4.093813611794577062e-06
3.221428571428571530e+00,-2.713433221754726106e-06,2.447872302819653709e-05
3.222222222222222321e+00,-4.609226325577655239e-07,4.283080242108732079e-05
3.223015873015873112e+00,2.049007241792646761e-06,5.572226724681717089e-05
3.223809523809523903e+00,4.429977051445903359e-06,6.104828024797341666e-05
3.224603174603174693e+00,6.297608308491990325e-06,5.855438538730251707e-05
3.225396825396825484e+00,7.359745223283062594e-06,4.983143150560759678e-05
3.226190476190476275e+00,7.484829260686469962e-06,3.780161519264414055e-05
3.226984126984127066e+00,6.727310374623109298e-06,2.589587317890577596e-05
3.227777777777777857e+00,5.304817510299328531e-06,1.719612418414815966e-05
3.228571428571428648e+00,3.537419597402026872e-06,1.377193761231379593e-05
3.229365079365079438e+00,1.768153504770621012e-06,1.632504357327026361e-05
3.230158730158730229e+00,2.854525230784166148e-07,2.413987465345765292e-05
3.230952380952381020e+00,-7.351373389352158357e-07,3.528118634712149330e-05
3.231746031746031811e+00,-1.258186428550755624e-06,4.698358492113703899e-05
3.232539682539682602e+00,-1.379986620065390181e-06,5.619420008970185107e-05
3.233333333333333393e+00,-1.288383633080586764e-06,6.020879799674828774e-05
3.234126984126984183e+00,-1.202686322899826900e-06,5.728317982674564410e-05
3.234920634920634974e+00,-1.310154268759865726e-06,4.705884930216420271e-05
3.235714285714285765e+00,-1.715109936410457492e-06,3.067044109997377660e-05
