Timestamp,Flexor carpi radialis,Extensor digitorum
2.000000000000000000e+00,-2.891181915100339111e-05,-1.002057818382207553e-05
2.000793650793650791e+00,-3.146803033781897871e-05,-2.211482628507807691e-06
2.001587301587301582e+00,-2.903205410652651272e-05,5.345156125702971343e-06
2.002380952380952372e+00,-2.144463073952016660e-05,1.233072134825356216e-05
2.003174603174603163e+00,-9.545787591639595139e-06,1.853740751774796293e-05
2.003968253968253954e+00,4.980111730807202877e-06,2.377045097524547039e-05
2.004761904761904745e+00,1.998928235522415354e-05,2.777019079376968915e-05
2.005555555555555536e+00,3.338483990883280917e-05,3.019918438594302047e-05
2.006349206349206327e+00,4.358870541007096936e-05,3.071250164644859004e-05
2.007142857142857117e+00,4.983521200265979154e-05,2.909397078761249254e-05
2.007936507936507908e+00,5.221114442835612777e-05,2.541031921426218642e-05
2.008730158730158699e+00,5.146061098432475067e-05,2.011832769466844115e-05
2.009523809523809490e+00,4.864733673201894042e-05,1.406523475197587935e-05
2.010317460317460281e+00,4.479327198634464334e-05,8.354365199545390618e-06
2.011111111111111072e+00,4.059458687966600383e-05,4.098391072717824237e-06
2.011904761904761862e+00,3.627635448771900079e-05,2.128281275743350148e-06
2.012698412698412653e+00,3.160375307821803979e-05,2.743917882041851860e-06
2.013492063492063444e+00,2.602872443738660357e-05,5.578659920635649874e-06
2.014285714285714235e+00,1.892114396295450026e-05,9.617429176380672259e-06
2.015079365079365026e+00,9.817194698437848945e-06,1.337028562859218157e-05
2.015873015873015817e+00,-1.381827501492693410e-06,1.517030276591790929e-05
2.016666666666666607e+00,-1.431000952996663098e-05,1.354076533536689164e-05
2.017460317460317398e+00,-2.815811831261385680e-05,7.561127486223014758e-06
2.018253968253968189e+00,-4.180616151479960799e-05,-2.848665410531293399e-06
2.019047619047618980e+00,-5.403151105041808041e-05,-1.680216279744946732e-05
2.019841269841269771e+00,-6.374048353803525102e-05,-3.252410657164270767e-05
2.020634920634920562e+00,-7.016761292469449966e-05,-4.762132748762301513e-05
2.021428571428571352e+00,-7.299757637244418996e-05,-5.948368986495719877e-05
2.022222222222222143e+00,-7.238757655261926927e-05,-6.573010392454134519e-05
2.023015873015872934e+00,-6.889481952909091945e-05,-6.462267312032669506e-05
2.023809523809523725e+00,-6.333456836201999194e-05,-5.538773017062080138e-05
2.024603174603174516e+00,-5.660434544008751371e-05,-3.839416262699871251e-05
2.025396825396825307e+00,-4.951122707479034795e-05,-1.515794740235492371e-05
2.026190476190476097e+00,-4.263543798234012780e-05,1.182140576421331695e-05
2.026984126984126888e+00,-3.625587749626046615e-05,3.934352645105767345e-05
2.027777777777777679e+00,-3.035172510653222943e-05,6.384115259235352145e-05
2.028571428571428470e+00,-2.467902839716986816e-05,8.172626370971600716e-05
2.029365079365079261e+00,-1.890240512249515451e-05,8.977136897551674403e-05
2.030158730158730052e+00,-1.274166496422570366e-05,8.558585551104579570e-05
2.030952380952380842e+00,-6.079778705811989445e-06,6.819440997389839465e-05
2.031746031746031633e+00,1.011836290472265683e-06,3.858332345507229640e-05
2.032539682539682424e+00,8.332720119029688182e-06,-4.908863909476273520e-08
2.033333333333333215e+00,1.564533193293870579e-05,-4.259097115009427212e-05
2.034126984126984006e+00,2.272962786369064355e-05,-8.292855079980459990e-05
2.034920634920634797e+00,2.937568249329844755e-05,-1.152629285249906553e-04
2.035714285714285587e+00,3.535873357840117894e-05,-1.354191432394180334e-04
2.036507936507936378e+00,4.046157870017978790e-05,-1.417031800057911651e-04
2.037301587301587169e+00,4.455785215965278595e-05,-1.350216208064229043e-04
2.038095238095237960e+00,4.769527521928300866e-05,-1.182581523713106559e-04
2.038888888888888751e+00,5.009110800372964270e-05,-9.517533842254867471e-05
2.039682539682539542e+00,5.200433119389795514e-05,-6.925800225355150525e-05
2.040476190476190332e+00,5.354419557274590587e-05,-4.288577965437316667e-05
2.041269841269841123e+00,5.453212323197924647e-05,-1.705783721348030809e-05
2.042063492063491914e+00,5.450390632053439912e-05,8.318887381703393897e-06
2.042857142857142705e+00,5.285308740602975115e-05,3.375060575527520510e-05
2.043650793650793496e+00,4.904522649491261689e-05,5.937332527246617025e-05
2.044444444444444287e+00,4.281465652264992484e-05,8.436936744055619007e-05
2.045238095238095077e+00,3.428134044035030070e-05,1.068022277804339172e-04
2.046031746031745868e+00,2.396795222543848664e-05,1.239314139659682514e-04
2.046825396825396659e+00,1.273109810050369011e-05,1.329058370842068574e-04
2.047619047619047450e+00,1.633968037739604962e-06,1.316235955439866944e-04
2.048412698412698241e+00,-8.213117441258760342e-06,1.195056504487989501e-04
2.049206349206349032e+00,-1.581990464235228232e-05,9.794371709817782906e-05
2.049999999999999822e+00,-2.046569838279089314e-05,7.023584006252093712e-05
2.050793650793650613e+00,-2.180662614658626148e-05,4.093598492784035660e-05
2.051587301587301404e+00,-1.992402769480637286e-05,1.473490692835581978e-05
2.052380952380952195e+00,-1.530965062481138024e-05,-4.795476570589767445e-06
2.053174603174602986e+00,-8.793534403392211967e-06,-1.615171906146485622e-05
2.053968253968253777e+00,-1.425442627912945330e-06,-2.018769822391383153e-05
2.054761904761904567e+00,5.677373483958149804e-06,-1.963535804458531409e-05
2.055555555555555358e+00,1.150027221490543760e-05,-1.802959983905352918e-05
2.056349206349206149e+00,1.529632568401500855e-05,-1.841178485243395293e-05
2.057142857142856940e+00,1.671408952515203119e-05,-2.225721366709773811e-05
2.057936507936507731e+00,1.585176452461920486e-05,-2.899057149686881592e-05
2.058730158730158522e+00,1.321261232599191460e-05,-3.623576933609134841e-05
2.059523809523809312e+00,9.563705983280363471e-06,-4.067547748737152706e-05
2.060317460317460103e+00,5.732098320465888850e-06,-3.919605567001974367e-05
2.061111111111110894e+00,2.393533345946175802e-06,-2.994304625309170343e-05
2.061904761904761685e+00,-9.006779316432410037e-08,-1.298808960787616272e-05
2.062698412698412920e+00,-1.744885285794678369e-06,9.560115822540062453e-06
2.063492063492063711e+00,-2.956939446605042155e-06,3.402204980118589433e-05
2.064285714285714501e+00,-4.350532261768846860e-06,5.606202472740098712e-05
2.065079365079365292e+00,-6.600062271401187587e-06,7.178895107210474952e-05
2.065873015873016083e+00,-1.021491085271309099e-05,7.871006278505148738e-05
2.066666666666666874e+00,-1.534786224254405782e-05,7.624383690282784964e-05
2.067460317460317665e+00,-2.168235797657720737e-05,6.565297792192171882e-05
2.068253968253968456e+00,-2.844392213640552924e-05,4.946849397529887198e-05
2.069047619047619246e+00,-3.455000872086310863e-05,3.064703042592804611e-05
2.069841269841270037e+00,-3.886629956819065120e-05,1.176297287782145048e-05
2.070634920634920828e+00,-4.049658983532217915e-05,-5.527924436837323582e-06
2.071428571428571619e+00,-3.901981873581887442e-05,-2.065319522164876310e-05
2.072222222222222410e+00,-3.460716799088558879e-05,-3.394637871845235374e-05
2.073015873015873201e+00,-2.799162103150635837e-05,-4.623625191634170523e-05
2.073809523809523991e+00,-2.030436357472049485e-05,-5.834383991351926228e-05
2.074603174603174782e+00,-1.282517730188535544e-05,-7.063267340574761128e-05
2.075396825396825573e+00,-6.711502337982611938e-06,-8.273537745095048618e-05
2.076190476190476364e+00,-2.770100115828330939e-06,-9.352830140540229430e-05
2.076984126984127155e+00,-1.317283055124955060e-06,-1.013537602500388566e-04
2.077777777777777946e+00,-2.145924866067142459e-06,-1.044169899246090254e-04
2.078571428571428736e+00,-4.591643541985379349e-06,-1.012383219632610873e-04
2.079365079365079527e+00,-7.675521880716906870e-06,-9.103972612449017334e-05
2.080158730158730318e+00,-1.029667703484023502e-05,-7.398565268639415251e-05
2.080952380952381109e+00,-1.144761631835320554e-05,-5.125076550215213074e-05
2.081746031746031900e+00,-1.042135798737202792e-05,-2.491777217551656735e-05
2.082539682539682691e+00,-6.972273069754284288e-06,2.284327354980611530e-06
2.083333333333333481e+00,-1.391345911927146718e-06,2.737795930291401741e-05
2.084126984126984272e+00,5.530492628420203487e-06,4.761151824402286596e-05
2.084920634920635063e+00,1.265145059022806408e-05,6.091569686579269342e-05
2.085714285714285854e+00,1.871248200410135886e-05,6.624068342825055879e-05
2.086507936507936645e+00,2.260656467281100553e-05,6.370243568328871637e-05
2.087301587301587436e+00,2.362476563882574576e-05,5.451461223117907696e-05
2.088095238095238226e+00,2.162122711894639339e-05,4.073328920847767317e-05
2.088888888888889017e+00,1.705317160270651924e-05,2.488052857695519774e-05
2.089682539682539808e+00,1.088088205047378892e-05,9.528731033843584837e-06
2.090476190476190599e+00,4.350970710724768173e-06,-3.082534153801244714e-06
2.091269841269841390e+00,-1.280589027262620843e-06,-1.135127898180727570e-05
2.092063492063492181e+00,-5.015263516025111430e-06,-1.451580869306947881e-05
2.092857142857142971e+00,-6.305887809504082205e-06,-1.273805781010539220e-05
2.093650793650793762e+00,-5.137274928652111640e-06,-7.046505177814769290e-06
2.094444444444444553e+00,-1.982479530793010606e-06,8.759457003167555123e-07
2.095238095238095344e+00,2.345716892383583230e-06,9.043128392258867188e-06
2.096031746031746135e+00,6.904647193503005770e-06,1.559259149640531805e-05
2.096825396825396925e+00,1.083989030633716693e-05,1.918667765274589750e-05
2.097619047619047716e+00,1.356403394910062357e-05,1.928079158613027439e-05
2.098412698412698507e+00,1.486123410585865642e-05,1.618633529285034236e-05
2.099206349206349298e+00,1.489617887365983921e-05,1.091614441334115230e-05
2.100000000000000089e+00,1.412229528104516254e-05,4.864588482334675759e-06
2.100793650793650880e+00,1.310841427674080850e-05,-5.779884991666171088e-07
2.101587301587301670e+00,1.233172439600708459e-05,-4.361712330344936949e-06
2.102380952380952461e+00,1.200361051431173138e-05,-5.972976956594357172e-06
2.103174603174603252e+00,1.199031894064725926e-05,-5.452624953374256735e-06
2.103968253968254043e+00,1.185955181772231237e-05,-3.265851910213677380e-06
2.104761904761904834e+00,1.103867418872806023e-05,-1.022911074452390342e-07
2.105555555555555625e+00,9.030575729654243095e-06,3.310016499584591536e-06
2.106349206349206415e+00,5.615822145016526303e-06,6.335008442189925367e-06
2.107142857142857206e+00,9.776413011796179612e-07,8.519120588787025775e-06
2.107936507936507997e+00,-4.289235653080968726e-06,9.681958759351098347e-06
2.108730158730158788e+00,-9.295111598963917660e-06,1.001288136506984839e-05
2.109523809523809579e+00,-1.307714033046277739e-05,1.011450399711720172e-05
2.110317460317460370e+00,-1.487738732436687817e-05,1.090325970081996876e-05
2.111111111111111160e+00,-1.440157759088290788e-05,1.332518637749745053e-05
2.111904761904761951e+00,-1.196959079162046421e-05,1.795364031143808348e-05
2.112698412698412742e+00,-8.484084074061476217e-06,2.463068424141395880e-05
2.113492063492063533e+00,-5.194908004758035871e-06,3.232224744927716692e-05
2.114285714285714324e+00,-3.312267819705692241e-06,3.926761754687417425e-05
2.115079365079365115e+00,-3.590919952387791755e-06,4.337639361012887159e-05
2.115873015873015905e+00,-6.036449226530554310e-06,4.273864331616011148e-05
2.116666666666666696e+00,-9.852382104697700389e-06,3.610400375911161186e-05
2.117460317460317487e+00,-1.366253231594142849e-05,2.323278292750018242e-05
2.118253968253968278e+00,-1.594342583064700569e-05,5.072936624488645722e-06
2.119047619047619069e+00,-1.552875341072028342e-05,-1.626689537213817712e-05
2.119841269841269860e+00,-1.202409235541504541e-05,-3.778052774844464366e-05
2.120634920634920650e+00,-5.996061717316349872e-06,-5.606915037022386941e-05
2.121428571428571441e+00,1.134403539572591433e-06,-6.801912878577228946e-05
2.122222222222222232e+00,7.475238034766921976e-06,-7.149776759374748515e-05
2.123015873015873023e+00,1.121355327320206976e-05,-6.587389835923767841e-05
2.123809523809523814e+00,1.116476627630711158e-05,-5.221189656205044995e-05
2.124603174603174605e+00,7.149145564974776089e-06,-3.309070739460424806e-05
2.125396825396825395e+00,7.911260798887517104e-08,-1.210989319681330597e-05
2.126190476190476186e+00,-8.270024179304084146e-06,6.788173514251743199e-06
2.126984126984126977e+00,-1.574068192156143957e-05,2.004498899855767765e-05
2.127777777777777768e+00,-2.038673953525893960e-05,2.516083091710168119e-05
2.128571428571428559e+00,-2.100414569264065119e-05,2.124664093714641447e-05
2.129365079365079350e+00,-1.743543083741468607e-05,9.369186156216916013e-06
2.130158730158730140e+00,-1.055894219214689455e-05,-7.437233425913016115e-06
2.130952380952380931e+00,-1.986827801741074341e-06,-2.462488629393487667e-05
2.131746031746031722e+00,6.406498442051565301e-06,-3.708415782439685452e-05
2.132539682539682513e+00,1.297041580970982759e-05,-4.042907022580862977e-05
2.133333333333333304e+00,1.665392426733915533e-05,-3.227052738349075431e-05
2.134126984126984095e+00,1.720002548887492806e-05,-1.307736894239119341e-05
2.134920634920634885e+00,1.513358097147200312e-05,1.367013471085512265e-05
2.135714285714285676e+00,1.155595248562143874e-05,4.212999024692685925e-05
2.136507936507936467e+00,7.799767601721898177e-06,6.542865723411803798e-05
2.137301587301587258e+00,5.036333244175519900e-06,7.735472347622728256e-05
2.138095238095238049e+00,3.951220431755783427e-06,7.396933824730635360e-05
2.138888888888888840e+00,4.591827393109442980e-06,5.468105765329126015e-05
2.139682539682539630e+00,6.435244659887633067e-06,2.248067185374411171e-05
2.140476190476190421e+00,8.640717203530570383e-06,-1.671887121628887118e-05
2.141269841269841212e+00,1.037890035632062979e-05,-5.544389855948851853e-05
2.142063492063492003e+00,1.110945802440895459e-05,-8.635985136569250802e-05
2.142857142857142794e+00,1.071660414668613271e-05,-1.038808578556738818e-04
2.143650793650793585e+00,9.480933833540333702e-06,-1.052979566577700286e-04
2.144444444444444375e+00,7.926933947476742199e-06,-9.116921275295854145e-05
2.145238095238095166e+00,6.615793764538481793e-06,-6.492001735009622187e-05
2.146031746031745957e+00,5.952236165819036979e-06,-3.182137238102949415e-05
2.146825396825396748e+00,6.055478084979499155e-06,2.325961625199242765e-06
2.147619047619047539e+00,6.721761628595419158e-06,3.243037237006347401e-05
2.148412698412698330e+00,7.484688882559540439e-06,5.497878675797170653e-05
2.149206349206349120e+00,7.758108749598125294e-06,6.839467704149465469e-05
2.149999999999999911e+00,7.023865996635830043e-06,7.290020173368036210e-05
2.150793650793650702e+00,5.009789339470792195e-06,7.001762589931434186e-05
2.151587301587301493e+00,1.801644944650170439e-06,6.190826252389314494e-05
2.152380952380952284e+00,-2.149316914302046080e-06,5.074867710278571468e-05
2.153174603174603075e+00,-6.129368297438635809e-06,3.829152224612131087e-05
2.153968253968253865e+00,-9.347046640220393134e-06,2.567729870284743142e-05
2.154761904761904656e+00,-1.114521216972307902e-05,1.348638030630452580e-05
2.155555555555555447e+00,-1.117770397596657922e-05,1.970580368716975451e-06
2.156349206349206238e+00,-9.498941472260865292e-06,-8.616205054527877389e-06
2.157142857142857029e+00,-6.541844746657306981e-06,-1.767498964846256205e-05
2.157936507936507819e+00,-2.994195548788601234e-06,-2.401020512275787579e-05
2.158730158730158610e+00,3.856543050838326655e-07,-2.580192675614048327e-05
2.159523809523809401e+00,2.956584730711381972e-06,-2.092925776196729053e-05
2.160317460317460192e+00,4.331444487177964015e-06,-7.678279470990230743e-06
2.161111111111110983e+00,4.426141898365280427e-06,1.431542379696325403e-05
2.161904761904761774e+00,3.410397414465789064e-06,4.322649100120868107e-05
2.162698412698412564e+00,1.577130764787162865e-06,7.470773490347595261e-05
2.163492063492063355e+00,-8.256897012903705222e-07,1.023560057689944339e-04
2.164285714285714146e+00,-3.735469344625405327e-06,1.190002646665884288e-04
2.165079365079364937e+00,-7.319162281691918368e-06,1.185367267764190130e-04
2.165873015873015728e+00,-1.188100472687630369e-05,9.781608693037294774e-05
2.166666666666666519e+00,-1.764936110665991416e-05,5.800326958511482469e-05
2.167460317460317309e+00,-2.451544247856426802e-05,4.900573161113767198e-06
2.168253968253968100e+00,-3.182699376329567621e-05,-5.203013852591337088e-05
2.169047619047618891e+00,-3.833260048156871648e-05,-1.018107640590688108e-04
2.169841269841269682e+00,-4.233293622797656741e-05,-1.346886079621794556e-04
2.170634920634920473e+00,-4.203580051105763529e-05,-1.446456867909438264e-04
2.171428571428571264e+00,-3.604565550003498695e-05,-1.308972074083783585e-04
2.172222222222222054e+00,-2.386287650151765660e-05,-9.794904251228326501e-05
2.173015873015872845e+00,-6.242688695519491800e-06,-5.425943127119239309e-05
2.173809523809523636e+00,1.471706437952567177e-05,-9.956575672024648176e-06
2.174603174603174427e+00,3.582600061867831842e-05,2.571591319870678838e-05
2.175396825396825218e+00,5.336309139401659911e-05,4.653870982001816642e-05
2.176190476190476009e+00,6.383292229607292318e-05,5.050660439898844539e-05
2.176984126984126799e+00,6.473917726082742690e-05,3.980329577111520553e-05
2.177777777777777590e+00,5.518581929346646510e-05,1.963856609869847348e-05
2.178571428571428381e+00,3.615046730320153732e-05,-3.625017099947027624e-06
2.179365079365079172e+00,1.034925219267904976e-05,-2.439005339264644959e-05
2.180158730158729963e+00,-1.828130624161430882e-05,-3.913276910504324019e-05
2.180952380952380754e+00,-4.535116637915914109e-05,-4.675156560246648065e-05
2.181746031746031544e+00,-6.683456541332594527e-05,-4.805391334714532650e-05
2.182539682539682335e+00,-7.975075155790926364e-05,-4.481687322773186257e-05
2.183333333333333126e+00,-8.258260337388200238e-05,-3.891452287273192861e-05
2.184126984126983917e+00,-7.538075164081421882e-05,-3.181744318463403511e-05
2.184920634920634708e+00,-5.956327763780345261e-05,-2.449920584397375343e-05
2.185714285714285499e+00,-3.748220474779282157e-05,-1.758760606750216015e-05
2.186507936507936289e+00,-1.188924386779019155e-05,-1.154435641199237059e-05
2.187301587301587080e+00,1.453652614243238135e-05,-6.732069467525294876e-06
2.188095238095238315e+00,3.947713577962285093e-05,-3.358407176370590560e-06
2.188888888888889106e+00,6.106415563449470911e-05,-1.382876599707791587e-06
2.189682539682539897e+00,7.785248531034078239e-05,-4.814436071757891516e-07
2.190476190476190688e+00,8.879147615717537226e-05,-1.073077152705868544e-07
2.191269841269841478e+00,9.325440959238397479e-05,3.787598443370435696e-07
2.192063492063492269e+00,9.111477629193104181e-05,1.562827032302605809e-06
2.192857142857143060e+00,8.281397988708002751e-05,3.857966116614081590e-06
2.193650793650793851e+00,6.936284421814145650e-05,7.426101489714864189e-06
2.194444444444444642e+00,5.224641890738145381e-05,1.214738456577029829e-05
2.195238095238095433e+00,3.323918083586980903e-05,1.764522826537291006e-05
2.196031746031746223e+00,1.416975682832024022e-05,2.337056873007182774e-05
2.196825396825397014e+00,-3.309460031516627202e-06,2.873186028962490405e-05
2.197619047619047805e+00,-1.789713339447070292e-05,3.323829510854141365e-05
2.198412698412698596e+00,-2.873540245993854290e-05,3.661132776483365148e-05
2.199206349206349387e+00,-3.542406561031150714e-05,3.881959148213527238e-05
2.200000000000000178e+00,-3.798257488872992631e-05,4.001486730675124552e-05
2.200793650793650968e+00,-3.678966687643696906e-05,4.039118812844183417e-05
2.201587301587301759e+00,-3.251933018852179973e-05,4.003015085755115668e-05
2.202380952380952550e+00,-2.607570250409998360e-05,3.880388178082420795e-05
2.203174603174603341e+00,-1.851765957018136526e-05,3.637912404289703937e-05
2.203968253968254132e+00,-1.096165475075948530e-05,3.232361926766828158e-05
2.204761904761904923e+00,-4.459773787670485815e-06,2.628247151771258028e-05
2.205555555555555713e+00,1.347183890109135536e-07,1.817114310996463327e-05
2.206349206349206504e+00,2.287764434707345657e-06,8.314692431940124787e-06
2.207142857142857295e+00,1.859761477938932723e-06,-2.543767285071691087e-06
2.207936507936508086e+00,-8.862247470135338578e-07,-1.341290641430688906e-05
2.208730158730158877e+00,-5.346558129541560496e-06,-2.337029963206060948e-05
2.209523809523809668e+00,-1.069370556201070337e-05,-3.189737616964530867e-05
2.210317460317460458e+00,-1.601980220220806990e-05,-3.904813208871353217e-05
2.211111111111111249e+00,-2.047718062543664265e-05,-4.531383169056247320e-05
2.211904761904762040e+00,-2.339185366717569600e-05,-5.119303093956595503e-05
2.212698412698412831e+00,-2.433681308050772985e-05,-5.665132675734722378e-05
2.213492063492063622e+00,-2.316453609842406637e-05,-6.075662298591459078e-05
2.214285714285714413e+00,-2.000800922256607583e-05,-6.173631383021074013e-05
2.215079365079365203e+00,-1.526169722716660135e-05,-5.752381603119119901e-05
2.215873015873015994e+00,-9.546398802719883436e-06,-4.661847739540178793e-05
2.216666666666666785e+00,-3.650592618038963034e-06,-2.890304588224691632e-05
2.217460317460317576e+00,1.563514746584403248e-06,-6.055249369984756166e-06
2.218253968253968367e+00,5.291285928971851134e-06,1.864228580827293475e-05
2.219047619047619158e+00,6.936103589284491858e-06,4.104987469410353081e-05
2.219841269841269948e+00,6.243164508517262906e-06,5.723853558145425052e-05
2.220634920634920739e+00,3.378566219261315276e-06,6.455014959707592117e-05
2.221428571428571530e+00,-1.069354041638475355e-06,6.233935658394736102e-05
2.222222222222222321e+00,-6.167891873123502818e-06,5.218545904536832288e-05
2.223015873015873112e+00,-1.078366823708358570e-05,3.750885442007266481e-05
2.223809523809523903e+00,-1.377398751044686703e-05,2.268570882890106238e-05
2.224603174603174693e+00,-1.420508619490921899e-05,1.189424431572479286e-05
2.225396825396825484e+00,-1.156806494654631671e-05,8.008573146286919350e-06
2.226190476190476275e+00,-5.950994040868071390e-06,1.184796035538300985e-05
2.226984126984127066e+00,1.881127666818558943e-06,2.198509075406663261e-05
2.227777777777777857e+00,1.054008948141887935e-05,3.514906732429502235e-05
2.228571428571428648e+00,1.822040356442698156e-05,4.709055490783639446e-05
2.229365079365079438e+00,2.303991374656705885e-05,5.367388026115263092e-05
2.230158730158730229e+00,2.345746408638076739e-05,5.194445420377575559e-05
2.230952380952381020e+00,1.867907581481903105e-05,4.094591687778597006e-05
2.231746031746031811e+00,8.953015588938972324e-06,2.208371348207433687e-05
2.232539682539682602e+00,-4.333487362430448374e-06,-1.126258873539863135e-06
2.233333333333333393e+00,-1.880929636895142977e-05,-2.395726386357875393e-05
2.234126984126984183e+00,-3.152845468590536178e-05,-4.182896446772828362e-05
2.234920634920634974e+00,-3.957401088538656345e-05,-5.170576496646941451e-05
2.235714285714285765e+00,-4.073847086936298643e-05,-5.303127511421794761e-05
2.236507936507936556e+00,-3.412500477324668105e-05,-4.782480567534126307e-05
2.237301587301587347e+00,-2.051156086625640658e-05,-3.987919990910217304e-05
2.238095238095238138e+00,-2.356244406937858096e-06,-3.335623685410113502e-05
2.238888888888888928e+00,1.661063565586020526e-05,-3.130879426233608968e-05
2.239682539682539719e+00,3.217199256698274114e-05,-3.466080426871254535e-05
2.240476190476190510e+00,4.064420993851315358e-05,-4.196221641621282694e-05
2.241269841269841301e+00,3.988679708473098675e-05,-4.993205926395514164e-05
2.242063492063492092e+00,3.000171778119541501e-05,-5.455142002390474926e-05
2.242857142857142883e+00,1.346705974346258964e-05,-5.234157696733399568e-05
2.243650793650793673e+00,-5.396174440119232306e-06,-4.145576589462946464e-05
2.244444444444444464e+00,-2.151358703939301338e-05,-2.229612756060874129e-05
2.245238095238095255e+00,-3.040760692317066174e-05,2.487372625286403238e-06
2.246031746031746046e+00,-2.942099062191238726e-05,2.858858833052497152e-05
2.246825396825396837e+00,-1.845321410078593614e-05,5.105333759818507142e-05
2.247619047619047628e+00,1.404387834806548924e-08,6.544651036790043088e-05
2.248412698412698418e+00,2.161366252597268325e-05,6.890639225909733572e-05
2.249206349206349209e+00,4.129480755196047071e-05,6.084869633236390535e-05
2.250000000000000000e+00,5.465206239853655126e-05,4.314847868970578130e-05
2.250793650793650791e+00,5.898345196709274698e-05,1.973067634144653489e-05
2.251587301587301582e+00,5.379989690863308164e-05,-4.354899411703319508e-06
2.252380952380952372e+00,4.070475162031151050e-05,-2.414017664956223593e-05
2.253174603174603163e+00,2.275374768789514550e-05,-3.588828881128592116e-05
2.253968253968253954e+00,3.539986206699213977e-06,-3.785997632402739318e-05
2.254761904761904745e+00,-1.370614487167273197e-05,-3.051314942991573131e-05
2.255555555555555536e+00,-2.676405621679407444e-05,-1.616001962660323411e-05
2.256349206349206327e+00,-3.469226564948413956e-05,1.723158754461507767e-06
2.257142857142857117e+00,-3.771135850499189308e-05,1.928050905762137196e-05
2.257936507936507908e+00,-3.678241020438147033e-05,3.295757092298043763e-05
2.258730158730158699e+00,-3.303392479115934853e-05,3.999177826718106489e-05
2.259523809523809490e+00,-2.723912642588775178e-05,3.872055570125329169e-05
2.260317460317460281e+00,-1.954149560931363054e-05,2.875599758949960892e-05
2.261111111111111072e+00,-9.545677326724098878e-06,1.105940026878099240e-05
2.261904761904761862e+00,3.254595343552258581e-06,-1.209832052770931417e-05
2.262698412698412653e+00,1.889806465299540141e-05,-3.734323003960165723e-05
2.263492063492063444e+00,3.650407027138314887e-05,-6.061874696177370608e-05
2.264285714285714235e+00,5.418103856266086532e-05,-7.780745446670764330e-05
2.265079365079365026e+00,6.936208734397024986e-05,-8.546179973944040265e-05
2.265873015873015817e+00,7.943721860299194184e-05,-8.149640550801911121e-05
2.266666666666666607e+00,8.242902155814915254e-05,-6.568713015274198739e-05
2.267460317460317398e+00,7.745873607962927196e-05,-3.985003566018063890e-05
2.268253968253968189e+00,6.485674506535852083e-05,-7.622649308206771131e-06
2.269047619047618980e+00,4.593101127839591927e-05,2.615561381275882595e-05
2.269841269841269771e+00,2.254372265677909398e-05,5.636366168476092690e-05
2.270634920634920562e+00,-3.303266981884878133e-06,7.861536794430064345e-05
2.271428571428571352e+00,-2.972482220779600702e-05,9.012014097573309236e-05
2.272222222222222143e+00,-5.501309763823905672e-05,9.017813117943976374e-05
2.273015873015872934e+00,-7.757153913837339706e-05,8.020985642988992786e-05
2.273809523809523725e+00,-9.584362986242827014e-05,6.333508140707293916e-05
2.274603174603174516e+00,-1.083405390344922088e-04,4.360618670241309417e-05
2.275396825396825307e+00,-1.138043412865470747e-04,2.507332706922683709e-05
2.276190476190476097e+00,-1.114631190828890709e-04,1.090570281746579527e-05
2.276984126984126888e+00,-1.012790545193515887e-04,2.779576862293618635e-06
2.277777777777777679e+00,-8.408377279111033413e-05,6.549946024038551269e-07
2.278571428571428470e+00,-6.153591404759585850e-05,2.944312480269121719e-06
2.279365079365079261e+00,-3.590053951625554919e-05,6.990576801041741416e-06
2.280158730158730052e+00,-9.705977912340956422e-06,9.741509891863925556e-06
2.280952380952380842e+00,1.463999530156640947e-05,8.497965714503083920e-06
2.281746031746031633e+00,3.519355242370102177e-05,1.607841662793430608e-06
2.282539682539682424e+00,5.070788353276915787e-05,-1.103276216400550744e-05
2.283333333333333215e+00,6.070287060145028853e-05,-2.780321036281535406e-05
2.284126984126984006e+00,6.535612156292807469e-05,-4.559685746562744792e-05
2.284920634920634797e+00,6.526375383928361383e-05,-6.047481997400570451e-05
2.285714285714285587e+00,6.117472457357890539e-05,-6.861296663610426286e-05
2.286507936507936378e+00,5.380439299195326517e-05,-6.731048742946685618e-05
2.287301587301587169e+00,4.377774321099431163e-05,-5.578287818678526335e-05
2.288095238095237960e+00,3.168091561773444490e-05,-3.550394461692644982e-05
2.288888888888888751e+00,1.815213883087523391e-05,-9.977267604837572405e-06
2.289682539682539542e+00,3.936346276452112787e-06,1.602589659315742105e-05
2.290476190476190332e+00,-1.013874576994880176e-05,3.756914420555078587e-05
2.291269841269841123e+00,-2.325007480345424232e-05,5.069259667126465809e-05
2.292063492063491914e+00,-3.467116596445810587e-05,5.327710056321782620e-05
2.292857142857142705e+00,-4.381392860007108671e-05,4.540769338091766525e-05
2.293650793650793496e+00,-5.021355093545559046e-05,2.918107786613480188e-05
2.294444444444444287e+00,-5.349440392639094453e-05,8.070704975868315094e-06
2.295238095238095077e+00,-5.335673144948517062e-05,-1.393745887926772634e-05
2.296031746031745868e+00,-4.959280441713326200e-05,-3.321421531220340061e-05
2.296825396825396659e+00,-4.211855846257282944e-05,-4.717715571088973106e-05
2.297619047619047450e+00,-3.101327100495665116e-05,-5.466757532773596981e-05
2.298412698412698241e+00,-1.657635091876931541e-05,-5.594316110226488638e-05
2.299206349206349032e+00,5.919245715260401574e-07,-5.230850055697353708e-05
2.299999999999999822e+00,1.950441472962556553e-05,-4.551022406281121565e-05
2.300793650793650613e+00,3.874486589188909477e-05,-3.709114815152682776e-05
2.301587301587301404e+00,5.653113544761107184e-05,-2.790140440571383786e-05
2.302380952380952195e+00,7.092298526292407251e-05,-1.791401177901351990e-05
2.303174603174602986e+00,8.015086422952751098e-05,-6.405597458122240422e-06
2.303968253968253777e+00,8.296659710723798076e-05,7.546437809995184630e-06
2.304761904761904567e+00,7.888377397857502062e-05,2.440859109397792680e-05
2.305555555555555358e+00,6.822140760106292390e-05,4.361030305193478135e-05
2.306349206349206149e+00,5.196367473768334589e-05,6.327447614886704311e-05
2.307142857142856940e+00,3.153028427163906996e-05,8.041496090734756704e-05
2.307936507936507731e+00,8.564719424549108246e-06,9.160190879224240743e-05
2.308730158730158522e+00,-1.519715489057177731e-05,9.391629454376588301e-05
2.309523809523809312e+00,-3.796926758320683511e-05,8.588401641876839668e-05
2.310317460317460103e+00,-5.789427415336845549e-05,6.806408626052434894e-05
2.311111111111110894e+00,-7.300990160004451948e-05,4.307823783738534180e-05
2.311904761904761685e+00,-8.127785814445728308e-05,1.505707184445316193e-05
2.312698412698412920e+00,-8.075825106277061821e-05,-1.133975638187232652e-05
2.313492063492063711e+00,-6.997728964736584986e-05,-3.204821829995878671e-05
2.314285714285714501e+00,-4.845613376042914985e-05,-4.454382025576328574e-05
2.315079365079365292e+00,-1.726948194804412253e-05,-4.832716213328950753e-05
2.315873015873016083e+00,2.058413310118391848e-05,-4.482079036860406849e-05
2.316666666666666874e+00,6.024941475040539152e-05,-3.675712052317597363e-05
2.317460317460317665e+00,9.568361705778793481e-05,-2.731525662226895202e-05
2.318253968253968456e+00,1.208739726577411262e-04,-1.931149969029931268e-05
2.319047619047619246e+00,1.312823161760273704e-04,-1.465013993080473332e-05
2.319841269841270037e+00,1.250365322189445343e-04,-1.408492783351431849e-05
2.320634920634920828e+00,1.034393084753464326e-04,-1.723324323484948717e-05
2.321428571428571619e+00,7.060538446577119623e-05,-2.276316096423031956e-05
2.322222222222222410e+00,3.235280562439170587e-05,-2.869978208046339337e-05
2.323015873015873201e+00,-5.276646825265403733e-06,-3.281054760595943098e-05
2.323809523809523991e+00,-3.740162176903233463e-05,-3.301023104432507417e-05
2.324603174603174782e+00,-6.120552108653970231e-05,-2.771149914568246154e-05
2.325396825396825573e+00,-7.617301896958133514e-05,-1.608171235896390132e-05
2.326190476190476364e+00,-8.369254864630794820e-05,1.759182868217363618e-06
2.326984126984127155e+00,-8.622949361633376543e-05,2.452940663858008615e-05
2.327777777777777946e+00,-8.635660050761373918e-05,4.957037237900350889e-05
2.328571428571428736e+00,-8.592019618550175383e-05,7.278895363703622248e-05
2.329365079365079527e+00,-8.554627582062752466e-05,8.902372332354772314e-05
2.330158730158730318e+00,-8.457970825872097691e-05,9.302080313326438856e-05
2.330952380952381109e+00,-8.143026357841626596e-05,8.092592377647998174e-05
2.331746031746031900e+00,-7.419530515816942138e-05,5.185533675172717495e-05
2.332539682539682691e+00,-6.136517718571815735e-05,8.907093002617684851e-06
2.333333333333333481e+00,-4.241335362592045901e-05,-4.093045184575086107e-05
2.334126984126984272e+00,-1.812977504545346040e-05,-8.813218492751395130e-05
2.334920634920635063e+00,9.356177742789929621e-06,-1.229167934176757845e-04
2.335714285714285854e+00,3.684190281924469909e-05,-1.377555197160134823e-04
2.336507936507936645e+00,6.055110665403253299e-05,-1.293332948458700803e-04
2.337301587301587436e+00,7.679845723993840875e-05,-9.939705171365989501e-05
2.338095238095238226e+00,8.272282738819022668e-05,-5.430775589246906738e-05
2.338888888888889017e+00,7.694712850097526209e-05,-3.502862392636519328e-06
2.339682539682539808e+00,6.000501797817846771e-05,4.266857580198269866e-05
2.340476190476190599e+00,3.441305962022361809e-05,7.520753933772216101e-05
2.341269841269841390e+00,4.340521408988738950e-06,8.835478190804785888e-05
2.342063492063492181e+00,-2.508839160646415928e-05,8.074935534270219852e-05
2.342857142857142971e+00,-4.873911834350670182e-05,5.563351793128421273e-05
2.343650793650793762e+00,-6.246375095216402011e-05,2.007021133606469909e-05
2.344444444444444553e+00,-6.392806630789471013e-05,-1.663920139661203155e-05
2.345238095238095344e+00,-5.307883440331915301e-05,-4.497747088603065469e-05
2.346031746031746135e+00,-3.214148158210824655e-05,-5.725907738691019563e-05
2.346825396825396925e+00,-5.145952401729718851e-06,-4.932622160845860236e-05
2.347619047619047716e+00,2.290702557367656474e-05,-2.158169118495161502e-05
2.348412698412698507e+00,4.704073054875564862e-05,2.087682746530600310e-05
2.349206349206349298e+00,6.323399623187022820e-05,6.912685847807035794e-05
2.350000000000000089e+00,6.910278873883699620e-05,1.122018302308497453e-04
2.350793650793650880e+00,6.422101779334131130e-05,1.394665735606737372e-04
2.351587301587301670e+00,5.005652990129207900e-05,1.430930049411896900e-04
2.352380952380952461e+00,2.957610737724862240e-05,1.200515147853215410e-04
2.353174603174603252e+00,6.626071438005952857e-06,7.307158825002387924e-05
2.353968253968254043e+00,-1.478608645465007489e-05,1.022451268800170124e-05
2.354761904761904834e+00,-3.119106098484130210e-05,-5.686561727755389911e-05
2.355555555555555625e+00,-4.023512284254234168e-05,-1.157523390313056733e-04
2.356349206349206415e+00,-4.104515373864299558e-05,-1.560739889986806751e-04
2.357142857142857206e+00,-3.431152743336661866e-05,-1.718006659504540718e-04
2.357936507936507997e+00,-2.206370530322724501e-05,-1.622344745670879437e-04
2.358730158730158788e+00,-7.176904904655532196e-06,-1.316263009413112621e-04
2.359523809523809579e+00,7.293366939388927831e-06,-8.769919710401547039e-05
2.360317460317460370e+00,1.881223783565415104e-05,-3.960896078269932139e-05
2.361111111111111160e+00,2.594327602087327414e-05,4.103863096081006595e-06
2.361904761904761951e+00,2.864969936157039793e-05,3.714156629490918165e-05
2.362698412698412742e+00,2.821645395399851558e-05,5.640500289590042436e-05
2.363492063492063533e+00,2.678902409354468170e-05,6.218970127645855842e-05
2.364285714285714324e+00,2.664206165509397384e-05,5.767020484448709129e-05
2.365079365079365115e+00,2.938349798728612220e-05,4.783683781517116972e-05
2.365873015873015905e+00,3.533324949435690508e-05,3.814013009494499339e-05
2.366666666666666696e+00,4.327776547958662442e-05,3.314370152677150621e-05
2.367460317460317487e+00,5.070117680359510147e-05,3.547343592793484007e-05
2.368253968253968278e+00,5.445369310178449094e-05,4.527882801105621348e-05
2.369047619047619069e+00,5.167543303892058138e-05,6.030167639752526766e-05
2.369841269841269860e+00,4.070024821149149431e-05,7.650359904934056477e-05
2.370634920634920650e+00,2.166327718821393640e-05,8.907828040791936736e-05
2.371428571428571441e+00,-3.369892330274181644e-06,9.360541237239684549e-05
2.372222222222222232e+00,-3.079098613081257557e-05,8.709862584246298928e-05
2.373015873015873023e+00,-5.625529586773080336e-05,6.872990732829281949e-05
2.373809523809523814e+00,-7.570691327605212433e-05,4.005543320856172387e-05
2.374603174603174605e+00,-8.636240889054570087e-05,4.652589537050463458e-06
2.375396825396825395e+00,-8.737794279738917693e-05,-3.275495084779666996e-05
2.376190476190476186e+00,-7.998059303171069646e-05,-6.740494306862845929e-05
2.376984126984126977e+00,-6.699036689085228775e-05,-9.545301187416967972e-05
2.377777777777777768e+00,-5.186792399529397053e-05,-1.144801494951225816e-04
2.378571428571428559e+00,-3.760991481909759616e-05,-1.234889909089350592e-04
2.379365079365079350e+00,-2.588421529282854250e-05,-1.225641047006511175e-04
2.380158730158730140e+00,-1.670801439404700638e-05,-1.124756052943013312e-04
2.380952380952380931e+00,-8.756071821223294048e-06,-9.444236188174936738e-05
2.381746031746031722e+00,-1.385980399620183752e-07,-7.010734892441862617e-05
2.382539682539682513e+00,1.068008836386634176e-05,-4.161816093595953266e-05
2.383333333333333304e+00,2.416746604035933330e-05,-1.163859606496146705e-05
2.384126984126984095e+00,3.943317554848254313e-05,1.682867325791794082e-05
2.384920634920634885e+00,5.439965810292318895e-05,4.080650750057558283e-05
2.385714285714285676e+00,6.632053040423071090e-05,5.779641201352853303e-05
2.386507936507936467e+00,7.246479128352060269e-05,6.620019081733222773e-05
2.387301587301587258e+00,7.078183330512988116e-05,6.562116918941641097e-05
2.388095238095238049e+00,6.039649977507747884e-05,5.699252313455254891e-05
2.388888888888888840e+00,4.183821359545913146e-05,4.249806964962489270e-05
2.389682539682539630e+00,1.697556042786568066e-05,2.526007811335747279e-05
2.390476190476190421e+00,-1.130291670195783009e-05,8.795465304663155047e-06
2.391269841269841212e+00,-3.956759350203080145e-05,-3.697070825801797661e-06
2.392063492063492003e+00,-6.437501576023563850e-05,-1.007344202950543798e-05
2.392857142857142794e+00,-8.275469050892658176e-05,-9.797593486192114159e-06
2.393650793650793585e+00,-9.260306490308142498e-05,-4.116068527466903342e-06
2.394444444444444375e+00,-9.295014996684420965e-05,4.244715684359285041e-06
2.395238095238095166e+00,-8.406058940891221215e-05,1.180949060439559952e-05
2.396031746031745957e+00,-6.733633174074303736e-05,1.532956567182925821e-05
2.396825396825396748e+00,-4.502845383991331926e-05,1.273957586130483484e-05
2.397619047619047539e+00,-1.982705151165697511e-05,3.820206329264064061e-06
2.398412698412698330e+00,5.565024836718719279e-06,-9.649364355214709165e-06
2.399206349206349120e+00,2.878607317139172115e-05,-2.432826517672947701e-05
2.399999999999999911e+00,4.805989828909724916e-05,-3.622792932434476369e-05
2.400793650793650702e+00,6.233024978558724164e-05,-4.182355908115579710e-05
2.401587301587301493e+00,7.128403977623183206e-05,-3.902361583612264578e-05
2.402380952380952284e+00,7.525051629696535794e-05,-2.773012119174739324e-05
2.403174603174603075e+00,7.498429625971536735e-05,-9.875606591369305335e-06
2.403968253968253865e+00,7.139335569481367624e-05,1.102387793608245107e-05
2.404761904761904656e+00,6.530597088136704063e-05,3.066087245649163555e-05
2.405555555555555447e+00,5.733987901033049401e-05,4.489522524399217567e-05
2.406349206349206238e+00,4.786806037145446824e-05,5.069230498843510968e-05
2.407142857142857029e+00,3.703527986605635537e-05,4.685184063604992888e-05
2.407936507936507819e+00,2.479947626605549801e-05,3.435219103666166786e-05
2.408730158730158610e+00,1.102088182754820232e-05,1.619193094533543251e-05
2.409523809523809401e+00,-4.358943355716849630e-06,-3.278865784517594343e-06
2.410317460317460192e+00,-2.105014469264973798e-05,-1.940394642821191760e-05
2.411111111111110983e+00,-3.814787589515803833e-05,-2.837994218792836483e-05
2.411904761904761774e+00,-5.401453550866750153e-05,-2.820088715237600686e-05
2.412698412698412564e+00,-6.643134688474563359e-05,-1.910267884857160198e-05
2.413492063492063355e+00,-7.302429982519712437e-05,-3.378494646461315939e-06
2.414285714285714146e+00,-7.184283355338421523e-05,1.534723372622123902e-05
2.415079365079364937e+00,-6.191541938658472459e-05,3.311435298915281548e-05
2.415873015873015728e+00,-4.363700291762382733e-05,4.655011413742284732e-05
2.416666666666666519e+00,-1.890375478138361565e-05,5.345044357769525046e-05
2.417460317460317309e+00,9.046854714587059467e-06,5.292352544199412209e-05
2.418253968253968100e+00,3.610044106780621018e-05,4.518558068520365210e-05
2.419047619047618891e+00,5.798861655531683260e-05,3.121070629788513535e-05
2.419841269841269682e+00,7.113890364464695287e-05,1.243938338000603101e-05
2.420634920634920473e+00,7.344281932510303543e-05,-9.338937937764410323e-06
2.421428571428571264e+00,6.471940059136506700e-05,-3.195454225962045215e-05
2.422222222222222054e+00,4.672947449012025581e-05,-5.283665062956499522e-05
2.423015873015872845e+00,2.274093445876022783e-05,-6.920434857671726493e-05
2.423809523809523636e+00,-3.210749200396997762e-06,-7.856001635759520322e-05
2.424603174603174427e+00,-2.714710078870334438e-05,-7.936091617858330189e-05
2.425396825396825218e+00,-4.585206104466386533e-05,-7.157421845885387417e-05
2.426190476190476009e+00,-5.732885650361627193e-05,-5.682349230692275481e-05
2.426984126984126799e+00,-6.096327428103979422e-05,-3.801194564872735292e-05
2.427777777777777590e+00,-5.741498422305226369e-05,-1.854753883890447570e-05
2.428571428571428381e+00,-4.830515174097294213e-05,-1.461837491017921388e-06
2.429365079365079172e+00,-3.579409198336587364e-05,1.127121727827971142e-05
2.430158730158729963e+00,-2.214323614201675267e-05,1.903394721826980198e-05
2.430952380952380754e+00,-9.337221337504501235e-06,2.246841584567161039e-05
2.431746031746031544e+00,1.183203975064978730e-06,2.309261411656211282e-05
2.432539682539682335e+00,8.653128149239517773e-06,2.277590604249241711e-05
2.433333333333333126e+00,1.298221115296669900e-05,2.320865424319084114e-05
2.434126984126983917e+00,1.464308056366081312e-05,2.547717392062348490e-05
2.434920634920634708e+00,1.448320364923008008e-05,2.982614300275515413e-05
2.435714285714285499e+00,1.349628621431612035e-05,3.564600471280104233e-05
2.436507936507936289e+00,1.258667361871558098e-05,4.166572012185781009e-05
2.437301587301587080e+00,1.235592708799144300e-05,4.628279927009395904e-05
2.438095238095238315e+00,1.293761754939938582e-05,4.794353670504725151e-05
2.438888888888889106e+00,1.390699897399681843e-05,4.550017457887968784e-05
2.439682539682539897e+00,1.429666808725617645e-05,3.850250524582037905e-05
2.440476190476190688e+00,1.275145885382572789e-05,2.740242507334001787e-05
2.441269841269841478e+00,7.841364082149106541e-06,1.363859015121999872e-05
2.442063492063492269e+00,-1.492567298584935195e-06,-4.708770918645405634e-07
2.442857142857143060e+00,-1.544952195276122519e-05,-1.211868736441799468e-05
2.443650793650793851e+00,-3.298121308262064145e-05,-1.870507589280511336e-05
2.444444444444444642e+00,-5.165871746006341141e-05,-1.869932812126688367e-05
2.445238095238095433e+00,-6.790540505938330042e-05,-1.235841229490416621e-05
2.446031746031746223e+00,-7.762469442914443759e-05,-1.966771599135386734e-06
2.446825396825397014e+00,-7.713977064779882530e-05,8.582550727276008529e-06
2.447619047619047805e+00,-6.423935423512649459e-05,1.479579992112292640e-05
2.448412698412698596e+00,-3.902885346958614814e-05,1.289266726732271128e-05
2.449206349206349387e+00,-4.276216766005200644e-06,1.034816116576064398e-06
2.450000000000000178e+00,3.494478727332810868e-05,-1.991967504961243750e-05
2.450793650793650968e+00,7.228895300964488296e-05,-4.640998009480007972e-05
2.451587301587301759e+00,1.015760035151446958e-04,-7.297156267007820377e-05
2.452380952380952550e+00,1.181925622031335305e-04,-9.363207633199897698e-05
2.453174603174603341e+00,1.200398311257246738e-04,-1.034850905539445946e-04
2.453968253968254132e+00,1.077898809411286055e-04,-9.996437024157201357e-05
2.454761904761904923e+00,8.446221454327448180e-05,-8.345649223809731016e-05
2.455555555555555713e+00,5.453395350575894934e-05,-5.711132076889039491e-05
2.456349206349206504e+00,2.289007890198087181e-05,-2.594115409311378547e-05
2.457142857142857295e+00,-6.097825491675948933e-06,4.519700732229974330e-06
2.457936507936508086e+00,-2.917392589436382735e-05,2.961043161496043963e-05
2.458730158730158877e+00,-4.442822712076014200e-05,4.658685858979125488e-05
2.459523809523809668e+00,-5.123000898353807092e-05,5.500737521272491435e-05
2.460317460317460458e+00,-5.000951930371848444e-05,5.638389915617086407e-05
2.461111111111111249e+00,-4.201484399068056066e-05,5.329112374947198206e-05
2.461904761904762040e+00,-2.909349556757361824e-05,4.831613987645084514e-05
2.462698412698412831e+00,-1.347762675573638260e-05,4.324823474966704874e-05
2.463492063492063622e+00,2.462579482916675830e-06,3.875803916146105849e-05
2.464285714285714413e+00,1.649667037720935390e-05,3.457897828817951640e-05
2.465079365079365203e+00,2.680425383639948361e-05,2.999635362068220411e-05
2.465873015873015994e+00,3.219357799595123947e-05,2.436286331075782367e-05
2.466666666666666785e+00,3.223634620719601656e-05,1.742071081406316364e-05
2.467460317460317576e+00,2.729396080052557040e-05,9.363447234045707622e-06
2.468253968253968367e+00,1.841997743401018887e-05,7.131786986637332435e-07
2.469047619047619158e+00,7.149592232669415117e-06,-7.853650648306800832e-06
2.469841269841269948e+00,-4.780435374896906880e-06,-1.563017857423397704e-05
2.470634920634920739e+00,-1.571873289998703814e-05,-2.192529687573740036e-05
2.471428571428571530e+00,-2.433257096655487233e-05,-2.607042043758211810e-05
2.472222222222222321e+00,-2.974799810724661073e-05,-2.745296403552026338e-05
2.473015873015873112e+00,-3.158999050585488633e-05,-2.562404735041235579e-05
2.473809523809523903e+00,-2.994616209464232587e-05,-2.047163594905738614e-05
2.474603174603174693e+00,-2.529162640440657146e-05,-1.238594613565025494e-05
2.475396825396825484e+00,-1.840608103012482624e-05,-2.314186304284680665e-06
2.476190476190476275e+00,-1.029481201273751841e-05,8.366369820799622245e-06
2.476984126984127066e+00,-2.105244997367532934e-06,1.814599259198094579e-05
2.477777777777777857e+00,4.979971412695047097e-06,2.575235494668633805e-05
2.478571428571428648e+00,9.887857483019480754e-06,3.045013121874096622e-05
2.479365079365079438e+00,1.183293832912827409e-05,3.215060492615483127e-05
2.480158730158730229e+00,1.049546722228758932e-05,3.128894243370596771e-05
2.480952380952381020e+00,6.145237735160278358e-06,2.852267169033066398e-05
2.481746031746031811e+00,-3.461991125989175926e-07,2.437899878846981033e-05
2.482539682539682602e+00,-7.638540036987798572e-06,1.900121629074110204e-05
2.483333333333333393e+00,-1.419319577794652389e-05,1.210663271094908911e-05
2.484126984126984183e+00,-1.862889050210573524e-05,3.186076784759825757e-06
2.484920634920634974e+00,-2.007375290141387143e-05,-8.120544585151689900e-06
2.485714285714285765e+00,-1.840906271696955322e-05,-2.161498552001300929e-05
2.486507936507936556e+00,-1.431878646262227132e-05,-3.626971414333219907e-05
2.487301587301587347e+00,-9.115523410403597875e-06,-5.022910823161307379e-05
2.488095238095238138e+00,-4.385105343037146800e-06,-6.111717294337280261e-05
2.488888888888888928e+00,-1.547781697249745568e-06,-6.656816666100166693e-05
2.489682539682539719e+00,-1.456618254386537022e-06,-6.481249187009242851e-05
2.490476190476190510e+00,-4.142477744765695221e-06,-5.513270790171078138e-05
2.491269841269841301e+00,-8.775527077046311477e-06,-3.806148465539596892e-05
2.492063492063492092e+00,-1.385601398421696484e-05,-1.530299266787004645e-05
2.492857142857142883e+00,-1.758919803974462779e-05,1.053879670577651408e-05
2.493650793650793673e+00,-1.835848448693312910e-05,3.631299478126392857e-05
2.494444444444444464e+00,-1.519324525558780276e-05,5.869620463356289733e-05
2.495238095238095255e+00,-8.126989003778731062e-06,7.459856642921354399e-05
2.496031746031746046e+00,1.649244767076801428e-06,8.162675630558751414e-05
2.496825396825396837e+00,1.191079306280158115e-05,7.856979354091739700e-05
2.497619047619047628e+00,1.982651454433651355e-05,6.578080557204847730e-05
2.498412698412698418e+00,2.263794549158594741e-05,4.527646599890122167e-05
2.499206349206349209e+00,1.844395295797897640e-05,2.042668677165680036e-05
2.500000000000000000e+00,6.871928525545808803e-06,-4.741048320540783904e-06
2.500793650793650791e+00,-1.058308884740481254e-05,-2.642444326617032714e-05
2.501587301587301582e+00,-3.068378448247168329e-05,-4.183101974661311724e-05
2.502380952380952372e+00,-4.904148215876835579e-05,-4.963417957255846907e-05
2.503174603174603163e+00,-6.105062942494488346e-05,-5.002157737049888511e-05
2.503968253968253954e+00,-6.295635348282739834e-05,-4.440422941183325010e-05
2.504761904761904745e+00,-5.279967275421014927e-05,-3.493159286450859310e-05
2.505555555555555536e+00,-3.099705403788921614e-05,-2.396326165637759247e-05
2.506349206349206327e+00,-3.864824057061854959e-07,-1.361128836882445589e-05
2.507142857142857117e+00,3.430364923829210840e-05,-5.414643762604126701e-06
2.507936507936507908e+00,6.745906004207717806e-05,-1.607168445564960529e-07
2.508730158730158699e+00,9.381417141385073105e-05,2.156671003632191498e-06
2.509523809523809490e+00,1.095885940279998260e-04,2.256804698517075532e-06
2.510317460317460281e+00,1.132139253359393304e-04,1.375253768855798884e-06
2.511111111111111072e+00,1.054639905275272995e-04,9.539411990960477519e-07
2.511904761904761862e+00,8.898907853881540949e-05,2.245495988302525217e-06
2.512698412698412653e+00,6.743397231653821329e-05,5.916351089940500216e-06
2.513492063492063444e+00,4.442780978203896372e-05,1.178570271234836112e-05
2.514285714285714235e+00,2.274118037744817818e-05,1.882743263231468559e-05
2.515079365079365026e+00,3.825738492770734694e-06,2.547178894689078573e-05
2.515873015873015817e+00,-1.217626573155422985e-05,3.011529232547909910e-05
2.516666666666666607e+00,-2.600380958717465153e-05,3.164551412328126678e-05
2.517460317460317398e+00,-3.860327048661025851e-05,2.976427569192063228e-05
2.518253968253968189e+00,-5.045566466362989079e-05,2.497247815283071203e-05
2.519047619047618980e+00,-6.114788234367678980e-05,1.823790901804924714e-05
2.519841269841269771e+00,-6.934516426798928771e-05,1.052508114720021121e-05
2.520634920634920562e+00,-7.318327592043045895e-05,2.430797935424737798e-06
2.521428571428571352e+00,-7.095180698903952212e-05,-5.899814966612156755e-06
2.522222222222222143e+00,-6.182727472632314149e-05,-1.456321326631005410e-05
2.523015873015872934e+00,-4.637497710164297052e-05,-2.353900676935167342e-05
2.523809523809523725e+00,-2.660492175028290681e-05,-3.239948315464767111e-05
2.524603174603174516e+00,-5.536652794046461809e-06,-4.025559605639318053e-05
2.525396825396825307e+00,1.356900297860116938e-05,-4.597764567218863140e-05
2.526190476190476097e+00,2.802246027322575630e-05,-4.858379828750685012e-05
2.526984126984126888e+00,3.628270028876937877e-05,-4.759864514813624879e-05
2.527777777777777679e+00,3.815161848204197626e-05,-4.319881150422199027e-05
2.528571428571428470e+00,3.460503027935878464e-05,-3.608274192975833683e-05
2.529365079365079261e+00,2.739127270593580136e-05,-2.715476032852483232e-05
2.530158730158730052e+00,1.854893981153402471e-05,-1.720237000422056978e-05
2.530952380952380842e+00,9.956320093775115416e-06,-6.724588409832925346e-06
2.531746031746031633e+00,2.978292350154518209e-06,4.033052961115810917e-06
2.532539682539682424e+00,-1.750693046917316353e-06,1.489544830175302872e-05
2.533333333333333215e+00,-4.380623596367176582e-06,2.554935954845719188e-05
2.534126984126984006e+00,-5.723474413152370810e-06,3.541925686436869065e-05
2.534920634920634797e+00,-6.967700046784358191e-06,4.366977879432771094e-05
2.535714285714285587e+00,-9.282511101073664755e-06,4.931091208086387932e-05
2.536507936507936378e+00,-1.340461304659444989e-05,5.136354090480041115e-05
2.537301587301587169e+00,-1.932199284906496620e-05,4.906468484697785039e-05
2.538095238095237960e+00,-2.615821860014256098e-05,4.210355393902840890e-05
2.538888888888888751e+00,-3.231375647707257303e-05,3.084777185926457091e-05
2.539682539682539542e+00,-3.584936057449588157e-05,1.646737978755850529e-05
2.540476190476190332e+00,-3.501965315393247411e-05,8.536472290190244437e-07
2.541269841269841123e+00,-2.880402106960932155e-05,-1.370219816927313117e-05
2.542063492063491914e+00,-1.726280367710340813e-05,-2.498838598870105942e-05
2.542857142857142705e+00,-1.592887037064642289e-06,-3.134137893457035083e-05
2.543650793650793496e+00,1.613561983502443287e-05,-3.193979632120017004e-05
2.544444444444444287e+00,3.345751620123679320e-05,-2.685011555669761200e-05
2.545238095238095077e+00,4.803144140551025512e-05,-1.686640358545856815e-05
2.546031746031745868e+00,5.804607898501369916e-05,-3.260956166409516939e-06
2.546825396825396659e+00,6.244367940396150073e-05,1.243119085398135146e-05
2.547619047619047450e+00,6.097074506776383379e-05,2.852118315678043252e-05
2.548412698412698241e+00,5.410059668238126611e-05,4.317288708884097517e-05
2.549206349206349032e+00,4.287281995132328176e-05,5.438234248713618075e-05
2.549999999999999822e+00,2.868756520924210224e-05,6.004208586551893102e-05
2.550793650793650613e+00,1.308870009260759161e-05,5.818696662916123056e-05
2.551587301587301404e+00,-2.433275030666073582e-06,4.744877935641719476e-05
2.552380952380952195e+00,-1.659094416996621500e-05,2.763579041863533435e-05
2.553174603174602986e+00,-2.838236607859163167e-05,2.317357160385096185e-07
2.553968253968253777e+00,-3.710654433775918692e-05,-3.145709584907334838e-05
2.554761904761904567e+00,-4.234107749154743993e-05,-6.270945530549495170e-05
2.555555555555555358e+00,-4.392509334625907096e-05,-8.833709000871454357e-05
2.556349206349206149e+00,-4.197291987919427790e-05,-1.038975745616341895e-04
2.557142857142856940e+00,-3.690691116232886420e-05,-1.067523425855386834e-04
2.557936507936507731e+00,-2.947122233513462002e-05,-9.661367721300295178e-05
2.558730158730158522e+00,-2.068902841521714101e-05,-7.544998842105991356e-05
2.559523809523809312e+00,-1.174692215554848447e-05,-4.687100172233901301e-05
2.560317460317460103e+00,-3.816809568332147464e-06,-1.526713101233781724e-05
2.561111111111110894e+00,2.150420750554455779e-06,1.501786882564848389e-05
2.561904761904761685e+00,5.606939636773528959e-06,4.030834032572790668e-05
2.562698412698412920e+00,6.509103873095096428e-06,5.797481483055137095e-05
2.563492063492063711e+00,5.301174738301749356e-06,6.661859670626052530e-05
2.564285714285714501e+00,2.785168086842059689e-06,6.612232709337159545e-05
2.565079365079365292e+00,-8.095872086746379945e-08,5.758580033936048430e-05
2.565873015873016083e+00,-2.396737898691313039e-06,4.313076842563931057e-05
2.566666666666666874e+00,-3.490263714702330226e-06,2.556157562779624059e-05
2.567460317460317665e+00,-3.013883039065773007e-06,7.905559335632965422e-06
2.568253968253968456e+00,-9.565900550948472612e-07,-7.097322186299961912e-06
2.569047619047619246e+00,2.412903843357964889e-06,-1.745650914918416837e-05
2.569841269841270037e+00,6.643487678651273033e-06,-2.224441160870398832e-05
2.570634920634920828e+00,1.120446101103322673e-05,-2.168946818421598009e-05
2.571428571428571619e+00,1.556415696016961214e-05,-1.702562535248598150e-05
2.572222222222222410e+00,1.923109752947191109e-05,-1.013262126742348634e-05
2.573015873015873201e+00,2.176604094480450420e-05,-3.052382776137068967e-06
2.573809523809523991e+00,2.278951166604348651e-05,2.502367895898798169e-06
2.574603174603174782e+00,2.201142170736087155e-05,5.528739281326602967e-06
2.575396825396825573e+00,1.929534566720573276e-05,5.912205015817850116e-06
2.576190476190476364e+00,1.474541399784882881e-05,4.363088134139241353e-06
2.576984126984127155e+00,8.779447595111575548e-06,2.134601571423694930e-06
2.577777777777777946e+00,2.140201987137074463e-06,6.051147994190604860e-07
2.578571428571428736e+00,-4.194184520584001449e-06,8.434119671593904726e-07
2.579365079365079527e+00,-9.208772443395956477e-06,3.275470067512157379e-06
2.580158730158730318e+00,-1.212357610432689457e-05,7.536521257716690773e-06
2.580952380952381109e+00,-1.266064473546241533e-05,1.254158132567489831e-05
2.581746031746031900e+00,-1.120855142095352542e-05,1.676047340902170297e-05
2.582539682539682691e+00,-8.803422707620573353e-06,1.864157924542869814e-05
2.583333333333333481e+00,-6.899083133777350356e-06,1.708595489885861364e-05
2.584126984126984272e+00,-6.969329919437054736e-06,1.184128488006260317e-05
2.584920634920635063e+00,-1.004554113538347091e-05,3.689906750699700620e-06
2.585714285714285854e+00,-1.632281617513028525e-05,-5.643068996087434126e-06
2.586507936507936645e+00,-2.496124039308909544e-05,-1.385646650191105058e-05
2.587301587301587436e+00,-3.416797112190848119e-05,-1.863246265763000476e-05
2.588095238095238226e+00,-4.157587221748079096e-05,-1.825181786618940727e-05
2.588888888888889017e+00,-4.484515772130540529e-05,-1.210818650427538367e-05
2.589682539682539808e+00,-4.232804571885915771e-05,-9.856064777864402613e-07
2.590476190476190599e+00,-3.359031394518536146e-05,1.298364027080601140e-05
2.591269841269841390e+00,-1.961448822124539596e-05,2.669614614647003084e-05
2.592063492063492181e+00,-2.617745052473479449e-06,3.673430113953185365e-05
2.592857142857142971e+00,1.445044179021828371e-05,4.017592598935133266e-05
2.593650793650793762e+00,2.858205431254720507e-05,3.536424544715909349e-05
2.594444444444444553e+00,3.739452402904316208e-05,2.241624633652244584e-05
2.595238095238095344e+00,3.968321432154409286e-05,3.293658709507194378e-06
2.596031746031746135e+00,3.571179423572656153e-05,-1.860574805463534803e-05
2.596825396825396925e+00,2.713431824587336422e-05,-3.921036233390146785e-05
2.597619047619047716e+00,1.653316507185660736e-05,-5.465242448782828131e-05
2.598412698412698507e+00,6.703018893542074675e-06,-6.202226794127390123e-05
2.599206349206349298e+00,-8.197960901897480326e-08,-5.984411364879983514e-05
2.600000000000000089e+00,-2.591176798709087038e-06,-4.822299371373704925e-05
2.600793650793650880e+00,-8.275668857422228584e-07,-2.869662002944029064e-05
2.601587301587301670e+00,4.121217611391361478e-06,-3.880932882844153071e-06
2.602380952380952461e+00,1.049450979992922366e-05,2.297978749673876958e-05
2.603174603174603252e+00,1.640320158647061527e-05,4.846314679475985328e-05
2.603968253968254043e+00,2.034876648764030437e-05,6.936756111340410121e-05
2.604761904761904834e+00,2.156992039256526257e-05,8.304903240878611472e-05
2.605555555555555625e+00,2.013415169126433067e-05,8.769685431264921010e-05
2.606349206349206415e+00,1.678303802335865370e-05,8.253446370245437014e-05
2.607142857142857206e+00,1.261509210856194145e-05,6.791438993321432605e-05
2.607936507936507997e+00,8.722995425501064019e-06,4.527785006250097436e-05
2.608730158730158788e+00,5.896792688155554815e-06,1.697253250429771248e-05
2.609523809523809579e+00,4.471896462808289229e-06,-1.404610174751945964e-05
2.610317460317460370e+00,4.348533630730609302e-06,-4.458057254492117888e-05
2.611111111111111160e+00,5.149518982066060129e-06,-7.156885416933488910e-05
2.611904761904761951e+00,6.436462416846227579e-06,-9.242845573679255922e-05
2.612698412698412742e+00,7.890886674501054569e-06,-1.053359489814574828e-04
2.613492063492063533e+00,9.392078904527752307e-06,-1.094184944390315893e-04
2.614285714285714324e+00,1.097437621187140601e-05,-1.048373432297786367e-04
2.615079365079365115e+00,1.269885754656732533e-05,-9.275057537246857370e-05
2.615873015873015905e+00,1.450650872612079244e-05,-7.515504542710125700e-05
2.616666666666666696e+00,1.612162220899845282e-05,-5.461856980991539534e-05
2.617460317460317487e+00,1.704893352132835432e-05,-3.391995812312226190e-05
2.618253968253968278e+00,1.666931967218944147e-05,-1.562698679656914982e-05
2.619047619047619069e+00,1.440302178339365764e-05,-1.669915919754420833e-06
2.619841269841269860e+00,9.888331453262428920e-06,7.003178363270844394e-06
2.620634920634920650e+00,3.121760344668209522e-06,1.060094057621679663e-05
2.621428571428571441e+00,-5.480291268734977212e-06,1.043851351801180870e-05
2.622222222222222232e+00,-1.511550321650579151e-05,8.658906875703839345e-06
2.623015873015873023e+00,-2.471795907885527830e-05,7.769024308584756975e-06
2.623809523809523814e+00,-3.314172689891809880e-05,1.006936946981132267e-05
2.624603174603174605e+00,-3.936735065775107031e-05,1.708346056147780576e-05
2.625396825396825395e+00,-4.269023888002232311e-05,2.910936770912890824e-05
2.626190476190476186e+00,-4.285326314316241600e-05,4.501298423162400586e-05
2.626984126984126977e+00,-4.009430793290984929e-05,6.234809015946139222e-05
2.627777777777777768e+00,-3.509471060163553077e-05,7.781546261198336097e-05
2.628571428571428559e+00,-2.883650895753313794e-05,8.797559419424014063e-05
2.629365079365079350e+00,-2.240034896034099281e-05,9.004297948744307428e-05
2.630158730158730140e+00,-1.675347548373327884e-05,8.255606055117057751e-05
2.630952380952380931e+00,-1.258034012356905582e-05,6.575525464052063410e-05
2.631746031746031722e+00,-1.019363279564695928e-05,4.159201330558553306e-05
2.632539682539682513e+00,-9.536106907223311575e-06,1.338869359300548134e-05
2.633333333333333304e+00,-1.025586564437963236e-05,-1.476274827463486105e-05
2.634126984126984095e+00,-1.182191362905532358e-05,-3.873890789757323671e-05
2.634920634920634885e+00,-1.364640024513624467e-05,-5.511826274008300286e-05
2.635714285714285676e+00,-1.518916589759222812e-05,-6.176531713652364170e-05
2.636507936507936467e+00,-1.603016100368707115e-05,-5.814348158935220723e-05
2.637301587301587258e+00,-1.590226089672254516e-05,-4.529381462710786429e-05
2.638095238095238049e+00,-1.468354558312098677e-05,-2.550709026226329230e-05
2.638888888888888840e+00,-1.235745025382881466e-05,-1.805872465611918100e-06
2.639682539682539630e+00,-8.959500039482376979e-06,2.260295184306817870e-05
2.640476190476190421e+00,-4.534718220767627413e-06,4.476985795540285967e-05
2.641269841269841212e+00,8.740975535545201141e-07,6.227625038156309634e-05
2.642063492063492003e+00,7.199289645786476302e-06,7.334977956131562499e-05
2.642857142857142794e+00,1.429032543501889248e-05,7.687026659326740084e-05
2.643650793650793585e+00,2.184695622201847127e-05,7.232407382329661795e-05
2.644444444444444375e+00,2.937426320592867798e-05,5.976098709905384586e-05
2.645238095238095166e+00,3.618969538903348091e-05,3.979563967906687180e-05
2.646031746031745957e+00,4.149940291094389037e-05,1.366615580939509239e-05
2.646825396825396748e+00,4.453729828165254874e-05,-1.668620236798415849e-05
2.647619047619047539e+00,4.473418271790214441e-05,-4.859958921284668559e-05
2.648412698412698330e+00,4.186934905505740903e-05,-7.882803872772556016e-05
2.649206349206349120e+00,3.616083915898786173e-05,-1.038742164349782857e-04
2.649999999999999911e+00,2.826840127345897424e-05,-1.204752558049157436e-04
2.650793650793650702e+00,1.920476167672659484e-05,-1.261257585905824566e-04
2.651587301587301493e+00,1.016973317479124955e-05,-1.195027529326524597e-04
2.652380952380952284e+00,2.336865159729428301e-06,-1.006981574013199549e-04
2.653174603174603075e+00,-3.366426882199816735e-06,-7.123532502113926628e-05
2.653968253968253865e+00,-6.438869083409936908e-06,-3.390202040510005598e-05
2.654761904761904656e+00,-6.903294377358155043e-06,7.551937702527102072e-06
2.655555555555555447e+00,-5.297980008017953115e-06,4.881318898913731614e-05
2.656349206349206238e+00,-2.564688499357121035e-06,8.546455636201024807e-05
2.657142857142857029e+00,1.379916531494795249e-07,1.134618350477482646e-04
2.657936507936507819e+00,1.657702015230668067e-06,1.295749133012728555e-04
2.658730158730158610e+00,1.074706363673596342e-06,1.317469609505535547e-04
2.659523809523809401e+00,-2.094294429229439646e-06,1.193488361895514351e-04
2.660317460317460192e+00,-7.742929825059482145e-06,9.333224659390978171e-05
2.661111111111110983e+00,-1.511053306512957188e-05,5.628718714526870155e-05
2.661904761904761774e+00,-2.284988281052971034e-05,1.236898504587770860e-05
2.662698412698412564e+00,-2.925800242389618719e-05,-3.299836547561606410e-05
2.663492063492063355e+00,-3.266022654445568935e-05,-7.374675709886449886e-05
2.664285714285714146e+00,-3.187276312941390475e-05,-1.041229895087905963e-04
2.665079365079364937e+00,-2.660121643889452192e-05,-1.198002506193311401e-04
2.665873015873015728e+00,-1.760784655956146449e-05,-1.188016086597386750e-04
2.666666666666666519e+00,-6.544538664191598265e-06,-1.019045698628774188e-04
2.667460317460317309e+00,4.509258986995241109e-06,-7.239131511422161396e-05
2.668253968253968100e+00,1.362832407338661972e-05,-3.526390502865592416e-05
2.669047619047618891e+00,1.952474458400636415e-05,3.793110494078081934e-06
2.669841269841269682e+00,2.177658484257927554e-05,3.940466485382645019e-05
2.670634920634920473e+00,2.076429883599897254e-05,6.724719619818114356e-05
2.671428571428571264e+00,1.738937878379454116e-05,8.446968823485594016e-05
2.672222222222222054e+00,1.271181718944692379e-05,8.983503398051257316e-05
2.673015873015872845e+00,7.637241393915961132e-06,8.367409539189745067e-05
2.673809523809523636e+00,2.731783913479638998e-06,6.773053430236696166e-05
2.674603174603174427e+00,-1.815047842997160535e-06,4.492777348948874587e-05
2.675396825396825218e+00,-6.096701961204495166e-06,1.905330903832270191e-05
2.676190476190476009e+00,-1.030265544469005000e-05,-5.649983067470315674e-06
2.676984126984126799e+00,-1.449100950891560113e-05,-2.498321868962334369e-05
2.677777777777777590e+00,-1.838806398605255478e-05,-3.536948465085748442e-05
2.678571428571428381e+00,-2.129170753529703044e-05,-3.448813716631924980e-05
2.679365079365079172e+00,-2.214656907148650523e-05,-2.190400338018042546e-05
2.680158730158729963e+00,-1.981635893397440862e-05,4.470412183709860141e-07
2.680952380952380754e+00,-1.350200487297186904e-05,2.812481567909222947e-05
2.681746031746031544e+00,-3.171744027419488615e-06,5.460661955804466399e-05
2.682539682539682335e+00,1.017180262561622945e-05,7.235485732803031034e-05
2.683333333333333126e+00,2.453016270541601168e-05,7.443356218105154527e-05
2.684126984126983917e+00,3.729372626169754045e-05,5.636855904449218993e-05
2.684920634920634708e+00,4.587898362569126364e-05,1.777067565058191114e-05
2.685714285714285499e+00,4.841692291727711249e-05,-3.683453335407287527e-05
2.686507936507936289e+00,4.426381707369524214e-05,-9.842035522914092569e-05
2.687301587301587080e+00,3.416902963197609002e-05,-1.552339609784714766e-04
2.688095238095238315e+00,2.005099104254362942e-05,-1.955727274510244708e-04
2.688888888888889106e+00,4.457480533287631739e-06,-2.107773794217210567e-04
2.689682539682539897e+00,-1.010786033982988016e-05,-1.975026980443098351e-04
2.690476190476190688e+00,-2.175853434547255681e-05,-1.585368904253139412e-04
2.691269841269841478e+00,-2.950999469359201130e-05,-1.019360700137489297e-04
2.692063492063492269e+00,-3.323230598787281926e-05,-3.880666247809453847e-05
2.692857142857143060e+00,-3.338169725781876129e-05,1.953319675025777996e-05
2.693650793650793851e+00,-3.068636251684612895e-05,6.418646084242171689e-05
2.694444444444444642e+00,-2.591701017906296162e-05,9.045272005663989060e-05
2.695238095238095433e+00,-1.978276503351253734e-05,9.840979690506416718e-05
2.696031746031746223e+00,-1.292384529486444373e-05,9.229772890006418139e-05
2.696825396825397014e+00,-5.944628750076032337e-06,7.898435597372209895e-05
2.697619047619047805e+00,5.643463565457226393e-07,6.598277938204767559e-05
2.698412698412698596e+00,6.042904489833238875e-06,5.955179930005061873e-05
2.699206349206349387e+00,1.001452799683669652e-05,6.332038262446372588e-05
2.700000000000000178e+00,1.215400647880499810e-05,7.766842604537279812e-05
2.700793650793650968e+00,1.234244719194959462e-05,9.985962002094220171e-05
2.701587301587301759e+00,1.069145523710652051e-05,1.247581757615521636e-04
2.702380952380952550e+00,7.531894378566449452e-06,1.459134584193327779e-04
2.703174603174603341e+00,3.373478336408206937e-06,1.568302189771701922e-04
2.703968253968254132e+00,-1.154364605142640928e-06,1.522769825787206616e-04
2.704761904761904923e+00,-5.372356565909200400e-06,1.294633757323619347e-04
2.705555555555555713e+00,-8.628772508501038715e-06,8.885773876746456816e-05
2.706349206349206504e+00,-1.038236059046111064e-05,3.440081436191351835e-05
2.707142857142857295e+00,-1.028455554057883589e-05,-2.703590406538610263e-05
2.707936507936508086e+00,-8.249185660673047097e-06,-8.690985425199572413e-05
2.708730158730158877e+00,-4.494727074413192083e-06,-1.367343675915958976e-04
2.709523809523809668e+00,4.568019359659981876e-07,-1.698633039243139891e-04
2.710317460317460458e+00,5.838847836511191366e-06,-1.828792839674896545e-04
2.711111111111111249e+00,1.076332148995223048e-05,-1.762244152797652185e-04
2.711904761904762040e+00,1.439392039126590854e-05,-1.539126894288338730e-04
2.712698412698412831e+00,1.613088458033190602e-05,-1.224034577073756765e-04
2.713492063492063622e+00,1.575352713803487912e-05,-8.893078775114571764e-05
2.714285714285714413e+00,1.347509508092137099e-05,-5.972632417253428576e-05
2.715079365079365203e+00,9.892808218748721562e-06,-3.860508936898289056e-05
2.715873015873015994e+00,5.849276415254393372e-06,-2.628520308153955743e-05
2.716666666666666785e+00,2.245270220353841970e-06,-2.060400760882868544e-05
2.717460317460317576e+00,-1.489057653296000723e-07,-1.753392767966342679e-05
2.718253968253968367e+00,-8.446003885941586298e-07,-1.267029675209756435e-05
2.719047619047619158e+00,2.728379787501059321e-07,-2.733695770677205259e-06
2.719841269841269948e+00,2.915208466528120871e-06,1.335645463155523370e-05
2.720634920634920739e+00,6.422112136458168457e-06,3.413041529701306052e-05
2.721428571428571530e+00,9.846751788912813869e-06,5.600530196120274284e-05
2.722222222222222321e+00,1.209403176723140124e-05,7.435371730967508879e-05
2.723015873015873112e+00,1.210497016986796126e-05,8.488530265718856143e-05
2.723809523809523903e+00,9.071689975051050312e-06,8.494615015234583462e-05
2.724603174603174693e+00,2.652791903699889978e-06,7.435575126467567470e-05
2.725396825396825484e+00,-6.856360052352049389e-06,5.551684148259065433e-05
2.726190476190476275e+00,-1.845275010296554578e-05,3.274639005290067164e-05
2.726984126984127066e+00,-3.050085282422516553e-05,1.103605969197841844e-05
2.727777777777777857e+00,-4.097121554887978186e-05,-5.340315896501213529e-06
2.728571428571428648e+00,-4.781726573220771554e-05,-1.389813397317044449e-05
2.729365079365079438e+00,-4.942559059252150429e-05,-1.435870783186602891e-05
2.730158730158730229e+00,-4.504830378351861050e-05,-8.362526064420499000e-06
2.730952380952381020e+00,-3.511067459847460985e-05,1.281065158771042585e-06
2.731746031746031811e+00,-2.128387296432854653e-05,1.143313997602503239e-05
2.732539682539682602e+00,-6.237728448881400753e-06,1.926542988631300198e-05
2.733333333333333393e+00,6.938553758217922218e-06,2.263992046490649929e-05
2.734126984126984183e+00,1.554306144424345485e-05,2.035477640799552798e-05
2.734920634920634974e+00,1.807136926467855788e-05,1.239271610098249672e-05
2.735714285714285765e+00,1.474769198354119020e-05,1.446857717690174731e-07
2.736507936507936556e+00,7.546211728932868766e-06,-1.359413234392093161e-05
2.737301587301587347e+00,-3.645727335536963345e-07,-2.506656333286616767e-05
2.738095238095238138e+00,-5.604060333722878510e-06,-3.044995558860062523e-05
2.738888888888888928e+00,-5.658779977346192141e-06,-2.696679329409084038e-05
2.739682539682539719e+00,3.267432417177798789e-07,-1.382777390139782180e-05
2.740476190476190510e+00,1.132832690780386382e-05,7.328603194394908741e-06
2.741269841269841301e+00,2.484378103290370523e-05,3.265241637179171864e-05
2.742063492063492092e+00,3.772803279505695527e-05,5.689014373112693434e-05
2.742857142857142883e+00,4.712660810800426201e-05,7.455753203415984925e-05
2.743650793650793673e+00,5.118447562126856248e-05,8.118111387676375280e-05
2.744444444444444464e+00,4.934944311940687474e-05,7.432414805174741802e-05
2.745238095238095255e+00,4.227366018641712394e-05,5.417994737621272065e-05
2.746031746031746046e+00,3.145094139160618059e-05,2.361276495998512975e-05
2.746825396825396837e+00,1.876505347771935441e-05,-1.236579964693934009e-05
2.747619047619047628e+00,6.081334877936028903e-06,-4.759049251580308078e-05
2.748412698412698418e+00,-5.054673517199392016e-06,-7.601515020749631275e-05
2.749206349206349209e+00,-1.359801221069403689e-05,-9.300479128457468084e-05
2.750000000000000000e+00,-1.907379481019985218e-05,-9.636789985134029950e-05
2.750793650793650791e+00,-2.155301482681411167e-05,-8.687969023369816583e-05
2.751587301587301582e+00,-2.155551655591729913e-05,-6.812036973364228077e-05
2.752380952380952372e+00,-1.990102259096987783e-05,-4.558863466656379467e-05
2.753174603174603163e+00,-1.752777221602282260e-05,-2.525898695706694009e-05
2.753968253968253954e+00,-1.529946984717111188e-05,-1.196454892336435978e-05
2.754761904761904745e+00,-1.382689529066749350e-05,-8.084792761537038766e-06
2.755555555555555536e+00,-1.333728744791765439e-05,-1.292766604671359793e-05
2.756349206349206327e+00,-1.362461235205929134e-05,-2.295619816122895397e-05
2.757142857142857117e+00,-1.410117427298975423e-05,-3.274344737260676197e-05
2.757936507936507908e+00,-1.394809455644176883e-05,-3.636792769997951839e-05
2.758730158730158699e+00,-1.233836240660442884e-05,-2.892259304689111449e-05
2.759523809523809490e+00,-8.689705527514172116e-06,-7.848035254909570507e-06
2.760317460317460281e+00,-2.895873186499520336e-06,2.616369498757855106e-05
2.761111111111111072e+00,4.520244104430813074e-06,6.892819998803332367e-05
2.761904761904761862e+00,1.238839240762315529e-05,1.133539969180133206e-04
2.762698412698412653e+00,1.904841976746715884e-05,1.508327766284042683e-04
2.763492063492063444e+00,2.268314608760633639e-05,1.731526362689919597e-04
2.764285714285714235e+00,2.176786163984988307e-05,1.744451785480666728e-04
2.765079365079365026e+00,1.552600918048736744e-05,1.526331342867933555e-04
2.765873015873015817e+00,4.260986392585958046e-06,1.099768284360387957e-04
2.766666666666666607e+00,-1.054310244838683094e-05,5.257191298883263578e-05
2.767460317460317398e+00,-2.640185451681667462e-05,-1.104785513660939068e-05
2.768253968253968189e+00,-4.027144485044243348e-05,-7.179172449482686092e-05
2.769047619047618980e+00,-4.916641522988724074e-05,-1.218446588140646302e-04
2.769841269841269771e+00,-5.082871380529928730e-05,-1.559790175556801002e-04
2.770634920634920562e+00,-4.430211356877520354e-05,-1.720813157835635043e-04
2.771428571428571352e+00,-3.026645015977299122e-05,-1.709012618034211686e-04
2.772222222222222143e+00,-1.101443068557016602e-05,-1.552631385341225083e-04
2.773015873015872934e+00,9.977127846018854265e-06,-1.290924780523522919e-04
2.773809523809523725e+00,2.881982322844027053e-05,-9.657422672892346477e-05
2.774603174603174516e+00,4.214480167539662097e-05,-6.161319966119729202e-05
2.775396825396825307e+00,4.792324057839428465e-05,-2.759702936607457471e-05
2.776190476190476097e+00,4.591634661618870539e-05,2.659417461633259647e-06
2.776984126984126888e+00,3.761442707401025330e-05,2.694259430052706482e-05
2.777777777777777679e+00,2.570641660723272469e-05,4.374261310930825251e-05
2.778571428571428470e+00,1.327791771308562375e-05,5.242716844988638217e-05
2.779365079365079261e+00,3.000738916002411556e-06,5.339160706085825138e-05
2.780158730158730052e+00,-3.458346635161640426e-06,4.805651853637292665e-05
2.780952380952380842e+00,-5.682368223338003878e-06,3.862916258961072595e-05
2.781746031746031633e+00,-4.394978857579285959e-06,2.764670406293177822e-05
2.782539682539682424e+00,-1.089224678249540602e-06,1.742348623779249088e-05
2.783333333333333215e+00,2.461738419155124980e-06,9.574762729768313102e-06
2.784126984126984006e+00,4.669947258207931419e-06,4.765085237299133962e-06
2.784920634920634797e+00,4.473091966992102876e-06,2.752452619672618359e-06
2.785714285714285587e+00,1.503164619036711620e-06,2.704542562809947435e-06
2.786507936507936378e+00,-3.918957403145520939e-06,3.678760974767356721e-06
2.787301587301587169e+00,-1.093538925334234046e-05,5.104382210111480806e-06
2.788095238095237960e+00,-1.839785480246941191e-05,7.099706536138919299e-06
2.788888888888888751e+00,-2.513149554528760167e-05,1.050637828300699395e-05
2.789682539682539542e+00,-3.012495182423680006e-05,1.661181969004802930e-05
2.790476190476190332e+00,-3.258544698950327295e-05,2.662522950051512597e-05
2.791269841269841123e+00,-3.187560284378030247e-05,4.104349628430561606e-05
2.792063492063491914e+00,-2.742648265739069987e-05,5.908568627279150499e-05
2.792857142857142705e+00,-1.873744829567885531e-05,7.839343920828580894e-05
2.793650793650793496e+00,-5.520581647764235633e-06,9.517357427778357602e-05
2.794444444444444287e+00,1.202950476547501100e-05,1.048650864698935349e-04
2.795238095238095077e+00,3.292458024944782682e-05,1.032405444409706808e-04
2.796031746031745868e+00,5.516226890096292973e-05,8.765754782442399884e-05
2.796825396825396659e+00,7.574796855982392891e-05,5.805545686679659052e-05
2.797619047619047450e+00,9.107007293664312836e-05,1.732614154504741463e-05
2.798412698412698241e+00,9.761912769667176052e-05,-2.911621578905740978e-05
2.799206349206349032e+00,9.288181912117519272e-05,-7.446280391495456387e-05
2.799999999999999822e+00,7.612714629109093350e-05,-1.119976687900039189e-04
2.800793650793650613e+00,4.880584161701130282e-05,-1.365115257531043769e-04
2.801587301587301404e+00,1.440911030047990634e-05,-1.452690509176785558e-04
2.802380952380952195e+00,-2.218300997499447091e-05,-1.383301556614983789e-04
2.803174603174602986e+00,-5.567420060411565786e-05,-1.182382741467202060e-04
2.803968253968253777e+00,-8.138209109064793798e-05,-8.925980947493068242e-05
2.804761904761904567e+00,-9.608528513340264634e-05,-5.643288839434827090e-05
2.805555555555555358e+00,-9.852806209751499892e-05,-2.465934895882701617e-05
2.806349206349206149e+00,-8.951423831856641640e-05,2.008210193848507333e-06
2.807142857142856940e+00,-7.159795923507984814e-05,2.082933365501507506e-05
2.807936507936507731e+00,-4.845089926061883550e-05,3.061134542421799909e-05
2.808730158730158522e+00,-2.405908294240179847e-05,3.176810962311245193e-05
2.809523809523809312e+00,-1.951728944052058064e-06,2.621927790133465598e-05
2.810317460317460103e+00,1.535200705792924789e-05,1.709258845831631418e-05
2.811111111111110894e+00,2.658068649382630300e-05,8.185311765768529525e-06
2.811904761904761685e+00,3.164613519742348917e-05,3.213847259241451459e-06
2.812698412698412920e+00,3.136400302076127367e-05,4.984432077308398214e-06
2.813492063492063711e+00,2.706615742605529313e-05,1.467688337599855907e-05
2.814285714285714501e+00,2.020493923070565943e-05,3.142151210948981329e-05
2.815079365079365292e+00,1.203905082093712037e-05,5.229293234489311659e-05
2.815873015873016083e+00,3.471225594249090149e-06,7.276653694179480614e-05
2.816666666666666874e+00,-4.935160642113404948e-06,8.758791518827169686e-05
2.817460317460317665e+00,-1.279627088897794025e-05,9.190862037639901667e-05
2.818253968253968456e+00,-1.969759852012118142e-05,8.247687626689125635e-05
2.819047619047619246e+00,-2.504467604760194580e-05,5.865049392232906474e-05
2.819841269841270037e+00,-2.805436540391826697e-05,2.299621856768312896e-05
2.820634920634920828e+00,-2.790556879917176230e-05,-1.875655488552499086e-05
2.821428571428571619e+00,-2.400638076853855619e-05,-5.857894377809426395e-05
2.822222222222222410e+00,-1.628479824139776773e-05,-8.780706898497118605e-05
2.823015873015873201e+00,-5.382738184979191012e-06,-9.929617030275701012e-05
2.823809523809523991e+00,7.349861788257652612e-06,-8.948506533693151798e-05
2.824603174603174782e+00,2.009166959296474519e-05,-5.971717785832321391e-05
2.825396825396825573e+00,3.094912746264084962e-05,-1.633809014267917085e-05
2.826190476190476364e+00,3.838014670345658131e-05,3.057302719784554519e-05
2.826984126984127155e+00,4.150106406042124841e-05,6.960395159178688594e-05
2.827777777777777946e+00,4.019376168847434394e-05,9.096930358757026019e-05
2.828571428571428736e+00,3.501374662455098775e-05,8.922078114370048053e-05
2.829365079365079527e+00,2.696649347761767847e-05,6.486654425609015922e-05
2.830158730158730318e+00,1.724133325592946072e-05,2.431773405604358492e-05
2.830952380952381109e+00,6.975100534170323887e-06,-2.190247636063562088e-05
2.831746031746031900e+00,-2.911276099761263864e-06,-6.215480887400244765e-05
2.832539682539682691e+00,-1.178332262075515423e-05,-8.692216796725813638e-05
2.833333333333333481e+00,-1.927177727217986957e-05,-9.125940806574443169e-05
2.834126984126984272e+00,-2.518575509668360225e-05,-7.575081391767934610e-05
2.834920634920635063e+00,-2.940765550288412138e-05,-4.583290851138985500e-05
2.835714285714285854e+00,-3.181885252994504868e-05,-9.877829638414891818e-06
2.836507936507936645e+00,-3.228451348511686463e-05,2.325146694293549093e-05
2.837301587301587436e+00,-3.069715533380947578e-05,4.642834859800988416e-05
2.838095238095238226e+00,-2.705768658831257653e-05,5.572010302460456924e-05
2.838888888888889017e+00,-2.156315625447454215e-05,5.083540632859315136e-05
2.839682539682539808e+00,-1.466745188166224509e-05,3.462890252707873524e-05
2.840476190476190599e+00,-7.083476030348098886e-06,1.194979128184653442e-05
2.841269841269841390e+00,2.933328483504919118e-07,-1.177430151470340693e-05
2.842063492063492181e+00,6.539108561292509940e-06,-3.182919565291393756e-05
2.842857142857142971e+00,1.090699290868224188e-05,-4.508759270284072265e-05
2.843650793650793762e+00,1.303500149804067607e-05,-5.033245819197735248e-05
2.844444444444444553e+00,1.309181545213414746e-05,-4.807460661638550831e-05
2.845238095238095344e+00,1.179352615917098330e-05,-4.003106590469995444e-05
2.846031746031746135e+00,1.024570288748202612e-05,-2.846748799814319394e-05
2.846825396825396925e+00,9.617146399979231147e-06,-1.558021875574036258e-05
2.847619047619047716e+00,1.072480214701206647e-05,-3.043337415208712339e-06
2.848412698412698507e+00,1.367323570163658976e-05,8.205512669423151132e-06
2.849206349206349298e+00,1.770526506290929857e-05,1.792288790925411246e-05
2.850000000000000089e+00,2.135719070842005297e-05,2.630874042132808993e-05
2.850793650793650880e+00,2.289347391618750863e-05,3.365514513373234554e-05
2.851587301587301670e+00,2.088322839368975014e-05,4.002907012473093840e-05
2.852380952380952461e+00,1.472840227772155263e-05,4.509750006178860028e-05
2.853174603174603252e+00,4.971886364522575150e-06,4.813604084974156618e-05
2.853968253968254043e+00,-6.717472630003718987e-06,4.819346782772834982e-05
2.854761904761904834e+00,-1.789323017173844282e-05,4.435277716236360235e-05
2.855555555555555625e+00,-2.593191959287524653e-05,3.603585383037279490e-05
2.856349206349206415e+00,-2.873793945328605111e-05,2.330776551755097631e-05
2.857142857142857206e+00,-2.537561643688772409e-05,7.117553623793416878e-06
2.857936507936507997e+00,-1.645680045048543148e-05,-1.062178454796262378e-05
2.858730158730158788e+00,-4.144549462301095588e-06,-2.721759590955584882e-05
2.859523809523809579e+00,8.302448329647748747e-06,-3.969413755108006022e-05
2.860317460317460370e+00,1.740521316277681129e-05,-4.553091313285023001e-05
2.861111111111111160e+00,2.055711084052458404e-05,-4.342937737996739107e-05
2.861904761904761951e+00,1.698220186813041450e-05,-3.380683884133112149e-05
2.862698412698412742e+00,8.172259271810146191e-06,-1.877197305068559300e-05
2.863492063492063533e+00,-2.444979456776832874e-06,-1.552312902257955996e-06
2.864285714285714324e+00,-1.057193516029017233e-05,1.439205192497087119e-05
2.865079365079365115e+00,-1.250045112422742342e-05,2.620184174474286592e-05
2.865873015873015905e+00,-6.434614205274724918e-06,3.211853052810673614e-05
2.866666666666666696e+00,6.824888526758496580e-06,3.158816371460807616e-05
2.867460317460317487e+00,2.409573716896542582e-05,2.508879679033849960e-05
2.868253968253968278e+00,4.083947979380619995e-05,1.385258989355524261e-05
2.869047619047619069e+00,5.260379153821799053e-05,-4.044223385161078968e-07
2.869841269841269860e+00,5.635121917192103261e-05,-1.571432903128065463e-05
2.870634920634920650e+00,5.122127352221896290e-05,-3.005766704282002773e-05
2.871428571428571441e+00,3.852261234589286553e-05,-4.152823953959573891e-05
2.872222222222222232e+00,2.106333508801881325e-05,-4.845010679441447648e-05
2.873015873015873023e+00,2.158841419003812481e-06,-4.945801417161036395e-05
2.873809523809523814e+00,-1.528841797979220294e-05,-4.358598715113853184e-05
2.874603174603174605e+00,-2.935826522823770736e-05,-3.041460045271702830e-05
2.875396825396825395e+00,-3.924832598829259460e-05,-1.029201505233032068e-05
2.876190476190476186e+00,-4.506882882538277950e-05,1.542000058620224094e-05
2.876984126984126977e+00,-4.748073313611480433e-05,4.418569400366219411e-05
2.877777777777777768e+00,-4.735145636187331397e-05,7.235222008884279517e-05
2.878571428571428559e+00,-4.552346513443437752e-05,9.551323891259002057e-05
2.879365079365079350e+00,-4.270178748747878710e-05,1.091764258728367240e-04
2.880158730158730140e+00,-3.941413788098437288e-05,1.096239706561309696e-04
2.880952380952380931e+00,-3.599044624026364599e-05,9.476491809100644691e-05
2.881746031746031722e+00,-3.252845836436742816e-05,6.474287431937222979e-05
2.882539682539682513e+00,-2.884161045226288719e-05,2.212079107714848801e-05
2.883333333333333304e+00,-2.441882969883345399e-05,-2.838814533636488429e-05
2.884126984126984095e+00,-1.845495959779930962e-05,-8.052501679938888499e-05
2.884920634920634885e+00,-1.001463478018828713e-05,-1.272679057713821870e-04
2.885714285714285676e+00,1.648672296754792829e-06,-1.617215437253374376e-04
2.886507936507936467e+00,1.667951531267842743e-05,-1.781306011814062556e-04
2.887301587301587258e+00,3.425848564494985587e-05,-1.729877722480255254e-04
2.888095238095238049e+00,5.246304842494512713e-05,-1.460293256491348220e-04
2.888888888888888840e+00,6.846181299402837495e-05,-1.007490713181935727e-04
2.889682539682539630e+00,7.903480923092352502e-05,-4.408364816275525699e-05
2.890476190476190421e+00,8.129969864927162301e-05,1.483020042758553934e-05
2.891269841269841212e+00,7.345890444002534222e-05,6.656640365659896314e-05
2.892063492063492003e+00,5.537505235598408831e-05,1.034464717941760317e-04
2.892857142857142794e+00,2.882585976387341998e-05,1.211018510961457537e-04
2.893650793650793585e+00,-2.632422691231798008e-06,1.191447973140127690e-04
2.894444444444444375e+00,-3.418058496146252333e-05,1.008462206481563654e-04
2.895238095238095166e+00,-6.055401607413612541e-05,7.201243365330216566e-05
2.896031746031745957e+00,-7.704034205024227751e-05,3.943248959614971199e-05
2.896825396825396748e+00,-8.049406425752374597e-05,9.323000648848610286e-06
2.897619047619047539e+00,-7.016157454444607133e-05,-1.385463786426622289e-05
2.898412698412698330e+00,-4.808759403100533653e-05,-2.797144481042470666e-05
2.899206349206349120e+00,-1.891593260556911977e-05,-3.316414299140899962e-05
2.899999999999999911e+00,1.097163130778855070e-05,-3.126789398478382171e-05
2.900793650793650702e+00,3.484276986556171139e-05,-2.499271953463763575e-05
2.901587301587301493e+00,4.721477755327945907e-05,-1.708378792985365544e-05
2.902380952380952284e+00,4.526004262938297819e-05,-9.636927762255020151e-06
2.903174603174603075e+00,2.962619189054166509e-05,-3.674605800124430634e-06
2.903968253968253865e+00,4.404352069527268067e-06,9.501866087264145467e-07
2.904761904761904656e+00,-2.380462962266362151e-05,5.297246283760168177e-06
2.905555555555555447e+00,-4.751424404781771384e-05,1.078576087554604126e-05
2.906349206349206238e+00,-6.023654057049964230e-05,1.850267932443686218e-05
2.907142857142857029e+00,-5.811053376688601451e-05,2.860309690773823633e-05
2.907936507936507819e+00,-4.083988934065506052e-05,4.003037781045369988e-05
2.908730158730158610e+00,-1.171476544676303805e-05,5.069087297968894845e-05
2.909523809523809401e+00,2.325042175418847427e-05,5.805239857839431477e-05
2.910317460317460192e+00,5.680189566574679735e-05,5.995928731395633787e-05
2.911111111111110983e+00,8.214051411825938143e-05,5.536119247678448433e-05
2.911904761904761774e+00,9.437922839912179856e-05,4.469398399550904375e-05
2.912698412698412564e+00,9.142647147441456507e-05,2.979563998339266467e-05
2.913492063492063355e+00,7.416277331598638666e-05,1.339831968124148977e-05
2.914285714285714146e+00,4.598448856808206052e-05,-1.648420803002652842e-06
2.915079365079364937e+00,1.191908939594792358e-05,-1.319871173233954093e-05
2.915873015873015728e+00,-2.244434548139450359e-05,-2.042245351916082972e-05
2.916666666666666519e+00,-5.198731982196986044e-05,-2.399517622484409753e-05
2.917460317460317309e+00,-7.288252449880359908e-05,-2.578311387222245290e-05
2.918253968253968100e+00,-8.308744971810602925e-05,-2.813254389611583980e-05
2.919047619047618891e+00,-8.246046119705593459e-05,-3.303811504001634945e-05
2.919841269841269682e+00,-7.251329480484041269e-05,-4.149905047883102550e-05
2.920634920634920473e+00,-5.587484397418607745e-05,-5.323999545336022076e-05
2.921428571428571264e+00,-3.559889827983853382e-05,-6.677676743588209464e-05
2.922222222222222054e+00,-1.449314758513975908e-05,-7.970435813451241043e-05
2.923015873015872845e+00,5.348035264509131490e-06,-8.912113378158261639e-05
2.923809523809523636e+00,2.268496108177700982e-05,-9.217293533980313897e-05
2.924603174603174427e+00,3.694714627857843988e-05,-8.668546520260281317e-05
2.925396825396825218e+00,4.784855236102959606e-05,-7.175748590114176188e-05
2.926190476190476009e+00,5.499855118077613469e-05,-4.811663501322192865e-05
2.926984126984126799e+00,5.768379387477350572e-05,-1.808129839575964477e-05
2.927777777777777590e+00,5.491510722677901555e-05,1.488290781369440493e-05
2.928571428571428381e+00,4.573129827510552184e-05,4.686299313814127108e-05
2.929365079365079172e+00,2.966137421392843942e-05,7.422406382063216883e-05
2.930158730158729963e+00,7.195731538817196464e-06,9.415987890294406676e-05
2.930952380952380754e+00,-1.988413462689684775e-05,1.049703133773743360e-04
2.931746031746031544e+00,-4.843467201443547670e-05,1.060757655188237630e-04
2.932539682539682335e+00,-7.421036833700494920e-05,9.785147780249774411e-05
2.933333333333333126e+00,-9.247386624581133575e-05,8.139797355619808117e-05
2.934126984126983917e+00,-9.890039247402821691e-05,5.836265001775189898e-05
2.934920634920634708e+00,-9.062129973690148947e-05,3.088269271619087315e-05
2.935714285714285499e+00,-6.715294851470075290e-05,1.624938153964972029e-06
2.936507936507936289e+00,-3.091186112916059612e-05,-2.621008387733388584e-05
2.937301587301587080e+00,1.292356329530918203e-05,-4.909945435075965087e-05
2.938095238095238315e+00,5.727172149522858686e-05,-6.372866465605858156e-05
2.938888888888889106e+00,9.456220127955238571e-05,-6.776533509289262838e-05
2.939682539682539897e+00,1.183451732000818192e-04,-6.061722115205421530e-05
2.940476190476190688e+00,1.246606703388835930e-04,-4.385233037829132694e-05
2.941269841269841478e+00,1.128122606695839168e-04,-2.105599969907874817e-05
2.942063492063492269e+00,8.538187837812268000e-05,2.898672454492804731e-06
2.942857142857143060e+00,4.754106920571247454e-05,2.298265968052372942e-05
2.943650793650793851e+00,5.883623983080289567e-06,3.522602860589288013e-05
2.944444444444444642e+00,-3.290946918403411911e-05,3.767202409120482838e-05
2.945238095238095433e+00,-6.326681974540718863e-05,3.080662769324102188e-05
2.946031746031746223e+00,-8.156476867214039093e-05,1.735507786535554688e-05
2.946825396825397014e+00,-8.651270750574394704e-05,1.518262847038863508e-06
2.947619047619047805e+00,-7.909723551654222751e-05,-1.212827738379935368e-05
2.948412698412698596e+00,-6.215068418757163518e-05,-1.977905993685475663e-05
2.949206349206349387e+00,-3.964051630748594804e-05,-1.931172763182427155e-05
2.950000000000000178e+00,-1.582374102516897869e-05,-1.077352603977734031e-05
2.950793650793650968e+00,5.544972723686306439e-06,3.648949335149749751e-06
2.951587301587301759e+00,2.178118278404459390e-05,2.016236285962037659e-05
2.952380952380952550e+00,3.153856283125354264e-05,3.429072248514320988e-05
2.953174603174603341e+00,3.480903459904765809e-05,4.199215993866120598e-05
2.953968253968254132e+00,3.273734407859079612e-05,4.070196545028752780e-05
2.954761904761904923e+00,2.731088533918786426e-05,3.002208963777516356e-05
2.955555555555555713e+00,2.094348536728200973e-05,1.185675658827324118e-05
2.956349206349206504e+00,1.597078166573834626e-05,-1.003787024537787116e-05
2.957142857142857295e+00,1.412721735339195325e-05,-3.093737099330081671e-05
2.957936507936508086e+00,1.613268951167731835e-05,-4.620781603897859149e-05
2.958730158730158877e+00,2.152137627005252282e-05,-5.229049362142729830e-05
2.959523809523809668e+00,2.878021873264489355e-05,-4.744189805984668439e-05
2.960317460317460458e+00,3.576379291027839984e-05,-3.213521549234424785e-05
2.961111111111111249e+00,4.026467533842123899e-05,-9.071167369367344818e-06
2.961904761904762040e+00,4.057371320445961452e-05,1.722989899699561115e-05
2.962698412698412831e+00,3.587121992060403526e-05,4.123398742815631991e-05
2.963492063492063622e+00,2.634946801552434347e-05,5.748400104615131851e-05
2.964285714285714413e+00,1.306702667426672685e-05,6.175654431699864264e-05
2.965079365079365203e+00,-2.366295846761586036e-06,5.201072766133786726e-05
2.965873015873015994e+00,-1.813321235230772559e-05,2.889060230689781734e-05
2.966666666666666785e+00,-3.247431448769613299e-05,-4.332654677296941648e-06
2.967460317460317576e+00,-4.384626815175436839e-05,-4.232939864147766435e-05
2.968253968253968367e+00,-5.101509039203731220e-05,-7.861446077882296439e-05
2.969047619047619158e+00,-5.315168835651293034e-05,-1.065766462334242939e-04
2.969841269841269948e+00,-4.996720346738474345e-05,-1.204932975250953402e-04
2.970634920634920739e+00,-4.186241409468181634e-05,-1.164798020351989229e-04
2.971428571428571530e+00,-3.000650861211030750e-05,-9.333872408782581084e-05
2.972222222222222321e+00,-1.624529339399252969e-05,-5.317514079845411145e-05
2.973015873015873112e+00,-2.790828753821453862e-06,-1.522456651362246150e-06
2.973809523809523903e+00,8.251164644249715425e-06,5.327431242335756888e-05
2.974603174603174693e+00,1.536337833746900450e-05,1.014780356045855164e-04
2.975396825396825484e+00,1.793401079764819772e-05,1.339460289078706122e-04
2.976190476190476275e+00,1.630198122785304744e-05,1.442047940335207553e-04
2.976984126984127066e+00,1.153436774865865319e-05,1.300458471404056682e-04
2.977777777777777857e+00,5.035234116637127349e-06,9.416264866098694101e-05
2.978571428571428648e+00,-1.869851375027523478e-06,4.359195402377470327e-05
2.979365079365079438e+00,-8.239925577808382420e-06,-1.192918477919015891e-05
2.980158730158730229e+00,-1.363593143620795704e-05,-6.223667749739965804e-05
2.980952380952381020e+00,-1.804384581405610609e-05,-9.899238863233183160e-05
2.981746031746031811e+00,-2.166454532223660397e-05,-1.173052142986634797e-04
2.982539682539682602e+00,-2.466929951297235676e-05,-1.163582118879978155e-04
2.983333333333333393e+00,-2.702197114912907518e-05,-9.901936488794800388e-05
2.984126984126984183e+00,-2.843789947836766914e-05,-7.070050953352920403e-05
2.984920634920634974e+00,-2.849311398411363784e-05,-3.787279303856627932e-05
2.985714285714285765e+00,-2.683148923562629246e-05,-6.638368780964395800e-06
2.986507936507936556e+00,-2.336812642244173304e-05,1.835508830000354922e-05
2.987301587301587347e+00,-1.838403987139759470e-05,3.452294500177541920e-05
2.988095238095238138e+00,-1.246023879789382026e-05,4.147439649190772941e-05
2.988888888888888928e+00,-6.282046547000212316e-06,4.074208877238761782e-05
2.989682539682539719e+00,-4.064622485373727928e-07,3.521190449795807775e-05
2.990476190476190510e+00,4.908992530261359360e-06,2.836196844755951363e-05
2.991269841269841301e+00,9.758767788982899676e-06,2.343926087784337255e-05
2.992063492063492092e+00,1.451329708892003030e-05,2.272525650376503952e-05
2.992857142857142883e+00,1.963327378334431974e-05,2.704012797122246094e-05
2.993650793650793673e+00,2.541598895652508717e-05,3.559363722572332194e-05
2.994444444444444464e+00,3.174979731230171575e-05,4.621879749352788414e-05
2.995238095238095255e+00,3.798131670952679647e-05,5.594014350612470444e-05
2.996031746031746046e+00,4.298700531600567221e-05,6.175047884460495534e-05
2.996825396825396837e+00,4.547053888003291895e-05,6.141395268487740084e-05
2.997619047619047628e+00,4.440272714751367593e-05,5.408892907263471758e-05
2.998412698412698418e+00,3.943593393715743911e-05,4.058277343077276765e-05
2.999206349206349209e+00,3.111567513029147788e-05,2.313355190309877718e-05
3.000000000000000000e+00,2.079343035506726875e-05,4.765268514483737826e-06
3.000793650793650791e+00,1.027407513155384617e-05,-1.156918478404947179e-05
3.001587301587301582e+00,1.335769705518106646e-06,-2.375465068477871890e-05
3.002380952380952372e+00,-4.711187364274095840e-06,-3.093754331084351143e-05
3.003174603174603163e+00,-7.303192689052903843e-06,-3.351299000820470855e-05
3.003968253968253954e+00,-6.689131958825547248e-06,-3.275236270790680759e-05
3.004761904761904745e+00,-3.796474596980013894e-06,-3.024904094172307958e-05
3.005555555555555536e+00,4.543726400923927982e-08,-2.737395403804177092e-05
3.006349206349206327e+00,3.443005899686243876e-06,-2.489236948949769842e-05
3.007142857142857117e+00,5.250240023360705763e-06,-2.283214280102551522e-05
3.007936507936507908e+00,4.786550763527248633e-06,-2.062415397683389521e-05
3.008730158730158699e+00,1.925279083691377992e-06,-1.746636729808446944e-05
3.009523809523809490e+00,-2.948683028689905460e-06,-1.280393737782789496e-05
3.010317460317460281e+00,-9.083563241691004934e-06,-6.775453513813626818e-06
3.011111111111111072e+00,-1.555128082040257016e-05,-4.574832382985159942e-07
3.011904761904761862e+00,-2.141691673024439887e-05,4.236871238066721736e-06
3.012698412698412653e+00,-2.584678318963634316e-05,5.063767897039135068e-06
3.013492063492063444e+00,-2.816830094542526272e-05,2.665653207250103349e-07
3.014285714285714235e+00,-2.792949040963268220e-05,-1.055804494359101517e-05
3.015079365079365026e+00,-2.498717190901048106e-05,-2.591328906961889964e-05
3.015873015873015817e+00,-1.959826594061585367e-05,-4.249038305778682633e-05
3.016666666666666607e+00,-1.244891934551735895e-05,-5.598015385231916593e-05
3.017460317460317398e+00,-4.567465473792760481e-06,-6.237876326366389263e-05
3.018253968253968189e+00,2.875148268363250904e-06,-5.930431140205929690e-05
3.019047619047618980e+00,8.809636329810963183e-06,-4.679966511339451931e-05
3.019841269841269771e+00,1.246772096340599305e-05,-2.731057403611184830e-05
3.020634920634920562e+00,1.348311988163393146e-05,-4.886706058860335496e-06
3.021428571428571352e+00,1.189796667965261706e-05,1.603948038937953792e-05
3.022222222222222143e+00,8.108499918495467980e-06,3.182757128968648837e-05
3.023015873015872934e+00,2.779370888230985756e-06,4.038263647166618389e-05
3.023809523809523725e+00,-3.257520445131166535e-06,4.133154651067983808e-05
3.024603174603174516e+00,-9.109824067176141096e-06,3.570392727472540166e-05
3.025396825396825307e+00,-1.392996825912646349e-05,2.536012948971034408e-05
3.026190476190476097e+00,-1.701589570702414446e-05,1.243714117153886485e-05
3.026984126984126888e+00,-1.790670257361103170e-05,-1.010692426751990099e-06
3.027777777777777679e+00,-1.646814967490202182e-05,-1.314625493695962208e-05
3.028571428571428470e+00,-1.295313645504933492e-05,-2.234703766394462006e-05
3.029365079365079261e+00,-8.012837592796721476e-06,-2.719444662149371228e-05
3.030158730158730052e+00,-2.631957497821801362e-06,-2.655104207583285599e-05
3.030952380952380842e+00,2.028034244411575452e-06,-1.974611749977937342e-05
3.031746031746031633e+00,4.868703429967923308e-06,-6.814942245728723198e-06
3.032539682539682424e+00,5.133838780598885692e-06,1.130532617717217509e-05
3.033333333333333215e+00,2.653546618305128374e-06,3.272007806869834816e-05
3.034126984126984006e+00,-2.031514368478688786e-06,5.472489365956530736e-05
3.034920634920634797e+00,-7.728486223671349306e-06,7.416381584788684863e-05
3.035714285714285587e+00,-1.284265722612943885e-05,8.794258563697892673e-05
3.036507936507936378e+00,-1.576288231998510886e-05,9.359019263787825456e-05
3.037301587301587169e+00,-1.527553340518607075e-05,8.974277012537660594e-05
3.038095238095237960e+00,-1.088956743111756903e-05,7.643905204927622986e-05
3.038888888888888751e+00,-2.981745593362660415e-06,5.515664532916865460e-05
3.039682539682539542e+00,7.282058212231625129e-06,2.857602965173826435e-05
3.040476190476190332e+00,1.823746978371609400e-05,1.219206239513345786e-07
3.041269841269841123e+00,2.815058276649589782e-05,-2.662461624587997275e-05
3.042063492063491914e+00,3.565716427769700356e-05,-4.853492232677182827e-05
3.042857142857142705e+00,4.006391043618382603e-05,-6.345201184436702801e-05
3.043650793650793496e+00,4.140471781982485309e-05,-7.051391769757927165e-05
3.044444444444444287e+00,4.024625728190435242e-05,-7.020321314079818842e-05
3.045238095238095077e+00,3.735061873288755000e-05,-6.410882257399748614e-05
3.046031746031745868e+00,3.335738551554185907e-05,-5.446580630054309797e-05
3.046825396825396659e+00,2.861288505072596809e-05,-4.360147542256150580e-05
3.047619047619047450e+00,2.318669052159983156e-05,-3.343751667003345626e-05
3.048412698412698241e+00,1.703018877044450822e-05,-2.516814081314800057e-05
3.049206349206349032e+00,1.017980406966953695e-05,-1.916528196421548891e-05
3.049999999999999822e+00,2.900109605088954967e-06,-1.508569819833044012e-05
3.050793650793650613e+00,-4.298519885508239713e-06,-1.210595454343663508e-05
3.051587301587301404e+00,-1.076667796156139540e-05,-9.203443603670991268e-06
3.052380952380952195e+00,-1.588985854182256170e-05,-5.421282483520610342e-06
3.053174603174602986e+00,-1.925254214862789611e-05,-7.962749461478444833e-08
3.053968253968253777e+00,-2.073225779303792442e-05,7.084413911543803252e-06
3.054761904761904567e+00,-2.050147372031658756e-05,1.585074596521925819e-05
3.055555555555555358e+00,-1.895646543422191784e-05,2.551755081837484888e-05
3.056349206349206149e+00,-1.661798794213060703e-05,3.496557162990440986e-05
3.057142857142856940e+00,-1.404493756396902515e-05,4.279199975887067848e-05
3.057936507936507731e+00,-1.177505543298825561e-05,4.752586673829395977e-05
3.058730158730158522e+00,-1.027941672536820501e-05,4.792008930690453848e-05
3.059523809523809312e+00,-9.908315251932769640e-06,4.327298505234691687e-05
3.060317460317460103e+00,-1.081625882691512892e-05,3.368473982169607040e-05
3.061111111111110894e+00,-1.287534922417149033e-05,2.014145780745502708e-05
3.061904761904761685e+00,-1.561067912471163428e-05,4.371553070256236796e-06
3.062698412698412920e+00,-1.820794485840347617e-05,-1.147892965968393890e-05
3.063492063492063711e+00,-1.963908810118052524e-05,-2.522091171529966717e-05
3.064285714285714501e+00,-1.891637070098343561e-05,-3.491608085464620266e-05
3.065079365079365292e+00,-1.542358464779100671e-05,-3.904684887629768984e-05
3.065873015873016083e+00,-9.211865338557274937e-06,-3.662486340083297306e-05
3.066666666666666874e+00,-1.124653443862659433e-06,-2.734412121476431821e-05
3.067460317460317665e+00,7.342499147821490649e-06,-1.183484234935209376e-05
3.068253968253968456e+00,1.444083470929642712e-05,8.044788117568515412e-06
3.069047619047619246e+00,1.869898996124109473e-05,2.906605350330141482e-05
3.069841269841270037e+00,1.938162940220828265e-05,4.686885337876934177e-05
3.070634920634920828e+00,1.669439052840643705e-05,5.672030774282759867e-05
3.071428571428571619e+00,1.167207125411504797e-05,5.470996493378783490e-05
3.072222222222222410e+00,5.827322310303191129e-06,3.905316512450436833e-05
3.073015873015873201e+00,7.097924566738158945e-07,1.103389855117386523e-05
3.073809523809523991e+00,-2.489342345769573278e-06,-2.483247795705862085e-05
3.074603174603174782e+00,-3.204261083741179172e-06,-6.159986025347365753e-05
3.075396825396825573e+00,-1.591939282193615574e-06,-9.149825660973173811e-05
3.076190476190476364e+00,1.547158507330458604e-06,-1.078832997023167667e-04
3.076984126984127155e+00,4.994191450658930310e-06,-1.069289265538568632e-04
3.077777777777777946e+00,7.418844667519842278e-06,-8.855883825678804023e-05
3.078571428571428736e+00,7.694680812048626103e-06,-5.638459762180372272e-05
3.079365079365079527e+00,5.161612312138581827e-06,-1.673866070082590253e-05
3.080158730158730318e+00,-2.093811236400292488e-07,2.286788689736158847e-05
3.080952380952381109e+00,-7.778274792126884437e-06,5.543491818358443294e-05
3.081746031746031900e+00,-1.633208803640456421e-05,7.591205105293557522e-05
3.082539682539682691e+00,-2.429741043555941140e-05,8.209300113857275817e-05
3.083333333333333481e+00,-3.003429053120864646e-05,7.481502933626778436e-05
3.084126984126984272e+00,-3.216848572991625057e-05,5.747600074055979103e-05
3.084920634920635063e+00,-2.991197837257578756e-05,3.503235614868728249e-05
3.085714285714285854e+00,-2.331009440916820567e-05,1.274479153361202114e-05
3.086507936507936645e+00,-1.334419555418079731e-05,-5.018827782798303463e-06
3.087301587301587436e+00,-1.826594774782193534e-06,-1.563693439367954392e-05
3.088095238095238226e+00,8.937580965485833611e-06,-1.855617042586197045e-05
3.088888888888889017e+00,1.667734251786428398e-05,-1.505425097361264701e-05
3.089682539682539808e+00,1.974674041176069437e-05,-7.584754339303829298e-06
3.090476190476190599e+00,1.760307391385563435e-05,1.043366514579607823e-06
3.091269841269841390e+00,1.100969097542884071e-05,8.381960739003209781e-06
3.092063492063492181e+00,1.882356577872307881e-06,1.276720967174323960e-05
3.092857142857142971e+00,-7.189864062446947787e-06,1.341006234074779533e-05
3.093650793650793762e+00,-1.362071538734194371e-05,1.026263890124768703e-05
3.094444444444444553e+00,-1.551248427559941552e-05,3.841082485958916096e-06
3.095238095238095344e+00,-1.215505194248793189e-05,-4.869683081960119548e-06
3.096031746031746135e+00,-4.192236362384023399e-06,-1.445005263023335784e-05
3.096825396825396925e+00,6.588677479699398765e-06,-2.315709751786385244e-05
3.097619047619047716e+00,1.776891057614112719e-05,-2.922735135946739633e-05
3.098412698412698507e+00,2.694301375282377609e-05,-3.132779700162503637e-05
3.099206349206349298e+00,3.229667164045830065e-05,-2.895966137621812324e-05
3.100000000000000089e+00,3.296379820264763743e-05,-2.261080899530995320e-05
3.100793650793650880e+00,2.910589658706690531e-05,-1.358967924026953071e-05
3.101587301587301670e+00,2.174648565071406943e-05,-3.634326483772054134e-06
3.102380952380952461e+00,1.244295825619766224e-05,5.537777797996588873e-06
3.103174603174603252e+00,2.896178226499683272e-06,1.259904956765031877e-05
3.103968253968254043e+00,-5.403137321231961829e-06,1.682553650335654079e-05
3.104761904761904834e+00,-1.141537199008372692e-05,1.813904081515086401e-05
3.105555555555555625e+00,-1.464677623984304849e-05,1.700234785533808504e-05
3.106349206349206415e+00,-1.510963970612363967e-05,1.421974061419120640e-05
3.107142857142857206e+00,-1.319164685130174432e-05,1.070885485433906305e-05
3.107936507936507997e+00,-9.490692595816228015e-06,7.304076709903373537e-06
3.108730158730158788e+00,-4.664345776730111481e-06,4.625151754213330645e-06
3.109523809523809579e+00,6.772433736058902388e-07,3.010326168949892664e-06
3.110317460317460370e+00,6.028550574650197563e-06,2.494117752997637093e-06
3.111111111111111160e+00,1.100435170271152670e-05,2.821056816974261135e-06
3.111904761904761951e+00,1.532769354726648610e-05,3.514526694564762219e-06
3.112698412698412742e+00,1.880389521673250317e-05,4.023792662029572649e-06
3.113492063492063533e+00,2.129216065841180820e-05,3.928596899089277949e-06
3.114285714285714324e+00,2.268382387741848646e-05,3.120826275602383112e-06
3.115079365079365115e+00,2.289408247986363858e-05,1.868231780099460136e-06
3.115873015873015905e+00,2.187157094813210666e-05,7.203139193502314985e-07
3.116666666666666696e+00,1.962460784001333205e-05,3.017603151004409565e-07
3.117460317460317487e+00,1.625347535674869610e-05,1.091096818053953796e-06
3.118253968253968278e+00,1.196979507571411502e-05,3.270774913365646375e-06
3.119047619047619069e+00,7.085324451517246201e-06,6.680480530989538749e-06
3.119841269841269860e+00,1.965718106897741330e-06,1.085388477667341597e-05
3.120634920634920650e+00,-3.037652521383347821e-06,1.510051372901668467e-05
3.121428571428571441e+00,-7.653909793407234755e-06,1.860617054910633614e-05
3.122222222222222232e+00,-1.173459550965175116e-05,2.054537231944444741e-05
3.123015873015873023e+00,-1.526071360507709140e-05,2.020754670198515350e-05
3.123809523809523814e+00,-1.831852629191285144e-05,1.712937228796747405e-05
3.124603174603174605e+00,-2.105653035993393135e-05,1.120854366534252215e-05
3.125396825396825395e+00,-2.363645543176184810e-05,2.766872265107624228e-06
3.126190476190476186e+00,-2.618616643718282890e-05,-7.457229291549069622e-06
3.126984126984126977e+00,-2.875615175052650949e-05,-1.838362184096186444e-05
3.127777777777777768e+00,-3.127703067349577211e-05,-2.871514908653523008e-05
3.128571428571428559e+00,-3.351823173510920371e-05,-3.709984638674968644e-05
3.129365079365079350e+00,-3.506048312238371902e-05,-4.232971303117276862e-05
3.130158730158730140e+00,-3.530772158465822876e-05,-4.356772217495905286e-05
3.130952380952380931e+00,-3.356121488534067444e-05,-4.056087433835175136e-05
3.131746031746031722e+00,-2.915791628808936088e-05,-3.376131616713978214e-05
3.132539682539682513e+00,-2.165319826261402636e-05,-2.427911381809655511e-05
3.133333333333333304e+00,-1.101749450355050708e-05,-1.364739091506767386e-05
3.134126984126984095e+00,2.193301238505986430e-06,-3.468649669366476208e-06
3.134920634920634885e+00,1.675617579227040260e-05,4.925922389518383671e-06
3.135714285714285676e+00,3.086708003113176755e-05,1.068302544482223988e-05
3.136507936507936467e+00,4.244060539375982862e-05,1.346042422316119397e-05
3.137301587301587258e+00,4.957638702927390554e-05,1.334107075229901686e-05
3.138095238095238049e+00,5.104900471155107385e-05,1.072148097347906837e-05
3.138888888888888840e+00,4.664834034374241734e-05,6.235137808074980795e-06
3.139682539682539630e+00,3.725245885790888549e-05,7.055350346513106210e-07
3.140476190476190421e+00,2.461877863287346215e-05,-4.920496608540998381e-06
3.141269841269841212e+00,1.097554878834890530e-05,-9.696590605970176457e-06
3.142063492063492003e+00,-1.459053395781930801e-06,-1.284092686471682047e-05
3.142857142857142794e+00,-1.091375795579475880e-05,-1.387886815835331196e-05
3.143650793650793585e+00,-1.637720638281484246e-05,-1.270608083816881403e-05
3.144444444444444375e+00,-1.774106182635811841e-05,-9.554971353250326770e-06
3.145238095238095166e+00,-1.575421563304464894e-05,-4.886793838211517089e-06
3.146031746031745957e+00,-1.179834047221377294e-05,7.517270140377650597e-07
3.146825396825396748e+00,-7.530077086116237707e-06,6.870354280612251153e-06
3.147619047619047539e+00,-4.470268152491282378e-06,1.314532904864350160e-05
3.148412698412698330e+00,-3.641895502201583051e-06,1.946901257427883345e-05
3.149206349206349120e+00,-5.349028462287616033e-06,2.591296802761747863e-05
3.149999999999999911e+00,-9.145751511429837599e-06,3.259404907728040012e-05
3.150793650793650702e+00,-1.398646616868564176e-05,3.947004207421160051e-05
3.151587301587301493e+00,-1.850436658285451683e-05,4.613786036319017872e-05
3.152380952380952284e+00,-2.134474223081738006e-05,5.173487611974473535e-05
3.153174603174603075e+00,-2.147844781268474763e-05,5.502557428926486792e-05
3.153968253968253865e+00,-1.843055171958706421e-05,5.468808535663427240e-05
3.154761904761904656e+00,-1.237792911419501668e-05,4.972758604849541764e-05
3.155555555555555447e+00,-4.098025827878652865e-06,3.987874854903322372e-05
3.156349206349206238e+00,5.213948725909260010e-06,2.584486155706428628e-05
3.157142857142857029e+00,1.420954515348167700e-05,9.261265539764840460e-06
3.157936507936507819e+00,2.166439991637241896e-05,-7.644196725102098272e-06
3.158730158730158610e+00,2.670092829718418654e-05,-2.261171707705252607e-05
3.159523809523809401e+00,2.891013247873120781e-05,-3.395254033595821033e-05
3.160317460317460192e+00,2.835854046385080602e-05,-4.097832608701401901e-05
3.161111111111110983e+00,2.549693197768568000e-05,-4.409120271974886692e-05
3.161904761904761774e+00,2.100680023258311800e-05,-4.449395013784179938e-05
3.162698412698412564e+00,1.562723136630019750e-05,-4.362429884680066669e-05
3.163492063492063355e+00,1.000349932750608759e-05,-4.251861724444887334e-05
3.164285714285714146e+00,4.591187610148600845e-06,-4.133573224852549644e-05
3.165079365079364937e+00,-3.661710682600439444e-07,-3.922582890159694930e-05
3.165873015873015728e+00,-4.791593928603202650e-06,-3.463240843712520907e-05
3.166666666666666519e+00,-8.690111670971965445e-06,-2.598433040676133857e-05
3.167460317460317309e+00,-1.206508563426215510e-05,-1.258642552820079483e-05
3.168253968253968100e+00,-1.486829998809181411e-05,4.616079676577727413e-06
3.169047619047618891e+00,-1.699632054658120945e-05,2.277536108507423297e-05
3.169841269841269682e+00,-1.832385200434514811e-05,3.764159758012881407e-05
3.170634920634920473e+00,-1.875291918581228944e-05,4.478210047215288800e-05
3.171428571428571264e+00,-1.825729535049429027e-05,4.110577356066766374e-05
3.172222222222222054e+00,-1.690899735353960768e-05,2.607482189222077660e-05
3.173015873015872845e+00,-1.488108584754870004e-05,2.091735545380611609e-06
3.173809523809523636e+00,-1.242640611550372668e-05,-2.609515227865227333e-05
3.174603174603174427e+00,-9.836556282435846306e-06,-5.272314943876752966e-05
3.175396825396825218e+00,-7.389498192959970756e-06,-7.257821944032212340e-05
3.176190476190476009e+00,-5.296645884832455758e-06,-8.224673791874631513e-05
3.176984126984126799e+00,-3.660851431970088694e-06,-8.068846754346772454e-05
3.177777777777777590e+00,-2.455983277983794121e-06,-6.906409449802912708e-05
3.178571428571428381e+00,-1.535826358543709264e-06,-5.003513166660366349e-05
3.179365079365079172e+00,-6.738809658613357368e-07,-2.689088733528525763e-05
3.180158730158729963e+00,3.718676623366441358e-07,-2.810866029787941776e-06
3.180952380952380754e+00,1.781112280120403461e-06,1.958550580953107625e-05
3.181746031746031544e+00,3.596322618442611004e-06,3.840799795436024874e-05
3.182539682539682335e+00,5.670051336514888256e-06,5.248128671707787634e-05
3.183333333333333126e+00,7.654823166322330269e-06,6.125957583299119797e-05
3.184126984126983917e+00,9.051312710857591849e-06,6.474421283042137965e-05
3.184920634920634708e+00,9.317758666197748050e-06,6.342280357406749323e-05
3.185714285714285499e+00,8.024447668025543447e-06,5.820700497611206548e-05
3.186507936507936289e+00,5.017661073035525383e-06,5.033501782188167764e-05
3.187301587301587080e+00,5.458763710437271028e-07,4.121973166099632198e-05
3.188095238095238315e+00,-4.696468326356259022e-06,3.224909947976379123e-05
3.188888888888889106e+00,-9.634789846855337545e-06,2.456799372193611166e-05
3.189682539682539897e+00,-1.298924622488265666e-05,1.888394531298015835e-05
3.190476190476190688e+00,-1.352877962224275705e-05,1.534131477906696252e-05
3.191269841269841478e+00,-1.035185324267718203e-05,1.350028849514039955e-05
3.192063492063492269e+00,-3.132027516976346619e-06,1.243977357427255991e-05
3.192857142857143060e+00,7.727879308581671986e-06,1.097844214959555406e-05
3.193650793650793851e+00,2.107208573730883123e-05,7.979330891069187688e-06
3.194444444444444642e+00,3.511438717094406424e-05,2.675733361376815161e-06
3.195238095238095433e+00,4.769652184787673835e-05,-5.063454604673801117e-06
3.196031746031746223e+00,5.664371701832350559e-05,-1.461185169358955337e-05
3.196825396825397014e+00,6.015322293751151472e-05,-2.466255341381661629e-05
3.197619047619047805e+00,5.713861444792041479e-05,-3.350522621435197040e-05
3.198412698412698596e+00,4.745925042792219488e-05,-3.944247120603752661e-05
3.199206349206349387e+00,3.198808553948195724e-05,-4.123746472798938610e-05
3.200000000000000178e+00,1.250341948336996118e-05,-3.846734320327560276e-05
3.200793650793650968e+00,-8.576476791561389032e-06,-3.167269628427408427e-05
3.201587301587301759e+00,-2.856794977162171786e-05,-2.224003427307254309e-05
3.202380952380952550e+00,-4.493855322324396472e-05,-1.202635481906491181e-05
3.203174603174603341e+00,-5.569315741631478237e-05,-2.823197259188725543e-06
3.203968253968254132e+00,-5.966643596056165841e-05,4.165936571307084167e-06
3.204761904761904923e+00,-5.667871768144489394e-05,8.640626043290191411e-06
3.205555555555555713e+00,-4.753706326659397217e-05,1.118193914394860643e-05
3.206349206349206504e+00,-3.388752395087474810e-05,1.289997168808316334e-05
3.207142857142857295e+00,-1.794476685265207746e-05,1.490338908922945108e-05
3.207936507936508086e+00,-2.140977908195131648e-06,1.782669901848299467e-05
3.208730158730158877e+00,1.125294284584434167e-05,2.161241131502817192e-05
3.209523809523809668e+00,2.047562316060738810e-05,2.559759773430597961e-05
3.210317460317460458e+00,2.453683428635375350e-05,2.879207958113292441e-05
3.211111111111111249e+00,2.334711870786281978e-05,3.017043892595396373e-05
3.211904761904762040e+00,1.769011120617658311e-05,2.886835884961882505e-05
3.212698412698412831e+00,9.041126672097179150e-06,2.430114717652754670e-05
3.213492063492063622e+00,-7.320506479188135483e-07,1.628598315449000358e-05
3.214285714285714413e+00,-9.725098931836778665e-06,5.193653395812450666e-06
3.215079365079365203e+00,-1.634045882366814541e-05,-7.950699810951443214e-06
3.215873015873015994e+00,-1.955821318189876088e-05,-2.153692310335414030e-05
3.216666666666666785e+00,-1.909429876289513408e-05,-3.365932841921974114e-05
3.217460317460317576e+00,-1.542633498584064226e-05,-4.256218946219716195e-05
3.218253968253968367e+00,-9.685304844300005134e-06,-4.709750487246833553e-05
3.219047619047619158e+00,-3.427883696747562878e-06,-4.703606668267756305e-05
3.219841269841269948e+00,1.678713771658470916e-06,-4.311572842929269739e-05
3.220634920634920739e+00,4.209832340635958176e-06,-3.679945351400979798e-05
3.221428571428571530e+00,3.309665517188491519e-06,-2.982557898011690826e-05
3.222222222222222321e+00,-1.079839203175580223e-06,-2.371229163883046192e-05
3.223015873015873112e+00,-8.146163291698230397e-06,-1.937499544946704878e-05
3.223809523809523903e+00,-1.631688603638571441e-05,-1.693054389210163667e-05
3.224603174603174693e+00,-2.354097238678783805e-05,-1.566926353283592613e-05
3.225396825396825484e+00,-2.769337041101167484e-05,-1.415370695935906494e-05
3.226190476190476275e+00,-2.703162540753992340e-05,-1.045013540749680803e-05
3.226984126984127066e+00,-2.061557309862123774e-05,-2.533809637535088827e-06
3.227777777777777857e+00,-8.593034207712751789e-06,1.113234754788594216e-05
3.228571428571428648e+00,7.730039393732413892e-06,3.094676362298291256e-05
3.229365079365079438e+00,2.606861555983332537e-05,5.563905928728566611e-05
3.230158730158730229e+00,4.355261321089097260e-05,8.208212063858433185e-05
3.230952380952381020e+00,5.724389120122363853e-05,1.056108631100709634e-04
3.231746031746031811e+00,6.466271560476629244e-05,1.208780094748350235e-04
3.232539682539682602e+00,6.422769396330390212e-05,1.231011006101288157e-04
3.233333333333333393e+00,5.554916138759275602e-05,1.093949399566413740e-04
3.234126984126984183e+00,3.954554674391803812e-05,7.980223837057118545e-05
3.234920634920634974e+00,1.836465607509846305e-05,3.767102125898996940e-05
3.235714285714285765e+00,-4.901135104368665836e-06,-1.082024463387901415e-05
