Timestamp,Flexor carpi radialis,Extensor digitorum
2.000000000000000000e+00,1.256537741636052966e-05,-5.270232578237693045e-05
2.000793650793650791e+00,1.309851900597870448e-05,-8.398676277737447183e-05
2.001587301587301582e+00,1.282675972382749387e-05,-1.072310096264690187e-04
2.002380952380952372e+00,1.199055552594700776e-05,-1.205117791361121803e-04
2.003174603174603163e+00,1.076261617021087911e-05,-1.234200869333269184e-04
2.003968253968253954e+00,9.283138188982701514e-06,-1.169008873265609645e-04
2.004761904761904745e+00,7.705633548690611062e-06,-1.028743579846393732e-04
2.005555555555555536e+00,6.222350910298738291e-06,-8.377608119416967943e-05
2.006349206349206327e+00,5.050971923375015697e-06,-6.213747618569520951e-05
2.007142857142857117e+00,4.385496088744077766e-06,-4.026685642485088116e-05
2.007936507936507908e+00,4.332851747082916090e-06,-2.002961104318164026e-05
2.008730158730158699e+00,4.863879387008266202e-06,-2.708409076864217208e-06
2.009523809523809490e+00,5.800949055443359472e-06,1.105216752899097495e-05
2.010317460317460281e+00,6.849104429418444512e-06,2.119450493641159895e-05
2.011111111111111072e+00,7.660573740560064121e-06,2.808892326208638763e-05
2.011904761904761862e+00,7.910976875841613858e-06,3.230978003860696097e-05
2.012698412698412653e+00,7.364669943178264756e-06,3.442234775608482350e-05
2.013492063492063444e+00,5.916136442460737476e-06,3.485408036365092340e-05
2.014285714285714235e+00,3.607215334978504629e-06,3.388654099900504838e-05
2.015079365079365026e+00,6.274636863324106806e-07,3.174970721259633637e-05
2.015873015873015817e+00,-2.696341986483351695e-06,2.875783824564522132e-05
2.016666666666666607e+00,-5.922174466373298581e-06,2.541633053393856648e-05
2.017460317460317398e+00,-8.532572670431741603e-06,2.244755976927982844e-05
2.018253968253968189e+00,-9.998561575819747821e-06,2.071154229848990919e-05
2.019047619047618980e+00,-9.866095160514935564e-06,2.102484978597762968e-05
2.019841269841269771e+00,-7.851499549906621795e-06,2.391171101721708666e-05
2.020634920634920562e+00,-3.924144406965394559e-06,2.935320364162307023e-05
2.021428571428571352e+00,1.644721386624622819e-06,3.661968611344480258e-05
2.022222222222222143e+00,8.280485320864678197e-06,4.426201215923311074e-05
2.023015873015872934e+00,1.515597186553193260e-05,5.029608114580733926e-05
2.023809523809523725e+00,2.129227600871770080e-05,5.255885739470322313e-05
2.024603174603174516e+00,2.569954250179505909e-05,4.916566162263641903e-05
2.025396825396825307e+00,2.753772234088896101e-05,3.897230182061200651e-05
2.026190476190476097e+00,2.626814059949186071e-05,2.194057148066605963e-05
2.026984126984126888e+00,2.176307584601031760e-05,-6.839532906821849864e-07
2.027777777777777679e+00,1.434602391146313091e-05,-2.644806737704893883e-05
2.028571428571428470e+00,4.750355697199523682e-06,-5.204546805076970556e-05
2.029365079365079261e+00,-5.994789790903868217e-06,-7.391429667260944990e-05
2.030158730158730052e+00,-1.672273253979144342e-05,-8.897016301253308861e-05
2.030952380952380842e+00,-2.629343875955784425e-05,-9.530136476827492616e-05
2.031746031746031633e+00,-3.373151715100873604e-05,-9.262600676853472478e-05
2.032539682539682424e+00,-3.832379004132626304e-05,-8.235224117840308177e-05
2.033333333333333215e+00,-3.968035873157281442e-05,-6.719546467778585630e-05
2.034126984126984006e+00,-3.776986848201807618e-05,-5.045321732666105456e-05
2.034920634920634797e+00,-3.293172322750687449e-05,-3.515672268317506248e-05
2.035714285714285587e+00,-2.585191460795171174e-05,-2.335314835605094622e-05
2.036507936507936378e+00,-1.747817861212606024e-05,-1.571387924989460912e-05
2.037301587301587169e+00,-8.857748539226008630e-06,-1.154850595133587963e-05
2.038095238095237960e+00,-9.111178910413633134e-07,-9.184573112877028071e-06
2.038888888888888751e+00,5.803444492134653067e-06,-6.582335999114152404e-06
2.039682539682539542e+00,1.124971969868330077e-05,-2.001692828717818562e-06
2.040476190476190332e+00,1.591429362856402612e-05,5.469364002663415010e-06
2.041269841269841123e+00,2.060591351091729478e-05,1.567214909798903967e-05
2.042063492063491914e+00,2.608402130101018359e-05,2.747918255860041750e-05
2.042857142857142705e+00,3.262920250865594430e-05,3.919181966382659702e-05
2.043650793650793496e+00,3.972447947958034244e-05,4.909569765392133781e-05
2.044444444444444287e+00,4.600892148601785236e-05,5.599391288279122121e-05
2.045238095238095077e+00,4.957733200639689245e-05,5.955295508574242876e-05
2.046031746031745868e+00,4.855830296077657453e-05,6.036045946051154599e-05
2.046825396825396659e+00,4.177252593832901314e-05,5.968367202172313154e-05
2.047619047619047450e+00,2.922154134340364362e-05,5.900373577562859290e-05
2.048412698412698241e+00,1.221425516607012108e-05,5.946135241947662279e-05
2.049206349206349032e+00,-6.919744460302322074e-06,6.137641898192299828e-05
2.049999999999999822e+00,-2.542058864683395124e-05,6.399627946919625410e-05
2.050793650793650613e+00,-4.077693314543768763e-05,6.557845163539809433e-05
2.051587301587301404e+00,-5.126905170247185965e-05,6.382215079708526782e-05
2.052380952380952195e+00,-5.623099160457742959e-05,5.654935238373195246e-05
2.053174603174602986e+00,-5.600384685364097640e-05,4.244417120138699258e-05
2.053968253968253777e+00,-5.165288083359249953e-05,2.162938634390035205e-05
2.054761904761904567e+00,-4.457379161907999487e-05,-4.097885582234876073e-06
2.055555555555555358e+00,-3.611607743542579255e-05,-3.145400894368326488e-05
2.056349206349206149e+00,-2.731997123775920062e-05,-5.625300312407056024e-05
2.057142857142856940e+00,-1.881561078899431129e-05,-7.426924934934491321e-05
2.057936507936507731e+00,-1.088108802605901138e-05,-8.220120373646015147e-05
2.058730158730158522e+00,-3.607920895592191962e-06,-7.852438835142994849e-05
2.059523809523809312e+00,2.910932960767537712e-06,-6.401626200815635980e-05
2.060317460317460103e+00,8.459137958385139826e-06,-4.178020946215940570e-05
2.061111111111110894e+00,1.269494650444958425e-05,-1.670535228751805933e-05
2.061904761904761685e+00,1.526154133880001430e-05,5.547641984833069485e-06
2.062698412698412920e+00,1.594647641772279696e-05,1.979905659217950150e-05
2.063492063492063711e+00,1.480783199011059383e-05,2.252409371042766895e-05
2.064285714285714501e+00,1.220924166369357257e-05,1.264849237797902766e-05
2.065079365079365292e+00,8.753872788845987838e-06,-8.225839192102368119e-06
2.065873015873016083e+00,5.148478736112890721e-06,-3.620302231751845111e-05
2.066666666666666874e+00,2.044375139867319375e-06,-6.597637997716307629e-05
2.067460317460317665e+00,-1.046268633025071436e-07,-9.199973682572596008e-05
2.068253968253968456e+00,-1.141150940051620193e-06,-1.096700114230710516e-04
2.069047619047619246e+00,-1.242650477287592259e-06,-1.162298713167945276e-04
2.069841269841270037e+00,-8.857548864855178985e-07,-1.111598022643656825e-04
2.070634920634920828e+00,-7.300892191658402307e-07,-9.597447658952207848e-05
2.071428571428571619e+00,-1.431169106811823809e-06,-7.352478234377172529e-05
2.072222222222222410e+00,-3.415697094768718412e-06,-4.705283281747848920e-05
2.073015873015873201e+00,-6.676240418178919193e-06,-1.929518514345439118e-05
2.073809523809523991e+00,-1.065496531094429033e-05,8.120095595227805899e-06
2.074603174603174782e+00,-1.427782988669306619e-05,3.484600025684898351e-05
2.075396825396825573e+00,-1.616679476656869265e-05,6.154680527727395033e-05
2.076190476190476364e+00,-1.500226361403140445e-05,8.927942569570889114e-05
2.076984126984127155e+00,-9.945653337346167065e-06,1.186918310433046126e-04
2.077777777777777946e+00,-9.876966838280378313e-07,1.492491662838169909e-04
2.078571428571428736e+00,1.091036908287124374e-05,1.787152715282912241e-04
2.079365079365079527e+00,2.395605168950508876e-05,2.030888008396594300e-04
2.080158730158730318e+00,3.592050160085506462e-05,2.171030388359818867e-04
2.080952380952381109e+00,4.467141611277910065e-05,2.152559374287826280e-04
2.081746031746031900e+00,4.868012589610041737e-05,1.931764956534755739e-04
2.082539682539682691e+00,4.735575467128669465e-05,1.490036172126006728e-04
2.083333333333333481e+00,4.112611122572502670e-05,8.440210950126560835e-05
2.084126984126984272e+00,3.127032519631173669e-05,4.895132968501667221e-06
2.084920634920635063e+00,1.957813236244787045e-05,-8.065637648186484317e-05
2.085714285714285854e+00,7.943741925616862968e-06,-1.613899106865773194e-04
2.086507936507936645e+00,-2.003374783023823925e-06,-2.263459575775620054e-04
2.087301587301587436e+00,-9.159252424398029168e-06,-2.665331343906361021e-04
2.088095238095238226e+00,-1.306470381623185993e-05,-2.766811664912764701e-04
2.088888888888889017e+00,-1.388410887878630153e-05,-2.562683965932772956e-04
2.089682539682539808e+00,-1.227072687767897238e-05,-2.095877606440201663e-04
2.090476190476190599e+00,-9.163228169217789752e-06,-1.448588022189233038e-04
2.091269841269841390e+00,-5.565403520524544809e-06,-7.262198736824427518e-05
2.092063492063492181e+00,-2.355842472164151039e-06,-3.793733312730166880e-06
2.092857142857142971e+00,-1.592839350385160319e-07,5.221096292897472628e-05
2.093650793650793762e+00,7.080431235859049506e-07,8.894640134549530199e-05
2.094444444444444553e+00,2.252968954427353057e-07,1.037679560877912511e-04
2.095238095238095344e+00,-1.394368812523491021e-06,9.793052417735396682e-05
2.096031746031746135e+00,-3.789059108190676185e-06,7.598450354801559092e-05
2.096825396825396925e+00,-6.535910787108575888e-06,4.462159608665174380e-05
2.097619047619047716e+00,-9.226797635482014587e-06,1.122436585950094331e-05
2.098412698412698507e+00,-1.152352208978161051e-05,-1.756833066220732704e-05
2.099206349206349298e+00,-1.318832679475876280e-05,-3.697652949462419171e-05
2.100000000000000089e+00,-1.408925486855264761e-05,-4.465661849932480896e-05
2.100793650793650880e+00,-1.418437843764379301e-05,-4.066978563060251104e-05
2.101587301587301670e+00,-1.349404947800514997e-05,-2.693751331947439662e-05
2.102380952380952461e+00,-1.207393189907108165e-05,-6.411470375073786888e-06
2.103174603174603252e+00,-1.000042505129683203e-05,1.776650296433665517e-05
2.103968253968254043e+00,-7.372943735378908436e-06,4.288654320043617889e-05
2.104761904761904834e+00,-4.327674163267737440e-06,6.696325970760717459e-05
2.105555555555555625e+00,-1.050834746770171488e-06,8.871760286337208195e-05
2.106349206349206415e+00,2.220195082657599629e-06,1.073630930532837557e-04
2.107142857142857206e+00,5.213167334434976616e-06,1.223448459346775921e-04
2.107936507936507997e+00,7.651439213542284012e-06,1.331489706633878084e-04
2.108730158730158788e+00,9.289424090259485456e-06,1.392294808930996924e-04
2.109523809523809579e+00,9.944305387596221385e-06,1.400330551783723345e-04
2.110317460317460370e+00,9.521921564619621677e-06,1.350732559835343227e-04
2.111111111111111160e+00,8.041095000194666429e-06,1.240164833122858496e-04
2.111904761904761951e+00,5.658864696224853351e-06,1.067668967476284521e-04
2.112698412698412742e+00,2.688068656347844618e-06,8.355147301667804557e-05
2.113492063492063533e+00,-4.124796450585405987e-07,5.500079726591224690e-05
2.114285714285714324e+00,-3.094370813802108303e-06,2.220411159489836745e-05
2.115079365079365115e+00,-4.825126884138816294e-06,-1.329652800906369851e-05
2.115873015873015905e+00,-5.220526080227115775e-06,-4.960534615346308824e-05
2.116666666666666696e+00,-4.161894673923660171e-06,-8.467125368833847349e-05
2.117460317460317487e+00,-1.854190322382342849e-06,-1.165455361824663629e-04
2.118253968253968278e+00,1.201435711026166856e-06,-1.436146871042456223e-04
2.119047619047619069e+00,4.316846569340119893e-06,-1.647170323996033066e-04
2.119841269841269860e+00,6.776576964963330916e-06,-1.791013263518385706e-04
2.120634920634920650e+00,8.002879437953145755e-06,-1.862707382912298995e-04
2.121428571428571441e+00,7.683058829666260676e-06,-1.858265310743558167e-04
2.122222222222222232e+00,5.829197801917273991e-06,-1.774385446377177965e-04
2.123015873015873023e+00,2.759537503566420032e-06,-1.610081855248156986e-04
2.123809523809523814e+00,-9.887676824412682077e-07,-1.369744174397087425e-04
2.124603174603174605e+00,-4.788545817146201752e-06,-1.066059252910756254e-04
2.125396825396825395e+00,-8.056365606587768469e-06,-7.209659394732935726e-05
2.126190476190476186e+00,-1.035557270036947161e-05,-3.636007122864523967e-05
2.126984126984126977e+00,-1.144633909165422922e-05,-2.552760224811095525e-06
2.127777777777777768e+00,-1.128180501630922262e-05,2.653135245002281132e-05
2.128571428571428559e+00,-9.969654715450293486e-06,4.900118642144808971e-05
2.129365079365079350e+00,-7.728062175572224409e-06,6.417648698517042737e-05
2.130158730158730140e+00,-4.859228783589219738e-06,7.258042749486838887e-05
2.130952380952380931e+00,-1.745707254010735637e-06,7.564166547144711580e-05
2.131746031746031722e+00,1.145931546290016658e-06,7.521337113448197894e-05
2.132539682539682513e+00,3.281029273604044820e-06,7.304974843117880573e-05
2.133333333333333304e+00,4.114951319705383315e-06,7.037146769541972663e-05
2.134126984126984095e+00,3.198348826488868691e-06,6.761969406000603252e-05
2.134920634920634885e+00,3.125890940223688341e-07,6.445381138260913216e-05
2.135714285714285676e+00,-4.399429038379820856e-06,5.999053349670858173e-05
2.136507936507936467e+00,-1.035084943935438879e-05,5.321627617503387153e-05
2.137301587301587258e+00,-1.651889570926451731e-05,4.344767510443813820e-05
2.138095238095238049e+00,-2.157176040601442118e-05,3.069189912882719313e-05
2.138888888888888840e+00,-2.411558848707734875e-05,1.578839467734596591e-05
2.139682539682539630e+00,-2.302340176630145429e-05,2.936114708567287535e-07
2.140476190476190421e+00,-1.776602515648488911e-05,-1.383548490521511303e-05
2.141269841269841212e+00,-8.640716630351226972e-06,-2.464366807664651894e-05
2.142063492063492003e+00,3.193985854370425690e-06,-3.054986592519397763e-05
2.142857142857142794e+00,1.591465750850994251e-05,-3.061792837181634078e-05
2.143650793650793585e+00,2.742131324037603784e-05,-2.470499995571241966e-05
2.144444444444444375e+00,3.581094396785081704e-05,-1.349638913411129064e-05
2.145238095238095166e+00,3.979990612188956031e-05,1.561717818551702903e-06
2.146031746031745957e+00,3.897817975578080866e-05,1.842915557502342722e-05
2.146825396825396748e+00,3.383691268833629055e-05,3.473204177288834275e-05
2.147619047619047539e+00,2.558288821946615106e-05,4.808548779018917272e-05
2.148412698412698330e+00,1.581196019628923762e-05,5.642167534546682650e-05
2.149206349206349120e+00,6.140833119001636576e-06,5.826637448104049759e-05
2.149999999999999911e+00,-2.108861917515807984e-06,5.293555585129529030e-05
2.150793650793650702e+00,-8.109105607637230202e-06,4.065157643300837555e-05
2.151587301587301493e+00,-1.158157288713219284e-05,2.257828363807085816e-05
2.152380952380952284e+00,-1.272582820010102308e-05,7.548667732225759355e-07
2.153174603174603075e+00,-1.206299446162118737e-05,-2.209468607684310555e-05
2.153968253968253865e+00,-1.024972401702038181e-05,-4.286890871056514557e-05
2.154761904761904656e+00,-7.912320669199223789e-06,-5.846750429070610508e-05
2.155555555555555447e+00,-5.535363384148591314e-06,-6.618661376296978895e-05
2.156349206349206238e+00,-3.419006124798338700e-06,-6.409312074241210581e-05
2.157142857142857029e+00,-1.698722530756002236e-06,-5.135257685412380693e-05
2.157936507936507819e+00,-4.051279020479179657e-07,-2.847744619721419859e-05
2.158730158730158610e+00,4.659892682825789236e-07,2.550632309892470734e-06
2.159523809523809401e+00,9.000352748153535050e-07,3.833153685831574019e-05
2.160317460317460192e+00,8.412531184230925075e-07,7.430629179671788145e-05
2.161111111111110983e+00,2.027655794238668396e-07,1.052456397810063300e-04
2.161904761904761774e+00,-1.099162573079784435e-06,1.259600710477007022e-04
2.162698412698412564e+00,-3.098067967675942441e-06,1.321704247113861805e-04
2.163492063492063355e+00,-5.729188235038248536e-06,1.214008264720096275e-04
2.164285714285714146e+00,-8.792761883293619547e-06,9.368610340850560539e-05
2.165079365079364937e+00,-1.194195093663898564e-05,5.187130592989135634e-05
2.165873015873015728e+00,-1.470638132543930119e-05,1.351619890764329974e-06
2.166666666666666519e+00,-1.655507174681705804e-05,-5.075798522313776856e-05
2.167460317460317309e+00,-1.699225580088234035e-05,-9.687808604615962124e-05
2.168253968253968100e+00,-1.567004597186618680e-05,-1.303865603273571532e-04
2.169047619047618891e+00,-1.249421311382309853e-05,-1.468997656600341849e-04
2.169841269841269682e+00,-7.693519161150115898e-06,-1.451176384439187988e-04
2.170634920634920473e+00,-1.823228071584069708e-06,-1.270140196072358117e-04
2.171428571428571264e+00,4.313595563224742172e-06,-9.730749125699648949e-05
2.172222222222222054e+00,9.817433043811568444e-06,-6.234823026236441257e-05
2.173015873015872845e+00,1.387864044840801806e-05,-2.871915201521313163e-05
2.173809523809523636e+00,1.594609833169068302e-05,-1.901196412884281656e-06
2.174603174603174427e+00,1.583206839708335993e-05,1.471081129390279739e-05
2.175396825396825218e+00,1.373101946784900390e-05,2.027790372680671633e-05
2.176190476190476009e+00,1.015835747979798427e-05,1.643170937817212522e-05
2.176984126984126799e+00,5.834928783039534142e-06,6.693855419974661906e-06
2.177777777777777590e+00,1.549301019059289051e-06,-4.460074022623981934e-06
2.178571428571428381e+00,-1.975752458744737535e-06,-1.269038636021641029e-05
2.179365079365079172e+00,-4.196218813584777259e-06,-1.480362907023846161e-05
2.180158730158729963e+00,-4.829796033756526014e-06,-9.465504438060895370e-06
2.180952380952380754e+00,-3.900410059866722360e-06,2.532199591246210007e-06
2.181746031746031544e+00,-1.734940046444513472e-06,1.849117803100950341e-05
2.182539682539682335e+00,1.094440282518212073e-06,3.444170957201861237e-05
2.183333333333333126e+00,3.879800665308510446e-06,4.604225483322262947e-05
2.184126984126983917e+00,5.922354738013977067e-06,4.955842349578613035e-05
2.184920634920634708e+00,6.681919040139462240e-06,4.274078588849473714e-05
2.185714285714285499e+00,5.892748337685952518e-06,2.544673023696866838e-05
2.186507936507936289e+00,3.613802228723531370e-06,-1.170344478129109607e-07
2.187301587301587080e+00,2.020195056671002094e-07,-2.961751680173215753e-05
2.188095238095238315e+00,-3.775998642850817366e-06,-5.730672779380715045e-05
2.188888888888889106e+00,-7.658417495793714614e-06,-7.713711277579695118e-05
2.189682539682539897e+00,-1.079132343422689599e-05,-8.406866081333609370e-05
2.190476190476190688e+00,-1.260219426863405094e-05,-7.526474494342942840e-05
2.191269841269841478e+00,-1.265368218060141861e-05,-5.087269361934209440e-05
2.192063492063492269e+00,-1.070326967711285410e-05,-1.417839034325746993e-05
2.192857142857143060e+00,-6.780715215324254342e-06,2.892328995494437006e-05
2.193650793650793851e+00,-1.260288357006111171e-06,7.103544615499329394e-05
2.194444444444444642e+00,5.120963435396703855e-06,1.047020946883117312e-04
2.195238095238095433e+00,1.133855090960653898e-05,1.238737647680317915e-04
2.196031746031746223e+00,1.624991324710694504e-05,1.250866112389273940e-04
2.196825396825397014e+00,1.881812822239751465e-05,1.081172878607482947e-04
2.197619047619047805e+00,1.833305563297440877e-05,7.599154553250751201e-05
2.198412698412698596e+00,1.457983103670292053e-05,3.435732045329227557e-05
2.199206349206349387e+00,7.922336961018356131e-06,-9.642400653330680747e-06
2.200000000000000178e+00,-7.131148137196401979e-07,-4.876264662983405398e-05
2.200793650793650968e+00,-9.953910146217240088e-06,-7.702025227019237052e-05
2.201587301587301759e+00,-1.818401763352151882e-05,-9.073199466962149828e-05
2.202380952380952550e+00,-2.380803758443377459e-05,-8.901244396574992676e-05
2.203174603174603341e+00,-2.553800539149262322e-05,-7.366942354451391653e-05
2.203968253968254132e+00,-2.265315846560772984e-05,-4.859728556414014697e-05
2.204761904761904923e+00,-1.517944370274707651e-05,-1.887133807072837664e-05
2.205555555555555713e+00,-3.946174020052447224e-06,1.023627244419823041e-05
2.206349206349206504e+00,9.500268639329399859e-06,3.414440642017976113e-05
2.207142857142857295e+00,2.311997185184936249e-05,4.964193579508619766e-05
2.207936507936508086e+00,3.471087958641702593e-05,5.529164991367253764e-05
2.208730158730158877e+00,4.229725582879671005e-05,5.152039536932468994e-05
2.209523809523809668e+00,4.450672193361805381e-05,4.038436233665273855e-05
2.210317460317460458e+00,4.085870757620440957e-05,2.504371894063558824e-05
2.211111111111111249e+00,3.189341569579790095e-05,9.042725181528104308e-06
2.211904761904762040e+00,1.909525052617352936e-05,-4.451886631280476317e-06
2.212698412698412831e+00,4.608311080102080973e-06,-1.327959250416074293e-05
2.213492063492063622e+00,-9.203287460103077428e-06,-1.663696263444262543e-05
2.214285714285714413e+00,-2.024741334455831967e-05,-1.507943671156971083e-05
2.215079365079365203e+00,-2.712094065118014188e-05,-1.019425334564084863e-05
2.215873015873015994e+00,-2.934129320662081999e-05,-4.049197333505957008e-06
2.216666666666666785e+00,-2.734007621815291242e-05,1.419069187516788595e-06
2.217460317460317576e+00,-2.224355362521690540e-05,4.897322271338702748e-06
2.218253968253968367e+00,-1.552668050948007906e-05,5.931184309580623936e-06
2.219047619047619158e+00,-8.650045366452526301e-06,4.861382996910626799e-06
2.219841269841269948e+00,-2.771680380673468329e-06,2.531680280689588877e-06
2.220634920634920739e+00,1.414873192386552540e-06,-8.285589745423696351e-08
2.221428571428571530e+00,3.708211552117666748e-06,-2.177311432147389940e-06
2.222222222222222321e+00,4.317198093063704187e-06,-3.271024929877666539e-06
2.223015873015873112e+00,3.712522900017171990e-06,-3.230001378256465179e-06
2.223809523809523903e+00,2.459241969380577607e-06,-2.221475756721401836e-06
2.224603174603174693e+00,1.071225868881569906e-06,-6.495454835847540812e-07
2.225396825396825484e+00,-8.594792164442580397e-08,9.223024880320594220e-07
2.226190476190476275e+00,-8.343077118935032056e-07,1.881353907942599314e-06
2.226984126984127066e+00,-1.170767899378442035e-06,1.715978356678608925e-06
2.227777777777777857e+00,-1.218266699582020749e-06,1.763702616896674912e-07
2.228571428571428648e+00,-1.160751484758627005e-06,-2.614628641660909687e-06
2.229365079365079438e+00,-1.180355685825099063e-06,-6.157989965587376770e-06
2.230158730158730229e+00,-1.409421620934902746e-06,-9.701159942114024324e-06
2.230952380952381020e+00,-1.903120994511337449e-06,-1.245413156318249594e-05
2.231746031746031811e+00,-2.633037247240186083e-06,-1.382787221905217671e-05
2.232539682539682602e+00,-3.499418069040033015e-06,-1.361424602382624570e-05
2.233333333333333393e+00,-4.358810562048569372e-06,-1.204615703402046237e-05
2.234126984126984183e+00,-5.062004587114062940e-06,-9.717250931352054103e-06
2.234920634920634974e+00,-5.493647786197125456e-06,-7.388061103221964640e-06
2.235714285714285765e+00,-5.602072148338049459e-06,-5.743269151224169957e-06
2.236507936507936556e+00,-5.409547810920367412e-06,-5.179636443372944040e-06
2.237301587301587347e+00,-4.999705261674423821e-06,-5.691354797810647458e-06
2.238095238095238138e+00,-4.486591060437809019e-06,-6.883712465835533262e-06
2.238888888888888928e+00,-3.975449122453614285e-06,-8.102392775678927687e-06
2.239682539682539719e+00,-3.528118580592558628e-06,-8.634067006137309983e-06
2.240476190476190510e+00,-3.145331498479531923e-06,-7.921752704424364004e-06
2.241269841269841301e+00,-2.772871471070435994e-06,-5.738077790790352326e-06
2.242063492063492092e+00,-2.329346381555287150e-06,-2.266472061607148985e-06
2.242857142857142883e+00,-1.744485975878951514e-06,1.938829846776887212e-06
2.243650793650793673e+00,-9.931464519357417677e-07,6.105751771058389067e-06
2.244444444444444464e+00,-1.130986148849790854e-07,9.462430144111972993e-06
2.245238095238095255e+00,7.983409976531255103e-07,1.145063172798491943e-05
2.246031746031746046e+00,1.606703480099512533e-06,1.186972647656206645e-05
2.246825396825396837e+00,2.174806051086769154e-06,1.091253566926980353e-05
2.247619047619047628e+00,2.399724583863615310e-06,9.089365373694516432e-06
2.248412698412698418e+00,2.242169675170158442e-06,7.069146068558723723e-06
2.249206349206349209e+00,1.739691648366399379e-06,5.489839614846615637e-06
2.250000000000000000e+00,9.992964933762992492e-07,4.799423271128442785e-06
2.250793650793650791e+00,1.713494797098471719e-07,5.178648109620252353e-06
2.251587301587301582e+00,-5.868910108107657964e-07,6.565022804203238740e-06
2.252380952380952372e+00,-1.146101259413565676e-06,8.752610405587719114e-06
2.253174603174603163e+00,-1.427324899536918603e-06,1.150562444641988817e-05
2.253968253968253954e+00,-1.406888324122563155e-06,1.461801057611162442e-05
2.254761904761904745e+00,-1.105696757671550428e-06,1.788295943427648823e-05
2.255555555555555536e+00,-5.698680837973357123e-07,2.099055827484008080e-05
2.256349206349206327e+00,1.488727019951873607e-07,2.342081669950549146e-05
2.257142857142857117e+00,1.006289596176612679e-06,2.441767819173829615e-05
2.257936507936507908e+00,1.968840063746545468e-06,2.310577986826417449e-05
2.258730158730158699e+00,3.007362273010801832e-06,1.875220688913206653e-05
2.259523809523809490e+00,4.084921497901238824e-06,1.110241787527016490e-05
2.260317460317460281e+00,5.144738508332543849e-06,6.637368695300448535e-07
2.261111111111111072e+00,6.104752596352923022e-06,-1.119954763058327649e-05
2.261904761904761862e+00,6.863760798967308796e-06,-2.244486271761520193e-05
2.262698412698412653e+00,7.319899133993239442e-06,-3.079184910702469953e-05
2.263492063492063444e+00,7.396627481478358992e-06,-3.430684652742368654e-05
2.264285714285714235e+00,7.067236285290397712e-06,-3.194608462610388323e-05
2.265079365079365026e+00,6.368644385386789829e-06,-2.387651474185982316e-05
2.265873015873015817e+00,5.398680553257828941e-06,-1.147200793939282394e-05
2.266666666666666607e+00,4.296217614876911392e-06,2.996721522177539772e-06
2.267460317460317398e+00,3.208937659261975239e-06,1.685528067509645640e-05
2.268253968253968189e+00,2.257916321541009082e-06,2.754100986095123411e-05
2.269047619047618980e+00,1.509758994661769734e-06,3.301854461484040931e-05
2.269841269841269771e+00,9.643265113725275812e-07,3.204972305421100516e-05
2.270634920634920562e+00,5.601376575498371003e-07,2.433255730317824918e-05
2.271428571428571352e+00,1.933352382791564567e-07,1.054061379555453944e-05
2.272222222222222143e+00,-2.574399276023586471e-07,-7.724646320602747811e-06
2.273015873015872934e+00,-9.075512898746792699e-07,-2.808159477597000603e-05
2.273809523809523725e+00,-1.848171990868071529e-06,-4.763666886041327254e-05
2.274603174603174516e+00,-3.133650213062345315e-06,-6.337584386199399014e-05
2.275396825396825307e+00,-4.773120898744600707e-06,-7.264736260746389586e-05
2.276190476190476097e+00,-6.725510084913584296e-06,-7.366260285581885468e-05
2.276984126984126888e+00,-8.897383166100020891e-06,-6.590462055549048219e-05
2.277777777777777679e+00,-1.114188521618931329e-05,-5.031902910117108213e-05
2.278571428571428470e+00,-1.325588432087638124e-05,-2.919425982062648218e-05
2.279365079365079261e+00,-1.497440086900186159e-05,-5.724299946494371622e-06
2.280158730158730052e+00,-1.596729914016120080e-05,1.664501743688768886e-05
2.280952380952380842e+00,-1.584967057795908730e-05,3.490859205930557890e-05
2.281746031746031633e+00,-1.421908761452335213e-05,4.704664823312614295e-05
2.282539682539682424e+00,-1.072725711328478216e-05,5.229034975767365181e-05
2.283333333333333215e+00,-5.182161488473458563e-06,5.106999967777077476e-05
2.284126984126984006e+00,2.337090927815096258e-06,4.470252020303241752e-05
2.284920634920634797e+00,1.138365273969440411e-05,3.494421967783752168e-05
2.285714285714285587e+00,2.110324040246224753e-05,2.355858449021674844e-05
2.286507936507936378e+00,3.028540022754674097e-05,1.201986700020487825e-05
2.287301587301587169e+00,3.751906623875387307e-05,1.403811441065595192e-06
2.288095238095237960e+00,4.143407611957840379e-05,-7.562663791312671279e-06
2.288888888888888751e+00,4.097997010340503199e-05,-1.437692112599078103e-05
2.289682539682539542e+00,3.567655429327639365e-05,-1.865793669902539653e-05
2.290476190476190332e+00,2.577334973304079829e-05,-2.013224985220941039e-05
2.291269841269841123e+00,1.227490164714671684e-05,-1.871820334883472859e-05
2.292063492063491914e+00,-3.181943796971833963e-06,-1.465793230809070428e-05
2.292857142857142705e+00,-1.858201589671396427e-05,-8.610805371543366448e-06
2.293650793650793496e+00,-3.187224976046502495e-05,-1.631159286866590574e-06
2.294444444444444287e+00,-4.132174907219224048e-05,4.995892156874476626e-06
2.295238095238095077e+00,-4.582468101672956806e-05,1.002311458530130199e-05
2.296031746031745868e+00,-4.507815524067426287e-05,1.253415440827622336e-05
2.296825396825396659e+00,-3.959709272183436140e-05,1.217317605612693566e-05
2.297619047619047450e+00,-3.057166255055585751e-05,9.242979396699790317e-06
2.298412698412698241e+00,-1.961448999221612904e-05,4.636902388631361633e-06
2.299206349206349032e+00,-8.467041072804973008e-06,-3.890593008812653268e-07
2.299999999999999822e+00,1.271333240464295488e-06,-4.552091256508661546e-06
2.300793650793650613e+00,8.355009521180488922e-06,-6.895435513061362930e-06
2.301587301587301404e+00,1.203634179127706696e-05,-7.051922759174489907e-06
2.302380952380952195e+00,1.214823549999513171e-05,-5.332084122094568637e-06
2.303174603174602986e+00,9.126674946136717649e-06,-2.603171542992001172e-06
2.303968253968253777e+00,3.964070311942507394e-06,8.108792309922507888e-09
2.304761904761904567e+00,-1.918848017912259315e-06,1.497762325442074015e-06
2.305555555555555358e+00,-6.883921477723675457e-06,1.327670650983102919e-06
2.306349206349206149e+00,-9.349991164715052485e-06,-3.868102298451357963e-07
2.307142857142856940e+00,-8.091292945104671319e-06,-2.909837288476252981e-06
2.307936507936507731e+00,-2.508414959635599696e-06,-5.124723997120276085e-06
2.308730158730158522e+00,7.179887050487922210e-06,-5.894805811384740033e-06
2.309523809523809312e+00,1.986591593074378705e-05,-4.425606926520407257e-06
2.310317460317460103e+00,3.362880699673778282e-05,-5.187021920274922706e-07
2.311111111111110894e+00,4.596296088732273089e-05,5.348416700073226340e-06
2.311904761904761685e+00,5.414503008829755321e-05,1.212557131544930674e-05
2.312698412698412920e+00,5.570413988723938630e-05,1.843690163686052792e-05
2.313492063492063711e+00,4.893653953235290404e-05,2.290352099522770723e-05
2.314285714285714501e+00,3.338112639810631436e-05,2.446473916377355244e-05
2.315079365079365292e+00,1.015160231711335690e-05,2.262657505147545880e-05
2.315873015873016083e+00,-1.798614808571078123e-05,1.758306509675263522e-05
2.316666666666666874e+00,-4.688309808785752985e-05,1.018303119793786467e-05
2.317460317460317665e+00,-7.165254433781762975e-05,1.750231815175734444e-06
2.318253968253968456e+00,-8.761454537075787715e-05,-6.200360089421795647e-06
2.319047619047619246e+00,-9.133559867287446366e-05,-1.228357892445727646e-05
2.319841269841270037e+00,-8.147658203314927399e-05,-1.552826942580284958e-05
2.320634920634920828e+00,-5.918389593837424331e-05,-1.555982206164097944e-05
2.321428571428571619e+00,-2.789441378643282954e-05,-1.264207009015890695e-05
2.322222222222222410e+00,7.387787568057691017e-06,-7.577917204500887903e-06
2.323015873015873201e+00,4.113407843537260681e-05,-1.505391514818525360e-06
2.323809523809523991e+00,6.838216039875144733e-05,4.353685116182678890e-06
2.324603174603174782e+00,8.562666848220834581e-05,8.935635756153852680e-06
2.325396825396825573e+00,9.133691451083693878e-05,1.152371645114308160e-05
2.326190476190476364e+00,8.602945016248480235e-05,1.185704589777277366e-05
2.326984126984127155e+00,7.192700963824579939e-05,1.015037413809212102e-05
2.327777777777777946e+00,5.232328654429665933e-05,7.029761578527631412e-06
2.328571428571428736e+00,3.082561774379680706e-05,3.397189190907706574e-06
2.329365079365079527e+00,1.065386294080262767e-05,2.415277377164377411e-07
2.330158730158730318e+00,-5.862256923276797119e-06,-1.577475119013184905e-06
2.330952380952381109e+00,-1.750711755449130155e-05,-1.530108258076607845e-06
2.331746031746031900e+00,-2.411548185826972813e-05,4.487991661209003883e-07
2.332539682539682691e+00,-2.628108277395532432e-05,3.932578564340724938e-06
2.333333333333333481e+00,-2.495233860079699214e-05,8.094569768025334749e-06
2.334126984126984272e+00,-2.105598708083114199e-05,1.189802686821752897e-05
2.334920634920635063e+00,-1.527401815787382493e-05,1.433825431912636842e-05
2.335714285714285854e+00,-8.040613089168707875e-06,1.467885697252316096e-05
2.336507936507936645e+00,2.614158254842762812e-07,1.262416950099815557e-05
2.337301587301587436e+00,9.009131988622891358e-06,8.383118507291700093e-06
2.338095238095238226e+00,1.710214738564174304e-05,2.606557438529887016e-06
2.338888888888889017e+00,2.291530060356611063e-05,-3.783619826273348754e-06
2.339682539682539808e+00,2.451263099696188039e-05,-9.822080720664261760e-06
2.340476190476190599e+00,2.010213442143598609e-05,-1.471803875148666788e-05
2.341269841269841390e+00,8.620130285959550599e-06,-1.800612994001793681e-05
2.342063492063492181e+00,-9.728309719576585377e-06,-1.959669060405935852e-05
2.342857142857142971e+00,-3.315930825125452394e-05,-1.971969576645288686e-05
2.343650793650793762e+00,-5.837222482624533122e-05,-1.878323531613044879e-05
2.344444444444444553e+00,-8.103154189973006238e-05,-1.719106499146950379e-05
2.345238095238095344e+00,-9.659549125823864370e-05,-1.517935238406267785e-05
2.346031746031746135e+00,-1.013053188072897241e-04,-1.273289479302520998e-05
2.346825396825396925e+00,-9.308617142870132216e-05,-9.620597461721556719e-06
2.347619047619047716e+00,-7.212685528564156566e-05,-5.549333677099820761e-06
2.348412698412698507e+00,-4.099234715023662696e-05,-3.854502483752658243e-07
2.349206349206349298e+00,-4.237653102421036806e-06,5.642984258150973753e-06
2.350000000000000089e+00,3.240565018311634997e-05,1.185006521475889628e-05
2.350793650793650880e+00,6.312068849656982030e-05,1.715066038335961285e-05
2.351587301587301670e+00,8.316785520019325277e-05,2.026823980448268103e-05
2.352380952380952461e+00,8.988031886264609882e-05,2.004307899173713310e-05
2.353174603174603252e+00,8.326212703760639002e-05,1.576893106879254539e-05
2.353968253968254043e+00,6.601866402838867532e-05,7.478160260412097708e-06
2.354761904761904834e+00,4.296285917982086913e-05,-3.901573467612702598e-06
2.355555555555555625e+00,1.989441773224206677e-05,-1.657778965844193805e-05
2.356349206349206415e+00,2.207559384905860965e-06,-2.813388103933982162e-05
2.357142857142857206e+00,-6.413610633692390799e-06,-3.595634232700630010e-05
2.357936507936507997e+00,-4.860516022024883478e-06,-3.777755763871703675e-05
2.358730158730158788e+00,5.194131982035346824e-06,-3.222470862348104231e-05
2.359523809523809579e+00,1.976860988297864067e-05,-1.924543095862467861e-05
2.360317460317460370e+00,3.355747924010413447e-05,-2.890063892650812858e-07
2.361111111111111160e+00,4.116702024742308297e-05,2.183768532789333005e-05
2.361904761904761951e+00,3.833077849001148953e-05,4.345020869491607025e-05
2.362698412698412742e+00,2.287762964759292286e-05,6.072309089084430416e-05
2.363492063492063533e+00,-4.721894929678222012e-06,7.051450858853075586e-05
2.364285714285714324e+00,-4.134479833579530095e-05,7.105925353144315246e-05
2.365079365079365115e+00,-8.176739238069758657e-05,6.232844896450312445e-05
2.365873015873015905e+00,-1.196879292301203753e-04,4.594786729064796906e-05
2.366666666666666696e+00,-1.490036043093128054e-04,2.470475631589147530e-05
2.367460317460317487e+00,-1.650404000273014368e-04,1.804523072959291376e-06
2.368253968253968278e+00,-1.654299463671080560e-04,-1.988623661983594383e-05
2.369047619047619069e+00,-1.504209983577980297e-04,-3.838372760260970169e-05
2.369841269841269860e+00,-1.225830918089939215e-04,-5.278216798585645735e-05
2.370634920634920650e+00,-8.604462674931056361e-05,-6.309958951341629991e-05
2.371428571428571441e+00,-4.552908160938438155e-05,-6.989738224255809295e-05
2.372222222222222232e+00,-5.463594729618492789e-06,-7.385844528486537326e-05
2.373015873015873023e+00,3.065221542188611010e-05,-7.548661714565750992e-05
2.373809523809523814e+00,6.055145284865377520e-05,-7.500200203669035357e-05
2.374603174603174605e+00,8.321003590687314864e-05,-7.240355882018663532e-05
2.375396825396825395e+00,9.863896399031096991e-05,-6.760923174883569386e-05
2.376190476190476186e+00,1.075454588973143551e-04,-6.058980901465136449e-05
2.376984126984126977e+00,1.109482497762236255e-04,-5.145784053021589595e-05
2.377777777777777768e+00,1.098337963590826581e-04,-4.050853896560834835e-05
2.378571428571428559e+00,1.049376040844849099e-04,-2.821708376336763525e-05
2.379365079365079350e+00,9.670990813766304961e-05,-1.519395544445715668e-05
2.380158730158730140e+00,8.546821975671730167e-05,-2.105321499690581455e-06
2.380952380952380931e+00,7.166364869748774295e-05,1.042164721898636421e-05
2.381746031746031722e+00,5.612795209212748159e-05,2.187821018076926949e-05
2.382539682539682513e+00,4.016153472449422691e-05,3.190838717351898057e-05
2.383333333333333304e+00,2.538484481758039024e-05,4.028500545489886649e-05
2.384126984126984095e+00,1.338466217943054183e-05,4.684514891807881260e-05
2.384920634920634885e+00,5.289350313309561097e-06,5.143283962203546345e-05
2.385714285714285676e+00,1.447712943338463109e-06,5.390301965196626113e-05
2.386507936507936467e+00,1.342733984304712803e-06,5.420917921044921705e-05
2.387301587301587258e+00,3.771604860469941368e-06,5.253919339212468812e-05
2.388095238095238049e+00,7.221801380152639114e-06,4.941604236177390844e-05
2.388888888888888840e+00,1.031196680103290624e-05,4.567808801343466028e-05
2.389682539682539630e+00,1.215784452133916969e-05,4.230584348053533845e-05
2.390476190476190421e+00,1.255872813467484928e-05,4.014167006455175767e-05
2.391269841269841212e+00,1.196296475816825623e-05,3.961050056307400451e-05
2.392063492063492003e+00,1.124211480727201821e-05,4.055877948299522670e-05
2.392857142857142794e+00,1.135832311570995279e-05,4.228156201545557429e-05
2.393650793650793585e+00,1.302715510832635393e-05,4.373115469660236222e-05
2.394444444444444375e+00,1.645627765642730583e-05,4.383184014453826331e-05
2.395238095238095166e+00,2.120240385210461160e-05,4.178888966930777485e-05
2.396031746031745957e+00,2.616483470263883444e-05,3.728494552532807461e-05
2.396825396825396748e+00,2.972949233031125374e-05,3.050237926744073309e-05
2.397619047619047539e+00,3.006887255184368914e-05,2.198333080940477791e-05
2.398412698412698330e+00,2.556685338477604168e-05,1.240774469004146727e-05
2.399206349206349120e+00,1.527891420965384986e-05,2.396468617208122590e-06
2.399999999999999911e+00,-7.063276489918836716e-07,-7.582992404683461615e-06
2.400793650793650702e+00,-2.113234907163266660e-05,-1.719535001720825151e-05
2.401587301587301493e+00,-4.372910322486908306e-05,-2.614823896851896492e-05
2.402380952380952284e+00,-6.562113580980089239e-05,-3.410436997461788818e-05
2.403174603174603075e+00,-8.387207790597202381e-05,-4.064594267518757865e-05
2.403968253968253865e+00,-9.601931279935724739e-05,-4.530712694769194703e-05
2.404761904761904656e+00,-1.004792211686057529e-04,-4.766531812318300717e-05
2.405555555555555447e+00,-9.675790620748933352e-05,-4.746767895445340072e-05
2.406349206349206238e+00,-8.545697492993837804e-05,-4.475410853347310111e-05
2.407142857142857029e+00,-6.810884873264890535e-05,-3.992508413900807237e-05
2.407936507936507819e+00,-4.690690173412148943e-05,-3.371011612547045324e-05
2.408730158730158610e+00,-2.440194158342628866e-05,-2.702496462551045119e-05
2.409523809523809401e+00,-3.213052444535864872e-06,-2.074945149003426685e-05
2.410317460317460192e+00,1.423965947394623328e-05,-1.549357827631426675e-05
2.411111111111110983e+00,2.600627779477272111e-05,-1.143322583988797799e-05
2.411904761904761774e+00,3.091046387007595719e-05,-8.280533488733731379e-06
2.412698412698412564e+00,2.887091291716453208e-05,-5.410973452172590792e-06
2.413492063492063355e+00,2.115304766228421688e-05,-2.113141837491898054e-06
2.414285714285714146e+00,1.040480576674916660e-05,2.121657035557482409e-06
2.415079365079364937e+00,3.411782023945718005e-07,7.374722640470965411e-06
2.415873015873015728e+00,-4.960969985805310101e-06,1.322456907750977655e-05
2.416666666666666519e+00,-2.050806666908086825e-06,1.884529980812054290e-05
2.417460317460317309e+00,1.086101961741190214e-05,2.323283848076734533e-05
2.418253968253968100e+00,3.311424390486157366e-05,2.547192962568705830e-05
2.419047619047618891e+00,6.132734797255499015e-05,2.496097321895035276e-05
2.419841269841269682e+00,8.980622611074631063e-05,2.154411862787130555e-05
2.420634920634920473e+00,1.116257007513130311e-04,1.553485623989740206e-05
2.421428571428571264e+00,1.201723163751171450e-04,7.641134332719950916e-06
2.422222222222222054e+00,1.107675831525800088e-04,-1.180173676959176463e-06
2.423015873015872845e+00,8.193539297615384982e-05,-9.900366240256048363e-06
2.423809523809523636e+00,3.597022487418778908e-05,-1.758599442485478663e-05
2.424603174603174427e+00,-2.133396281368607201e-05,-2.352191472096367455e-05
2.425396825396825218e+00,-8.170284935061079661e-05,-2.727019782938004577e-05
2.426190476190476009e+00,-1.358781115374725385e-04,-2.865965286911105559e-05
2.426984126984126799e+00,-1.752450965632405919e-04,-2.771622090224043250e-05
2.427777777777777590e+00,-1.932861102537485466e-04,-2.456293047024183353e-05
2.428571428571428381e+00,-1.866664318024967718e-04,-1.933432774358256645e-05
2.429365079365079172e+00,-1.558661424029014839e-04,-1.215151130757633739e-05
2.430158730158729963e+00,-1.053139948143343163e-04,-3.183719510409628891e-06
2.430952380952380754e+00,-4.297317125715104195e-05,7.212302497339426875e-06
2.431746031746031544e+00,2.066741330247707169e-05,1.832269268122112298e-05
2.432539682539682335e+00,7.418110792150719372e-05,2.895842314527800215e-05
2.433333333333333126e+00,1.072287085318630336e-04,3.748465918562831218e-05
2.434126984126983917e+00,1.127126095797893838e-04,4.206357048543380231e-05
2.434920634920634708e+00,8.860273634622111533e-05,4.109582051098140256e-05
2.435714285714285499e+00,3.892216812256959492e-05,3.374574722032598834e-05
2.436507936507936289e+00,-2.651843975902431322e-05,2.037055801598778367e-05
2.437301587301587080e+00,-9.378205036781445646e-05,2.681233924358467813e-06
2.438095238095238315e+00,-1.476281523911561076e-04,-1.646185020576180829e-05
2.438888888888889106e+00,-1.748829546804791309e-04,-3.360346061602231729e-05
2.439682539682539897e+00,-1.675072924559848925e-04,-4.547003825588617391e-05
2.440476190476190688e+00,-1.245453792605378726e-04,-4.975954419835142362e-05
2.441269841269841478e+00,-5.244534585602856648e-05,-4.571685210827602989e-05
2.442063492063492269e+00,3.630298290353675195e-05,-3.432263075987889930e-05
2.442857142857143060e+00,1.258407846857072818e-04,-1.803981695448347787e-05
2.443650793650793851e+00,2.002668677547325140e-04,-1.980102878310534256e-07
2.444444444444444642e+00,2.468546525384013161e-04,1.579801070918558658e-05
2.445238095238095433e+00,2.584624416290672933e-04,2.721172140409133471e-05
2.446031746031746223e+00,2.346597123469649885e-04,3.248409915712976862e-05
2.446825396825397014e+00,1.814131668640983370e-04,3.141245081315505926e-05
2.447619047619047805e+00,1.095123893210934210e-04,2.500581404688508491e-05
2.448412698412698596e+00,3.217851491733271973e-05,1.510431735056987445e-05
2.449206349206349387e+00,-3.756650147796165384e-05,3.886602471140101312e-06
2.450000000000000178e+00,-8.920796048675774337e-05,-6.615628925985473308e-06
2.450793650793650968e+00,-1.163131249262905809e-04,-1.490202580649156754e-05
2.451587301587301759e+00,-1.171916354108021367e-04,-2.021692411867483027e-05
2.452380952380952550e+00,-9.467782419906200142e-05,-2.254567685780452057e-05
2.453174603174603341e+00,-5.520720575157553512e-05,-2.239106613713145284e-05
2.453968253968254132e+00,-7.416223872331860331e-06,-2.039305230094058246e-05
2.454761904761904923e+00,3.948513153443426976e-05,-1.691912761655957087e-05
2.455555555555555713e+00,7.731022431230998168e-05,-1.178085319122958602e-05
2.456349206349206504e+00,1.002154772815803621e-04,-4.208141860457893529e-06
2.457142857142857295e+00,1.055350737641259771e-04,6.861417897097393630e-06
2.457936507936508086e+00,9.399132369759319989e-05,2.223044798796966332e-05
2.458730158730158877e+00,6.924159707252900168e-05,4.179272966284840082e-05
2.459523809523809668e+00,3.685295609618658883e-05,6.402542872357839176e-05
2.460317460317460458e+00,2.933510760629169316e-06,8.585336117165282628e-05
2.461111111111111249e+00,-2.724843411377718009e-05,1.030205863280623683e-04
2.461904761904762040e+00,-5.030492516433539150e-05,1.109479580425543261e-04
2.462698412698412831e+00,-6.516222632602944808e-05,1.058859629236040735e-04
2.463492063492063622e+00,-7.280841044264039022e-05,8.604561146672793910e-05
2.464285714285714413e+00,-7.550251785420503006e-05,5.235719271334634590e-05
2.465079365079365203e+00,-7.576052754222959264e-05,8.594246312297307812e-06
2.465873015873015994e+00,-7.546578853253520323e-05,-3.921420720625601975e-05
2.466666666666666785e+00,-7.535596805836758416e-05,-8.394868420328764408e-05
2.467460317460317576e+00,-7.498130887503121652e-05,-1.188508529484657249e-04
2.468253968253968367e+00,-7.307380907013105123e-05,-1.389107393343172209e-04
2.469047619047619158e+00,-6.815154314793440309e-05,-1.418666710850529386e-04
2.469841269841269948e+00,-5.913174529396402927e-05,-1.285891403772633328e-04
2.470634920634920739e+00,-4.575499904746944290e-05,-1.027644773780918438e-04
2.471428571428571530e+00,-2.871740054313581545e-05,-6.996939958874834114e-05
2.472222222222222321e+00,-9.521576102749705844e-06,-3.638891957229728073e-05
2.473015873015873112e+00,9.861225389727793799e-06,-7.519775940441534509e-06
2.473809523809523903e+00,2.740016226554672807e-05,1.281859790016449293e-05
2.474603174603174693e+00,4.138408124394614993e-05,2.296644363689320930e-05
2.475396825396825484e+00,5.070246400056602063e-05,2.337388743353923599e-05
2.476190476190476275e+00,5.498948793713461034e-05,1.614470797524487596e-05
2.476984126984127066e+00,5.461759539906945273e-05,4.372214554161118692e-06
2.477777777777777857e+00,5.055080476961220618e-05,-8.547657978274991947e-06
2.478571428571428648e+00,4.409274315026086977e-05,-1.950464642645126872e-05
2.479365079365079438e+00,3.658676356857669908e-05,-2.611033088451402144e-05
2.480158730158730229e+00,2.913912770936583169e-05,-2.697045546285880497e-05
2.480952380952381020e+00,2.243448601951894436e-05,-2.179028049391879511e-05
2.481746031746031811e+00,1.669062693893305085e-05,-1.130489338780209341e-05
2.482539682539682602e+00,1.175764171246664357e-05,2.958384036053816690e-06
2.483333333333333393e+00,7.318159064369312538e-06,1.903367379876217931e-05
2.484126984126984183e+00,3.111173533920563861e-06,3.489392283774731972e-05
2.484920634920634974e+00,-9.026110085507518975e-07,4.876248718642096452e-05
2.485714285714285765e+00,-4.490829614936844184e-06,5.931409095826086983e-05
2.486507936507936556e+00,-7.228083422242226529e-06,6.576852490928368001e-05
2.487301587301587347e+00,-8.669866647857479852e-06,6.790089344003225394e-05
2.488095238095238138e+00,-8.555742121768394301e-06,6.598773695542623928e-05
2.488888888888888928e+00,-6.968632748413521770e-06,6.070230807909350910e-05
2.489682539682539719e+00,-4.396975793175302113e-06,5.297817360327083079e-05
2.490476190476190510e+00,-1.682789316419993455e-06,4.387000820705081426e-05
2.491269841269841301e+00,1.256174121397023002e-07,3.443908933893535855e-05
2.492063492063492092e+00,-2.256596011082032367e-08,2.567506315347394680e-05
2.492857142857142883e+00,-2.959952842384538841e-06,1.844323078453702540e-05
2.493650793650793673e+00,-9.094049093083700176e-06,1.342871396068575755e-05
2.494444444444444464e+00,-1.824078363148386539e-05,1.104583754075207928e-05
2.495238095238095255e+00,-2.953234742352853575e-05,1.130209785187186340e-05
2.496031746031746046e+00,-4.144366278905923444e-05,1.365044222993409393e-05
2.496825396825396837e+00,-5.197716494395523013e-05,1.691105321813736343e-05
2.497619047619047628e+00,-5.901107634437523350e-05,1.935868218832651597e-05
2.498412698412698418e+00,-6.075615120888882675e-05,1.902527101355626387e-05
2.499206349206349209e+00,-5.620538758479084210e-05,1.416967274800586557e-05
2.500000000000000000e+00,-4.543360810421593878e-05,3.772757861393741610e-06
2.500793650793650791e+00,-2.963209991597596176e-05,-1.210970548773431782e-05
2.501587301587301582e+00,-1.084662578716545359e-05,-3.224863574906418546e-05
2.502380952380952372e+00,8.505776055221084928e-06,-5.441794175631385345e-05
2.503174603174603163e+00,2.618405643582517547e-05,-7.579071701584509885e-05
2.503968253968253954e+00,4.056055557760358061e-05,-9.345958049233478427e-05
2.504761904761904745e+00,5.082837399753501042e-05,-1.049672556614063247e-04
2.505555555555555536e+00,5.695412002967159678e-05,-1.087332173616558186e-04
2.506349206349206327e+00,5.944412795491503716e-05,-1.042893018300045024e-04
2.507142857142857117e+00,5.904281496069484989e-05,-9.229019211089053553e-05
2.507936507936507908e+00,5.647474122085426821e-05,-7.432105666996483158e-05
2.508730158730158699e+00,5.229389107059181349e-05,-5.256304069465146336e-05
2.509523809523809490e+00,4.685004121506925389e-05,-2.939549631275145480e-05
2.510317460317460281e+00,4.034695842779752406e-05,-7.017942251870634065e-06
2.511111111111111072e+00,3.294977988377974042e-05,1.283540145008041300e-05
2.511904761904761862e+00,2.489052055522112143e-05,2.904334629220168366e-05
2.512698412698412653e+00,1.652424795061545646e-05,4.110288059516186034e-05
2.513492063492063444e+00,8.312547368706131048e-06,4.902484201535069696e-05
2.514285714285714235e+00,7.488271954208400664e-07,5.317395497871202207e-05
2.515079365079365026e+00,-5.733123124713907987e-06,5.410651830516800397e-05
2.515873015873015817e+00,-1.083081599812555181e-05,5.244469000042828238e-05
2.516666666666666607e+00,-1.441746296714489054e-05,4.880738950173446351e-05
2.517460317460317398e+00,-1.657206288811456985e-05,4.379674013671250993e-05
2.518253968253968189e+00,-1.759619161132715243e-05,3.801576986655916886e-05
2.519047619047618980e+00,-1.798758351439840329e-05,3.207643538159295649e-05
2.519841269841269771e+00,-1.833064240013663145e-05,2.656182331505502276e-05
2.520634920634920562e+00,-1.909963897974665203e-05,2.193658300959295594e-05
2.521428571428571352e+00,-2.043408372761642790e-05,1.843935323695099205e-05
2.522222222222222143e+00,-2.199187873783468801e-05,1.601496170402251157e-05
2.523015873015872934e+00,-2.297686269835244721e-05,1.433525714600117565e-05
2.523809523809523725e+00,-2.237105654735380822e-05,1.291757283009175793e-05
2.524603174603174516e+00,-1.931127464617697463e-05,1.130048662832551120e-05
2.525396825396825307e+00,-1.347998114922384690e-05,9.205763700851640014e-06
2.526190476190476097e+00,-5.362757396841385530e-06,6.619839604713220174e-06
2.526984126984126888e+00,3.734978904493391979e-06,3.764292090414542164e-06
2.527777777777777679e+00,1.193912799317711117e-05,9.731311525132646727e-07
2.528571428571428470e+00,1.726402719500155672e-05,-1.466681909042852447e-06
2.529365079365079261e+00,1.814719737100275155e-05,-3.440138567196024741e-06
2.530158730158730052e+00,1.390888066795050755e-05,-5.036370002776187105e-06
2.530952380952380842e+00,5.003462659424325180e-06,-6.469681206015495496e-06
2.531746031746031633e+00,-7.014160279874467626e-06,-7.924991745720198609e-06
2.532539682539682424e+00,-1.980437929079812581e-05,-9.404499668658874298e-06
2.533333333333333215e+00,-3.075399841573678620e-05,-1.065457220952581339e-05
2.534126984126984006e+00,-3.753960820523455583e-05,-1.121376004209638875e-05
2.534920634920634797e+00,-3.859879364967096509e-05,-1.056833569793580316e-05
2.535714285714285587e+00,-3.341430635348036006e-05,-8.356791844198034432e-06
2.536507936507936378e+00,-2.258306329215044160e-05,-4.543750092846006584e-06
2.537301587301587169e+00,-7.692939681340345374e-06,5.062350670924660982e-07
2.538095238095237960e+00,8.945867955618693287e-06,6.083666713883058676e-06
2.538888888888888751e+00,2.466636181134570583e-05,1.129171262178077948e-05
2.539682539682539542e+00,3.686506593025056454e-05,1.524151009222005691e-05
2.540476190476190332e+00,4.343343972229906172e-05,1.721778492072844840e-05
2.541269841269841123e+00,4.314075636274742129e-05,1.677504410170826873e-05
2.542063492063491914e+00,3.589238439828039922e-05,1.376112622414829821e-05
2.542857142857142705e+00,2.279314180113888868e-05,8.293185314110236624e-06
2.543650793650793496e+00,5.982158631908655068e-06,7.222849919728621591e-07
2.544444444444444287e+00,-1.173933801532410353e-05,-8.387171447865527285e-06
2.545238095238095077e+00,-2.741452505930738848e-05,-1.826325598163587992e-05
2.546031746031745868e+00,-3.846752260261298185e-05,-2.794438576747183906e-05
2.546825396825396659e+00,-4.316119194929690000e-05,-3.634495753317725620e-05
2.547619047619047450e+00,-4.088886590638052590e-05,-4.238843834657207477e-05
2.548412698412698241e+00,-3.225207516911914783e-05,-4.519483856923763016e-05
2.549206349206349032e+00,-1.892091692476685573e-05,-4.427684486270253131e-05
2.549999999999999822e+00,-3.311573227532915179e-06,-3.968261471569785635e-05
2.550793650793650613e+00,1.185869449391249493e-05,-3.203140874452722382e-05
2.551587301587301404e+00,2.406306470474435977e-05,-2.241765341027284104e-05
2.552380952380952195e+00,3.141888663608847875e-05,-1.219869749825990678e-05
2.553174603174602986e+00,3.302026864776641226e-05,-2.718418610939081340e-06
2.553968253968253777e+00,2.908010806557573039e-05,4.959257094805493286e-06
2.554761904761904567e+00,2.084104376527697158e-05,1.023469299692298304e-05
2.555555555555555358e+00,1.026043033723849852e-05,1.302873204586344630e-05
2.556349206349206149e+00,-4.643689258404989218e-07,1.370546859343565382e-05
2.557142857142856940e+00,-9.403202702850015226e-06,1.289529576489544035e-05
2.557936507936507731e+00,-1.527937619905407325e-05,1.127581320284888872e-05
2.558730158730158522e+00,-1.762011370167995201e-05,9.373443227655029329e-06
2.559523809523809312e+00,-1.665378301831084979e-05,7.438732552475149861e-06
2.560317460317460103e+00,-1.304276139335693027e-05,5.427215125994321832e-06
2.561111111111110894e+00,-7.596439259194935341e-06,3.088319163039192099e-06
2.561904761904761685e+00,-1.086327537199474062e-06,1.319798144386762539e-07
2.562698412698412920e+00,5.794934226131349877e-06,-3.583962836821472653e-06
2.563492063492063711e+00,1.237460241512284523e-05,-7.909166017757534903e-06
2.564285714285714501e+00,1.792717162518422792e-05,-1.234224043290245716e-05
2.565079365079365292e+00,2.165926063364487510e-05,-1.606595997407895434e-05
2.565873015873016083e+00,2.277577882330523982e-05,-1.805631793423848410e-05
2.566666666666666874e+00,2.060835278128540568e-05,-1.723814978318396712e-05
2.567460317460317665e+00,1.476836922516286113e-05,-1.266709677645334937e-05
2.568253968253968456e+00,5.287520501102825061e-06,-3.726908071828110657e-06
2.569047619047619246e+00,-7.285562784666341191e-06,9.668000671949169889e-06
2.569841269841270037e+00,-2.185864769367706597e-05,2.688880605104510788e-05
2.570634920634920828e+00,-3.685512750605422300e-05,4.647587987860077004e-05
2.571428571428571619e+00,-5.035769784342087940e-05,6.615474996810141901e-05
2.572222222222222410e+00,-6.031998481320627456e-05,8.303991895444083832e-05
2.573015873015873201e+00,-6.482802120162412538e-05,9.404481669077863985e-05
2.573809523809523991e+00,-6.240039766233491762e-05,9.646270057159178569e-05
2.574603174603174782e+00,-5.231180887475852235e-05,8.862578279556317844e-05
2.575396825396825573e+00,-3.489693683443841407e-05,7.049879164046333481e-05
2.576190476190476364e+00,-1.175100151795808163e-05,4.403296071938914174e-05
2.576984126984127155e+00,1.428131136358466935e-05,1.311682090189887204e-05
2.577777777777777946e+00,3.941763081565640293e-05,-1.697050803489368297e-05
2.578571428571428736e+00,5.956708356118981510e-05,-4.056966369096795782e-05
2.579365079365079527e+00,7.118574586350471069e-05,-5.292921166458761182e-05
2.580158730158730318e+00,7.216384189928037277e-05,-5.146826129600737601e-05
2.580952380952381109e+00,6.249526999243338937e-05,-3.667114383301213243e-05
2.581746031746031900e+00,4.450212013424227083e-05,-1.232378860094235021e-05
2.582539682539682691e+00,2.248752143288410766e-05,1.506173994872314570e-05
2.583333333333333481e+00,1.842764581752540188e-06,3.758611971078406000e-05
2.584126984126984272e+00,-1.220654168456870380e-05,4.779536477126566853e-05
2.584920634920635063e+00,-1.591179914580027549e-05,4.056650222525331898e-05
2.585714285714285854e+00,-8.021144273454755195e-06,1.455014741585808798e-05
2.586507936507936645e+00,9.794168340491074234e-06,-2.723675631796936450e-05
2.587301587301587436e+00,3.326461386694880149e-05,-7.786026677534644582e-05
2.588095238095238226e+00,5.654604027585255564e-05,-1.278777938455258366e-04
2.588888888888889017e+00,7.367973782954573508e-05,-1.673709652375939461e-04
2.589682539682539808e+00,8.009051685571678199e-05,-1.881114005912116799e-04
2.590476190476190599e+00,7.370755277716318577e-05,-1.853407333015686753e-04
2.591269841269841390e+00,5.540183045934132973e-05,-1.587532965230205502e-04
2.592063492063492181e+00,2.863935138199440853e-05,-1.124857662288418952e-04
2.592857142857142971e+00,-1.513199503314647509e-06,-5.417859391127570457e-05
2.593650793650793762e+00,-2.970775802587488008e-05,6.609799940807897492e-06
2.594444444444444553e+00,-5.156931644751920353e-05,6.024898361712139726e-05
2.595238095238095344e+00,-6.456051106426922428e-05,9.876579006898437735e-05
2.596031746031746135e+00,-6.828531109794155744e-05,1.171648670392130956e-04
2.596825396825396925e+00,-6.423630623307443417e-05,1.141564049945355844e-04
2.597619047619047716e+00,-5.513132404367068518e-05,9.220873478728751555e-05
2.598412698412698507e+00,-4.406306216104063244e-05,5.693834305132987230e-05
2.599206349206349298e+00,-3.369651061794011921e-05,1.594872616946420437e-05
2.600000000000000089e+00,-2.570590355139506600e-05,-2.266731243936133804e-05
2.600793650793650880e+00,-2.056322928554863609e-05,-5.186063730735385077e-05
2.601587301587301670e+00,-1.769057287447273855e-05,-6.685943555559921490e-05
2.602380952380952461e+00,-1.588906953143940994e-05,-6.582485507466252295e-05
2.603174603174603252e+00,-1.388495106221395097e-05,-4.980399850081073803e-05
2.603968253968254043e+00,-1.081232629590327509e-05,-2.206759056120498051e-05
2.604761904761904834e+00,-6.490017443302321701e-06,1.289468063180832197e-05
2.605555555555555625e+00,-1.429491096460794952e-06,5.037278416351864268e-05
2.606349206349206415e+00,3.399950287661342398e-06,8.614574274604905497e-05
2.607142857142857206e+00,6.954182586417496176e-06,1.167834150489749622e-04
2.607936507936507997e+00,8.516233109810501708e-06,1.396059753455421810e-04
2.608730158730158788e+00,7.987226399682453699e-06,1.524943881600288390e-04
2.609523809523809579e+00,5.969669182112229334e-06,1.537747410414396052e-04
2.610317460317460370e+00,3.610783971576966017e-06,1.423256887460427596e-04
2.611111111111111160e+00,2.251832192263963920e-06,1.179145992279854245e-04
2.611904761904761951e+00,2.993696394463827270e-06,8.161841803231765472e-05
2.612698412698412742e+00,6.315658621389396374e-06,3.610238156836052706e-05
2.613492063492063533e+00,1.186493628999917397e-05,-1.444215391420369860e-05
2.614285714285714324e+00,1.847934589202285239e-05,-6.477301105373009993e-05
2.615079365079365115e+00,2.443731612684637316e-05,-1.093971245295185428e-04
2.615873015873015905e+00,2.787043872670653738e-05,-1.434883373073764397e-04
2.616666666666666696e+00,2.723548824410101850e-05,-1.636858070709595447e-04
2.617460317460317487e+00,2.172909223253448777e-05,-1.685872069079747662e-04
2.618253968253968278e+00,1.154114585002031737e-05,-1.588440763017463331e-04
2.619047619047619069e+00,-2.118202519668091977e-06,-1.368641952616721702e-04
2.619841269841269860e+00,-1.722729707001101562e-05,-1.062124571036944873e-04
2.620634920634920650e+00,-3.134863431374545535e-05,-7.086967878702871647e-05
2.621428571428571441e+00,-4.211779090805179587e-05,-3.453880741894281543e-05
2.622222222222222232e+00,-4.771229090685994128e-05,-1.596854834961315447e-07
2.623015873015873023e+00,-4.719695558335204393e-05,3.028742732466846858e-05
2.623809523809523814e+00,-4.067764659203949672e-05,5.570835167132742380e-05
2.624603174603174605e+00,-2.924558073117303154e-05,7.564888283925138852e-05
2.625396825396825395e+00,-1.474339904138809225e-05,9.000903956412472046e-05
2.626190476190476186e+00,5.847051087777385467e-07,9.883616987994682068e-05
2.626984126984126977e+00,1.448853637326121986e-05,1.022590102356988966e-04
2.627777777777777768e+00,2.508876290743250397e-05,1.005535252622503863e-04
2.628571428571428559e+00,3.117881952482474375e-05,9.427940130533010883e-05
2.629365079365079350e+00,3.240299249942751154e-05,8.440873403355329601e-05
2.630158730158730140e+00,2.927371826732098236e-05,7.237481727544725076e-05
2.630952380952380931e+00,2.301447209800799160e-05,5.998297360332133200e-05
2.631746031746031722e+00,1.525223092464864957e-05,4.914718964756895921e-05
2.632539682539682513e+00,7.628438720249223719e-06,4.146024538411049142e-05
2.633333333333333304e+00,1.432021724650991236e-06,3.767787523771852829e-05
2.634126984126984095e+00,-2.639013635667305336e-06,3.727755497326848102e-05
2.634920634920634885e+00,-4.521151558130880827e-06,3.829285291753371117e-05
2.635714285714285676e+00,-4.640228670948853170e-06,3.758364053138929062e-05
2.636507936507936467e+00,-3.653923216223521630e-06,3.157536052330345988e-05
2.637301587301587258e+00,-2.189947968772978478e-06,1.732271911368223798e-05
2.638095238095238049e+00,-6.695645514717865119e-07,-6.408924459698880592e-06
2.638888888888888840e+00,7.443280772233101857e-07,-3.841739494697665448e-05
2.639682539682539630e+00,2.088098710718571662e-06,-7.498075390576705568e-05
2.640476190476190421e+00,3.475830498726197050e-06,-1.104901413672297519e-04
2.641269841269841212e+00,4.974537778461029029e-06,-1.386282604345021583e-04
2.642063492063492003e+00,6.523627351968759526e-06,-1.537717213384134007e-04
2.642857142857142794e+00,7.919145519311383466e-06,-1.522825366910596527e-04
2.643650793650793585e+00,8.853926639767208367e-06,-1.334337170254077656e-04
2.644444444444444375e+00,8.986577966368056541e-06,-9.980345407198731931e-05
2.645238095238095166e+00,8.012245822860618205e-06,-5.703353214575093407e-05
2.646031746031745957e+00,5.722309336426092539e-06,-1.291627526330972104e-05
2.646825396825396748e+00,2.056073728256324119e-06,2.409350234742843345e-05
2.647619047619047539e+00,-2.847685378621315575e-06,4.665945222832973654e-05
2.648412698412698330e+00,-8.601708416738407099e-06,5.020992333025372606e-05
2.649206349206349120e+00,-1.454319802832520304e-05,3.401413184328482811e-05
2.649999999999999911e+00,-1.975866838561390429e-05,1.401104735906483586e-06
2.650793650793650702e+00,-2.318650954962596123e-05,-4.092396850111531913e-05
2.651587301587301493e+00,-2.380501164199134631e-05,-8.426539339874497016e-05
2.652380952380952284e+00,-2.088642318357688488e-05,-1.196543770837651358e-04
2.653174603174603075e+00,-1.426632854333837186e-05,-1.394863390032771635e-04
2.653968253968253865e+00,-4.549974657125706814e-06,-1.387518255961328541e-04
2.654761904761904656e+00,6.833159802668254514e-06,-1.156940859587723611e-04
2.655555555555555447e+00,1.779336725187160757e-05,-7.189282460938809221e-05
2.656349206349206238e+00,2.597157871091505788e-05,-1.189689330505992942e-05
2.657142857142857029e+00,2.928571417912133716e-05,5.742578275524558979e-05
2.657936507936507819e+00,2.649283841103991087e-05,1.276949400043773703e-04
2.658730158730158610e+00,1.760331877769062610e-05,1.899459034485764873e-04
2.659523809523809401e+00,4.015773112861652344e-06,2.357026098895100843e-04
2.660317460317460192e+00,-1.168428403758462266e-05,2.581840574982968749e-04
2.661111111111110983e+00,-2.623312642102452208e-05,2.535068526384761755e-04
2.661904761904761774e+00,-3.640039144775639499e-05,2.216072788825080371e-04
2.662698412698412564e+00,-3.974276597168620464e-05,1.665560787050247794e-04
2.663492063492063355e+00,-3.520938877343549712e-05,9.604156103836124681e-05
2.664285714285714146e+00,-2.342393711526486250e-05,2.003229407420257464e-05
2.665079365079364937e+00,-6.545357981818205858e-06,-5.109633486311686323e-05
2.665873015873015728e+00,1.226408104477128817e-05,-1.084980650241938646e-04
2.666666666666666519e+00,2.960651503273443145e-05,-1.463576092586849065e-04
2.667460317460317309e+00,4.262297718012851420e-05,-1.626085260332404438e-04
2.668253968253968100e+00,4.955969652452739714e-05,-1.587647143458833490e-04
2.669047619047618891e+00,4.999872749800322972e-05,-1.390161020553824811e-04
2.669841269841269682e+00,4.474355947383100066e-05,-1.089184970848200320e-04
2.670634920634920473e+00,3.545044224097848503e-05,-7.406963566890087034e-05
2.671428571428571264e+00,2.414601129630751281e-05,-3.910768739802422705e-05
2.672222222222222054e+00,1.276700309626309025e-05,-7.229713952876904623e-06
2.673015873015872845e+00,2.816984699295142663e-06,1.975003266635317581e-05
2.673809523809523636e+00,-4.816364287133665085e-06,4.095606034795106826e-05
2.674603174603174427e+00,-9.883239062710826782e-06,5.589346651795237657e-05
2.675396825396825218e+00,-1.266155823506862348e-05,6.405442669120594830e-05
2.676190476190476009e+00,-1.376006674254195247e-05,6.485376832577429741e-05
2.676984126984126799e+00,-1.388911206053935908e-05,5.788131874222014864e-05
2.677777777777777590e+00,-1.365460080038531786e-05,4.331471057977231536e-05
2.678571428571428381e+00,-1.342107649875807861e-05,2.228708904198999007e-05
2.679365079365079172e+00,-1.326958256082360934e-05,-2.955410022878219687e-06
2.680158730158729963e+00,-1.304903279024571119e-05,-2.918639250562539154e-05
2.680952380952380754e+00,-1.249322259209751370e-05,-5.261249897359664347e-05
2.681746031746031544e+00,-1.135806856554545358e-05,-6.948376640515628306e-05
2.682539682539682335e+00,-9.532109460742303869e-06,-7.676961031047126508e-05
2.683333333333333126e+00,-7.088268656066714199e-06,-7.275428425524302985e-05
2.684126984126983917e+00,-4.269341173898895186e-06,-5.742571593161147991e-05
2.684920634920634708e+00,-1.422930826419479067e-06,-3.257822738432470614e-05
2.685714285714285499e+00,1.085213910831658303e-06,-1.607658320109421071e-06
2.686507936507936289e+00,2.950529480897352379e-06,3.096858713128682511e-05
2.687301587301587080e+00,3.982602958767699554e-06,6.019354181572232463e-05
2.688095238095238315e+00,4.125384688324779396e-06,8.145590827532033700e-05
2.688888888888889106e+00,3.447839293750427111e-06,9.126434497436287691e-05
2.689682539682539897e+00,2.113428291661642198e-06,8.788816407340476096e-05
2.690476190476190688e+00,3.392274372473577820e-07,7.174323380621316719e-05
2.691269841269841478e+00,-1.643847560766956976e-06,4.542270490698356648e-05
2.692063492063492269e+00,-3.620148634765861246e-06,1.332132486592232203e-05
2.692857142857143060e+00,-5.403595104939223432e-06,-1.912020873179165386e-05
2.693650793650793851e+00,-6.840273386453964966e-06,-4.643028360129675130e-05
2.694444444444444642e+00,-7.807502685314509790e-06,-6.417365601140956582e-05
2.695238095238095433e+00,-8.217348529955377187e-06,-6.981740465076807908e-05
2.696031746031746223e+00,-8.027576185647267347e-06,-6.316742987140371859e-05
2.696825396825397014e+00,-7.256496526523546193e-06,-4.625637095655487426e-05
2.697619047619047805e+00,-5.993737785789225543e-06,-2.272807331082528207e-05
2.698412698412698596e+00,-4.398698439535901516e-06,3.082073981298813376e-06
2.699206349206349387e+00,-2.682007730752710101e-06,2.709535981949890733e-05
2.700000000000000178e+00,-1.071146597110721338e-06,4.622110441902397480e-05
2.700793650793650968e+00,2.322528940922773520e-07,5.873456566616168823e-05
2.701587301587301759e+00,1.091250622684489297e-06,6.428983152781495448e-05
2.702380952380952550e+00,1.456431567069451400e-06,6.364512903596280060e-05
2.703174603174603341e+00,1.366421414515829430e-06,5.821971623453732925e-05
2.703968253968254132e+00,9.282964697782084203e-07,4.961196014896716530e-05
2.704761904761904923e+00,2.862457215328486821e-07,3.919670547811836953e-05
2.705555555555555713e+00,-4.117824219944523013e-07,2.788431144526670432e-05
2.706349206349206504e+00,-1.041905201325709420e-06,1.607165324432015391e-05
2.707142857142857295e+00,-1.522318868885485555e-06,3.768235175849974685e-06
2.707936507936508086e+00,-1.819766069933882600e-06,-9.151189194047729589e-06
2.708730158730158877e+00,-1.944351398079069314e-06,-2.264235973167040368e-05
2.709523809523809668e+00,-1.934447301818563340e-06,-3.623682007847265566e-05
2.710317460317460458e+00,-1.836235557062252700e-06,-4.894439783669449369e-05
2.711111111111111249e+00,-1.684830896913616514e-06,-5.937918667198695879e-05
2.711904761904762040e+00,-1.493375579512111461e-06,-6.608750452574563695e-05
2.712698412698412831e+00,-1.252283383294925044e-06,-6.796281890634233835e-05
2.713492063492063622e+00,-9.359086036175814451e-07,-6.458747024268300565e-05
2.714285714285714413e+00,-5.125046452537770846e-07,-5.637103380786790199e-05
2.715079365079365203e+00,4.413424028980377357e-08,-4.444164987143046978e-05
2.715873015873015994e+00,7.409085632318554802e-07,-3.034300758697431664e-05
2.716666666666666785e+00,1.551235849545177499e-06,-1.565447132225905290e-05
2.717460317460317576e+00,2.406289187252019405e-06,-1.667115684924881022e-06
2.718253968253968367e+00,3.198317351309956766e-06,1.078319544671023135e-05
2.719047619047619158e+00,3.798744342332811383e-06,2.128916752747377165e-05
2.719841269841269948e+00,4.088016210708028710e-06,2.969132121916865253e-05
2.720634920634920739e+00,3.989564631965702278e-06,3.584200299257502600e-05
2.721428571428571530e+00,3.497760830525631584e-06,3.943187632527720484e-05
2.722222222222222321e+00,2.690401939161448764e-06,3.996851600781200093e-05
2.723015873015873112e+00,1.720773702366193735e-06,3.693452696901726684e-05
2.723809523809523903e+00,7.906079321031167051e-07,3.007886468232938879e-05
2.724603174603174693e+00,1.099433844355156852e-07,1.973469078540848338e-05
2.725396825396825484e+00,-1.481158401280769696e-07,7.031839770515620520e-06
2.726190476190476275e+00,1.108464811453974636e-07,-6.107616959373550827e-06
2.726984126984127066e+00,8.731873549109793119e-07,-1.724092605042904571e-05
2.727777777777777857e+00,2.008439695284175963e-06,-2.390832780643329265e-05
2.728571428571428648e+00,3.286280372926446246e-06,-2.424861720394016343e-05
2.729365079365079438e+00,4.418522370115695135e-06,-1.754999072266866529e-05
2.730158730158730229e+00,5.118476954701674722e-06,-4.561156813161404234e-06
2.730952380952381020e+00,5.164838261892252505e-06,1.254222283984627603e-05
2.731746031746031811e+00,4.456263516969468394e-06,3.052971759547528849e-05
2.732539682539682602e+00,3.046020259555829843e-06,4.572376231802257251e-05
2.733333333333333393e+00,1.150298965169021376e-06,5.469739370340884470e-05
2.734126984126984183e+00,-8.743319817643828679e-07,5.492843136466296318e-05
2.734920634920634974e+00,-2.588485222043404342e-06,4.530864203873721216e-05
2.735714285714285765e+00,-3.562028058099637204e-06,2.642843757242554047e-05
2.736507936507936556e+00,-3.486570101285128721e-06,5.701629126901976965e-07
2.737301587301587347e+00,-2.276448447852561118e-06,-2.862676801716073594e-05
2.738095238095238138e+00,-1.182499759546276039e-07,-5.679952556739424792e-05
2.738888888888888928e+00,2.557984911652050529e-06,-7.968010398834031427e-05
2.739682539682539719e+00,5.182234920261308556e-06,-9.392017029929434211e-05
2.740476190476190510e+00,7.189085773889738100e-06,-9.773038558622652318e-05
2.741269841269841301e+00,8.157835118844271378e-06,-9.117968443890831593e-05
2.742063492063492092e+00,7.910914944788222534e-06,-7.607823684289296662e-05
2.742857142857142883e+00,6.550885976109358080e-06,-5.547285273930061981e-05
2.743650793650793673e+00,4.430781844370579237e-06,-3.289077611448303643e-05
2.744444444444444464e+00,2.062332432737828006e-06,-1.154000853972215340e-05
2.745238095238095255e+00,-2.222583212868728643e-08,6.319058638339011678e-06
2.746031746031746046e+00,-1.423059644995555428e-06,1.968015212578160805e-05
2.746825396825396837e+00,-1.994605837072721833e-06,2.873651389963632988e-05
2.747619047619047628e+00,-1.890906356572080281e-06,3.453987982514053403e-05
2.748412698412698418e+00,-1.509845012837917545e-06,3.851936201619157545e-05
2.749206349206349209e+00,-1.346903950472597698e-06,4.201446918854530316e-05
2.750000000000000000e+00,-1.804064110685654380e-06,4.593269663389245151e-05
2.750793650793650791e+00,-3.020327977366532611e-06,5.057959502947548518e-05
2.751587301587301582e+00,-4.788200868541191724e-06,5.565821636392529235e-05
2.752380952380952372e+00,-6.593828025911753669e-06,6.040556659501700659e-05
2.753174603174603163e+00,-7.775059194225859954e-06,6.381734724251623752e-05
2.753968253968253954e+00,-7.747222398473054621e-06,6.489883094908874002e-05
2.754761904761904745e+00,-6.218807665025299000e-06,6.287476610624834021e-05
2.755555555555555536e+00,-3.320824783212717759e-06,5.730966646624026476e-05
2.756349206349206327e+00,3.958530260479242832e-07,4.813158102751033564e-05
2.757142857142857117e+00,4.094793122293709936e-06,3.559282520679116533e-05
2.757936507936507908e+00,6.877467668815141984e-06,2.021284722534412274e-05
2.758730158730158699e+00,8.029624049125938184e-06,2.728977449667694771e-06
2.759523809523809490e+00,7.222374080597818573e-06,-1.594600327329340946e-05
2.760317460317460281e+00,4.614760037323194778e-06,-3.477018163063988433e-05
2.761111111111111072e+00,8.297399021494051561e-07,-5.262506251652028608e-05
2.761904761904761862e+00,-3.193340967380500799e-06,-6.837035139681481484e-05
2.762698412698412653e+00,-6.433748400680658884e-06,-8.090565833586838961e-05
2.763492063492063444e+00,-8.048967948218622298e-06,-8.925580102571427658e-05
2.764285714285714235e+00,-7.586603090737576291e-06,-9.269048978028289487e-05
2.765079365079365026e+00,-5.091708039270185654e-06,-9.086109858641632983e-05
2.765873015873015817e+00,-1.089002160127994379e-06,-8.390620683870881854e-05
2.766666666666666607e+00,3.540513156936705464e-06,-7.247101590518086349e-05
2.767460317460317398e+00,7.744545007434126859e-06,-5.761487528547357064e-05
2.768253968253968189e+00,1.050014306678895169e-05,-4.062869557192996047e-05
2.769047619047618980e+00,1.099594621270552631e-05,-2.281977473578593728e-05
2.769841269841269771e+00,8.774837013113219236e-06,-5.328321221619224374e-06
2.770634920634920562e+00,3.823338600545742203e-06,1.098069935383341969e-05
2.771428571428571352e+00,-3.401777480737572391e-06,2.554347468342206133e-05
2.772222222222222143e+00,-1.201452614116923949e-05,3.806917997500801842e-05
2.773015873015872934e+00,-2.080688234524166063e-05,4.849911892652076243e-05
2.773809523809523725e+00,-2.841376945576636959e-05,5.697748821747733049e-05
2.774603174603174516e+00,-3.352066363116900407e-05,6.382468252812526258e-05
2.775396825396825307e+00,-3.508990066880706863e-05,6.948082541362733244e-05
2.776190476190476097e+00,-3.256949349675003556e-05,7.439214711537220023e-05
2.776984126984126888e+00,-2.603575627558298792e-05,7.884322894665716868e-05
2.777777777777777679e+00,-1.621958522185875775e-05,8.277515198005948435e-05
2.778571428571428470e+00,-4.388665118142397146e-06,8.565282427751566769e-05
2.779365079365079261e+00,7.896289721571823878e-06,8.644335536877956812e-05
2.780158730158730052e+00,1.908494134582175956e-05,8.374128768780970142e-05
2.780952380952380842e+00,2.791228612710297777e-05,7.603488639295797225e-05
2.781746031746031633e+00,3.357527773893758473e-05,6.206758767366866709e-05
2.782539682539682424e+00,3.578703295740433770e-05,4.122692763808228294e-05
2.783333333333333215e+00,3.473000233447065104e-05,1.389105231806768546e-05
2.784126984126984006e+00,3.095168386615298534e-05,-1.833755444761852126e-05
2.784920634920634797e+00,2.524129658292984031e-05,-5.259354495344133678e-05
2.785714285714285587e+00,1.850643647007716122e-05,-8.499240216508040094e-05
2.786507936507936378e+00,1.165294033693514349e-05,-1.111996803841295471e-04
2.787301587301587169e+00,5.469119038091353878e-06,-1.272622514007507510e-04
2.788095238095237960e+00,5.247335806843045548e-07,-1.305090515876535353e-04
2.788888888888888751e+00,-2.895655347824736485e-06,-1.202524328580237842e-04
2.789682539682539542e+00,-4.806829265621607031e-06,-9.805330039149140323e-05
2.790476190476190332e+00,-5.480529740709151413e-06,-6.744985578604178729e-05
2.791269841269841123e+00,-5.360573534923046424e-06,-3.322674832648865589e-05
2.792063492063491914e+00,-4.959413741236246894e-06,-4.376895598180680059e-07
2.792857142857142705e+00,-4.757155579665361181e-06,2.655669145743884356e-05
2.793650793650793496e+00,-5.114373704240215168e-06,4.481091729509238209e-05
2.794444444444444287e+00,-6.203773079506329266e-06,5.314535177396798726e-05
2.795238095238095077e+00,-7.967231587974795215e-06,5.210810038702599954e-05
2.796031746031745868e+00,-1.010998976415814392e-05,4.362634265829225575e-05
2.796825396825396659e+00,-1.214453785226280809e-05,3.047263759904001126e-05
2.797619047619047450e+00,-1.348752292174319059e-05,1.567022651507627538e-05
2.798412698412698241e+00,-1.359538407311209425e-05,1.939397394555403830e-06
2.799206349206349032e+00,-1.210680761171617275e-05,-8.730069487058206859e-06
2.799999999999999822e+00,-8.952088922273603990e-06,-1.531096265012494187e-05
2.800793650793650613e+00,-4.395963473544583617e-06,-1.774020848748402763e-05
2.801587301587301404e+00,1.000415588960523071e-06,-1.671218866799032077e-05
2.802380952380952195e+00,6.488323672046200241e-06,-1.334235980900573922e-05
2.803174603174602986e+00,1.128149817678205923e-05,-8.806975002346457943e-06
2.803968253968253777e+00,1.470987802963952195e-05,-4.055240965254350436e-06
2.804761904761904567e+00,1.634324399182648444e-05,3.459724717151095085e-07
2.805555555555555358e+00,1.606108479874101446e-05,4.223563175701821462e-06
2.806349206349206149e+00,1.405757132346394381e-05,7.699186994042316024e-06
2.807142857142856940e+00,1.078421928831666888e-05,1.103706481204964927e-05
2.807936507936507731e+00,6.846418663560407843e-06,1.449376230103272383e-05
2.808730158730158522e+00,2.880263065407816227e-06,1.820661936221182857e-05
2.809523809523809312e+00,-5.611348080341258656e-07,2.213477481058798499e-05
2.810317460317460103e+00,-3.089246823250637176e-06,2.604680155385624213e-05
2.811111111111110894e+00,-4.519848188675332813e-06,2.953803523598081752e-05
2.811904761904761685e+00,-4.873181294787245445e-06,3.206516443640605257e-05
2.812698412698412920e+00,-4.343159202304803329e-06,3.300271866920745091e-05
2.813492063492063711e+00,-3.245067104378291859e-06,3.173892839613522414e-05
2.814285714285714501e+00,-1.950778029878222235e-06,2.781947841541782224e-05
2.815079365079365292e+00,-8.212481340974082390e-07,2.111690048501538991e-05
2.815873015873016083e+00,-1.468951890853071401e-07,1.197036789275326109e-05
2.816666666666666874e+00,-1.051450029799966458e-07,1.229485917003836098e-06
2.817460317460317665e+00,-7.405422147528474067e-07,-9.842378628533011542e-06
2.818253968253968456e+00,-1.968060958717070448e-06,-1.980175934356671617e-05
2.819047619047619246e+00,-3.596485132267611652e-06,-2.733796857626490719e-05
2.819841269841270037e+00,-5.366495646195526412e-06,-3.157046697711812501e-05
2.820634920634920828e+00,-6.996966055892811150e-06,-3.223624520415174327e-05
2.821428571428571619e+00,-8.232516154353780569e-06,-2.971316116022030914e-05
2.822222222222222410e+00,-8.885389144143934710e-06,-2.488390259429627580e-05
2.823015873015873201e+00,-8.865134341780650973e-06,-1.889107905449466629e-05
2.823809523809523991e+00,-8.190896320408073365e-06,-1.285306349821940373e-05
2.824603174603174782e+00,-6.984025175150792952e-06,-7.610173263312928377e-06
2.825396825396825573e+00,-5.442768312322202906e-06,-3.561067043508217304e-06
2.826190476190476364e+00,-3.804336287088897976e-06,-6.295375664960638623e-07
2.826984126984127155e+00,-2.301451428981943164e-06,1.630159862297984665e-06
2.827777777777777946e+00,-1.120680850492291645e-06,3.820681930926083141e-06
2.828571428571428736e+00,-3.691685604516788704e-07,6.447469018536440948e-06
2.829365079365079527e+00,-5.543168430313654309e-08,9.704257981327083817e-06
2.830158730158730318e+00,-8.868423814240597661e-08,1.336612051448565259e-05
2.830952380952381109e+00,-2.988834632119408806e-07,1.682016306798803543e-05
2.831746031746031900e+00,-4.755138316520160267e-07,1.921945130063457539e-05
2.832539682539682691e+00,-4.177133040668238790e-07,1.971287963288748850e-05
2.833333333333333481e+00,1.586568738697991994e-08,1.769002120364164437e-05
2.834126984126984272e+00,8.698706937131409859e-07,1.298190532615327253e-05
2.834920634920635063e+00,2.077405225880976107e-06,5.969733029263338365e-06
2.835714285714285854e+00,3.472342033906835266e-06,-2.429068032396838576e-06
2.836507936507936645e+00,4.827844279381398576e-06,-1.090358797012084225e-05
2.837301587301587436e+00,5.913747476294239421e-06,-1.799651319287074900e-05
2.838095238095238226e+00,6.559030301341625246e-06,-2.240171102662579571e-05
2.838888888888889017e+00,6.701396257345124622e-06,-2.324344550788895610e-05
2.839682539682539808e+00,6.407058095595987798e-06,-2.027729279415165504e-05
2.840476190476190599e+00,5.851547233125202830e-06,-1.397972528198765384e-05
2.841269841269841390e+00,5.264909023110794870e-06,-5.517707101593650611e-06
2.842063492063492181e+00,4.857412067464516373e-06,3.402384436060172905e-06
2.842857142857142971e+00,4.749666179599032556e-06,1.080618252879780945e-05
2.843650793650793762e+00,4.930574205915601309e-06,1.482777842595343185e-05
2.844444444444444553e+00,5.258056015569171311e-06,1.414027473776315393e-05
2.845238095238095344e+00,5.504060484010790958e-06,8.348511764077023767e-06
2.846031746031746135e+00,5.431486020294077248e-06,-1.771111160443913352e-06
2.846825396825396925e+00,4.880598033663090716e-06,-1.428602883557269145e-05
2.847619047619047716e+00,3.839106371711354934e-06,-2.642529377336054236e-05
2.848412698412698507e+00,2.473738721207833391e-06,-3.516099308594505026e-05
2.849206349206349298e+00,1.110722445087773588e-06,-3.792737399560766761e-05
2.850000000000000089e+00,1.659123071470697869e-07,-3.329615885952074035e-05
2.850793650793650880e+00,3.925264020696977946e-08,-2.142193340430482713e-05
2.851587301587301670e+00,9.988781090742523683e-07,-4.120493143166950180e-06
2.852380952380952461e+00,3.084014629801304658e-06,1.546439241542654867e-05
2.853174603174603252e+00,6.051753302660640413e-06,3.353632111462187082e-05
2.853968253968254043e+00,9.382341078843370460e-06,4.649311455043039700e-05
2.854761904761904834e+00,1.234471795030604216e-05,5.172334230659132883e-05
2.855555555555555625e+00,1.411291058041918036e-05,4.815018573603830975e-05
2.856349206349206415e+00,1.391633595871685696e-05,3.640206144675125311e-05
2.857142857142857206e+00,1.120141129040381036e-05,1.859937401882391715e-05
2.857936507936507997e+00,5.776137859653889809e-06,-2.156130385017708486e-06
2.858730158730158788e+00,-2.095061469401253009e-06,-2.244632089348457994e-05
2.859523809523809579e+00,-1.167733549573485158e-05,-3.920027164501813593e-05
2.860317460317460370e+00,-2.185132984713594441e-05,-5.021943262087711870e-05
2.861111111111111160e+00,-3.129569385066320857e-05,-5.446787051391983794e-05
2.861904761904761951e+00,-3.873514494007460529e-05,-5.209285850685036921e-05
2.862698412698412742e+00,-4.319882955110472441e-05,-4.421354550323355225e-05
2.863492063492063533e+00,-4.422214588951367678e-05,-3.256947906506554364e-05
2.864285714285714324e+00,-4.193360215444940378e-05,-1.913312648437182604e-05
2.865079365079365115e+00,-3.699824253593723001e-05,-5.767834828845786740e-06
2.865873015873015905e+00,-3.043233231813972795e-05,6.020641825269979047e-06
2.866666666666666696e+00,-2.334388808596211688e-05,1.521948738936775929e-05
2.867460317460317487e+00,-1.667461700924939081e-05,2.133415302890360468e-05
2.868253968253968278e+00,-1.101381203102053084e-05,2.432529371564541796e-05
2.869047619047619069e+00,-6.526909989869784098e-06,2.449253716463856061e-05
2.869841269841269860e+00,-3.002566334219289963e-06,2.234692527671568871e-05
2.870634920634920650e+00,1.199278485889729892e-08,1.851039560213205051e-05
2.871428571428571441e+00,3.035468951604082844e-06,1.366410583542860149e-05
2.872222222222222232e+00,6.484917539269499351e-06,8.539557643350808149e-06
2.873015873015873023e+00,1.055182640481411215e-05,3.918479036899961095e-06
2.873809523809523814e+00,1.514066627727049331e-05,5.964693297779653990e-07
2.874603174603174605e+00,1.987376633314397691e-05,-7.175246224235252283e-07
2.875396825396825395e+00,2.415636955545719987e-05,4.448944431888486746e-07
2.876190476190476186e+00,2.728947097447430726e-05,4.153082339694265139e-06
2.876984126984126977e+00,2.861295938836662208e-05,9.976760950756288548e-06
2.877777777777777768e+00,2.765740751229890928e-05,1.698905625990923348e-05
2.878571428571428559e+00,2.428047914747405187e-05,2.388690277395020129e-05
2.879365079365079350e+00,1.876230502697147240e-05,2.921444245866955481e-05
2.880158730158730140e+00,1.183294454419924125e-05,3.165476898170451093e-05
2.880952380952380931e+00,4.608980830778130591e-06,3.033542398093653751e-05
2.881746031746031722e+00,-1.568191569055427602e-06,2.507352857270795399e-05
2.882539682539682513e+00,-5.373447033708478601e-06,1.648181936100973890e-05
2.883333333333333304e+00,-5.772560587074962285e-06,5.881965451384216584e-06
2.884126984126984095e+00,-2.270173078749071311e-06,-4.974669608044184485e-06
2.884920634920634885e+00,4.925164590251525122e-06,-1.431436639429669486e-05
2.885714285714285676e+00,1.485728612691585342e-05,-2.076305385822655464e-05
2.886507936507936467e+00,2.591589645975387064e-05,-2.365715389924834329e-05
2.887301587301587258e+00,3.606169169963243239e-05,-2.314778668103957250e-05
2.888095238095238049e+00,4.315772308766883643e-05,-2.006689089410888216e-05
2.888888888888888840e+00,4.536180220170410693e-05,-1.560418515676133394e-05
2.889682539682539630e+00,4.151590098045475824e-05,-1.091344471887675045e-05
2.890476190476190421e+00,3.145614230154131701e-05,-6.790635241202661188e-06
2.891269841269841212e+00,1.616856066236157074e-05,-3.528300867508617904e-06
2.892063492063492003e+00,-2.264602934743609104e-06,-9.716225663456843682e-07
2.892857142857142794e+00,-2.094723992267190691e-05,1.276498808428542654e-06
2.893650793650793585e+00,-3.665217216187924949e-05,3.599902721972825028e-06
2.894444444444444375e+00,-4.642553100676484159e-05,6.164770340347962215e-06
2.895238095238095166e+00,-4.819204732175685993e-05,8.833588547584118652e-06
2.896031746031745957e+00,-4.122421460224544239e-05,1.121065264112544783e-05
2.896825396825396748e+00,-2.636088040926680678e-05,1.278211269838353576e-05
2.897619047619047539e+00,-5.920514432226152024e-06,1.308644101280499289e-05
2.898412698412698330e+00,1.667091134249018282e-05,1.185408879843037909e-05
2.899206349206349120e+00,3.745726363967552444e-05,9.081102404924505975e-06
2.899999999999999911e+00,5.262514103438684494e-05,5.034223894594343194e-06
2.900793650793650702e+00,5.915982006477552024e-05,2.075247626314754077e-07
2.901587301587301493e+00,5.538202457737943758e-05,-4.745602505060201191e-06
2.902380952380952284e+00,4.127773008853369453e-05,-9.092318159471265922e-06
2.903174603174603075e+00,1.855316130730878165e-05,-1.211278016399865060e-05
2.903968253968253865e+00,-9.618802922919671459e-06,-1.320983798830534720e-05
2.904761904761904656e+00,-3.913880563394608750e-05,-1.203048496635005431e-05
2.905555555555555447e+00,-6.571217768805941292e-05,-8.573956129931902242e-06
2.906349206349206238e+00,-8.560753562769394067e-05,-3.245255510726295020e-06
2.907142857142857029e+00,-9.625528311866451828e-05,3.184256983418685919e-06
2.907936507936507819e+00,-9.654717876810162234e-05,9.719636392354662815e-06
2.908730158730158610e+00,-8.680676976959993173e-05,1.535662117147825121e-05
2.909523809523809401e+00,-6.851258699954018618e-05,1.930063411160282073e-05
2.910317460317460192e+00,-4.391272125210252586e-05,2.111522197160866607e-05
2.911111111111110983e+00,-1.565558727515380867e-05,2.074946178810898351e-05
2.911904761904761774e+00,1.349259715520161687e-05,1.844422353975043593e-05
2.912698412698412564e+00,4.083004363903306816e-05,1.457156794229048352e-05
2.913492063492063355e+00,6.382983507403909476e-05,9.491504987157421154e-06
2.914285714285714146e+00,8.023172948404455249e-05,3.496056317140848146e-06
2.915079365079364937e+00,8.817331037659203313e-05,-3.141917075619020721e-06
2.915873015873015728e+00,8.639995221596032137e-05,-1.005675141146724120e-05
2.916666666666666519e+00,7.455246204269722077e-05,-1.668844659219092524e-05
2.917460317460317309e+00,5.347659247760688670e-05,-2.225761683223550756e-05
2.918253968253968100e+00,2.544531969657966912e-05,-2.584711176188368495e-05
2.919047619047618891e+00,-5.843612893643920713e-06,-2.657705391695192035e-05
2.919841269841269682e+00,-3.561006742568219747e-05,-2.382659622562452082e-05
2.920634920634920473e+00,-5.870341957531516889e-05,-1.744029674639972625e-05
2.921428571428571264e+00,-7.058228178220866012e-05,-7.858789491068860533e-06
2.922222222222222054e+00,-6.833369433827490261e-05,3.870840839404845198e-06
2.923015873015872845e+00,-5.144455660624453830e-05,1.622107398879296989e-05
2.923809523809523636e+00,-2.208531332520853450e-05,2.742526032922301129e-05
2.924603174603174427e+00,1.519559051847420330e-05,3.578021376125210020e-05
2.925396825396825218e+00,5.429931693414861971e-05,3.994193549441153919e-05
2.926190476190476009e+00,8.872651750698414192e-05,3.915274426373529121e-05
2.926984126984126799e+00,1.127857884082305315e-04,3.335496270648472732e-05
2.927777777777777590e+00,1.225987627823300506e-04,2.316676201479809171e-05
2.928571428571428381e+00,1.166945099295527843e-04,9.722831645580097101e-06
2.929365079365079172e+00,9.608609805296838813e-05,-5.581468828684928471e-06
2.930158730158729963e+00,6.385368233698133697e-05,-2.136888507251475181e-05
2.930952380952380754e+00,2.438471081041136378e-05,-3.649475999516472145e-05
2.931746031746031544e+00,-1.750389736097856614e-05,-5.013342201022283757e-05
2.932539682539682335e+00,-5.734099622445394044e-05,-6.172758065625803434e-05
2.933333333333333126e+00,-9.152696812858813829e-05,-7.085032609867536685e-05
2.934126984126983917e+00,-1.175696399209266447e-04,-7.706119739262013899e-05
2.934920634920634708e+00,-1.340836514608562450e-04,-7.983281564350408965e-05
2.935714285714285499e+00,-1.406547804934799170e-04,-7.859292376124533573e-05
2.936507936507936289e+00,-1.376715082028677993e-04,-7.288254966662283021e-05
2.937301587301587080e+00,-1.261984596145852150e-04,-6.258338669497545898e-05
2.938095238095238315e+00,-1.079216597746608073e-04,-4.812746679802631439e-05
2.938888888888889106e+00,-8.513222864023270713e-05,-3.059079904665071482e-05
2.939682539682539897e+00,-6.064752137535622237e-05,-1.160772724424542948e-05
2.940476190476190688e+00,-3.754394350149892353e-05,6.886142333952785174e-06
2.941269841269841478e+00,-1.864014374292776547e-05,2.300742776754748035e-05
2.942063492063492269e+00,-5.812546617591216982e-06,3.527302310913757504e-05
2.942857142857143060e+00,6.324466702691490263e-07,4.285811063468301002e-05
2.943650793650793851e+00,2.257028709841501409e-06,4.571824047981643772e-05
2.944444444444444642e+00,2.270219186771767950e-06,4.456623603656519815e-05
2.945238095238095433e+00,4.764366537709109431e-06,4.071942306479520634e-05
2.946031746031746223e+00,1.356893016165384617e-05,3.584715166155473830e-05
2.946825396825397014e+00,3.101179577121822631e-05,3.165768634705547544e-05
2.947619047619047805e+00,5.693699304819106678e-05,2.957025801783932928e-05
2.948412698412698596e+00,8.830458865208928550e-05,3.042310938190018107e-05
2.949206349206349387e+00,1.195794637900361219e-04,3.427065298192026653e-05
2.950000000000000178e+00,1.439026421194901264e-04,4.031872047663588718e-05
2.950793650793650968e+00,1.547865674126672447e-04,4.703096592277690522e-05
2.951587301587301759e+00,1.478831585162033579e-04,5.240862225217549655e-05
2.952380952380952550e+00,1.223224077149576735e-04,5.440307197916200457e-05
2.953174603174603341e+00,8.122365274312196915e-05,5.137808156131126150e-05
2.953968253968254132e+00,3.119773013926962802e-05,4.251464912795308352e-05
2.954761904761904923e+00,-1.907363105764392388e-05,2.806010886328772410e-05
2.955555555555555713e+00,-6.083601670974650655e-05,9.361639673313002069e-06
2.956349206349206504e+00,-8.731666339298598672e-05,-1.132493563169430693e-05
2.957142857142857295e+00,-9.528742084563887995e-05,-3.121476837873913787e-05
2.957936507936508086e+00,-8.572954926116310085e-05,-4.749203852006606886e-05
2.958730158730158877e+00,-6.344928999312583480e-05,-5.783267320066378460e-05
2.959523809523809668e+00,-3.577790871420684815e-05,-6.084456430300946047e-05
2.960317460317460458e+00,-1.072358362743772473e-05,-5.632344931464406703e-05
2.961111111111111249e+00,4.933275609270014398e-06,-4.525756749244548891e-05
2.961904761904762040e+00,7.125872590791091213e-06,-2.957926888594034079e-05
2.962698412698412831e+00,-4.756871625457065778e-06,-1.173710414242364249e-05
2.963492063492063622e+00,-2.796381859399601062e-05,5.786379148423922569e-06
2.964285714285714413e+00,-5.717535495704648325e-05,2.088314560767642522e-05
2.965079365079365203e+00,-8.572364485584902272e-05,3.207019979698786288e-05
2.965873015873015994e+00,-1.069423342428512178e-04,3.856261504410714357e-05
2.966666666666666785e+00,-1.154020918004079234e-04,4.020772223081535136e-05
2.967460317460317576e+00,-1.078616186355960544e-04,3.735223187439882950e-05
2.968253968253968367e+00,-8.382554970688922485e-05,3.071224106700218244e-05
2.969047619047619158e+00,-4.564896108636221501e-05,2.128223334019756064e-05
2.969841269841269948e+00,1.827172830998604799e-06,1.027544155539065581e-05
2.970634920634920739e+00,5.207254970295612656e-05,-9.365268672987936247e-07
2.971428571428571530e+00,9.798982522143911522e-05,-1.091200721901496021e-05
2.972222222222222321e+00,1.331745340665374229e-04,-1.826355872747407484e-05
2.973015873015873112e+00,1.530565853802998903e-04,-2.181067652661096656e-05
2.973809523809523903e+00,1.556571310911125650e-04,-2.074512807957031799e-05
2.974603174603174693e+00,1.417766096401738526e-04,-1.478793512171014918e-05
2.975396825396825484e+00,1.145928197914192816e-04,-4.312422912326531724e-06
2.976190476190476275e+00,7.882908216152163220e-05,9.596882071943748274e-06
2.976984126984127066e+00,3.977303807152611579e-05,2.518240021079127551e-05
2.977777777777777857e+00,2.435661821805820693e-06,4.017612985310179172e-05
2.978571428571428648e+00,-2.896467453277863779e-05,5.209470047399738873e-05
2.979365079365079438e+00,-5.118013509848603581e-05,5.864096999732196751e-05
2.980158730158730229e+00,-6.191806835811474070e-05,5.814442433573791821e-05
2.980952380952381020e+00,-5.984131885111265269e-05,4.993657876552750556e-05
2.981746031746031811e+00,-4.473237347299443108e-05,3.454929438044656431e-05
2.982539682539682602e+00,-1.781808168129177369e-05,1.366210948557525948e-05
2.983333333333333393e+00,1.791069080121225320e-05,-1.019700105264539840e-05
2.984126984126984183e+00,5.763891012335570056e-05,-3.411184178158265694e-05
2.984920634920634974e+00,9.514644789489552941e-05,-5.527124508489523585e-05
2.985714285714285765e+00,1.237754011398260409e-04,-7.137726150159208634e-05
2.986507936507936556e+00,1.378053355459964375e-04,-8.089522136519451646e-05
2.987301587301587347e+00,1.339023436632785595e-04,-8.312949345307622101e-05
2.988095238095238138e+00,1.121939996372716829e-04,-7.816156861823219716e-05
2.988888888888888928e+00,7.654121571434525570e-05,-6.671938256979766872e-05
2.989682539682539719e+00,3.376635751483314225e-05,-5.004108724544463764e-05
2.990476190476190510e+00,-8.062057236031069753e-06,-2.975505367808026975e-05
2.991269841269841301e+00,-4.180791031697454583e-05,-7.754469228486953112e-06
2.992063492063492092e+00,-6.319788866084701526e-05,1.396140877121109121e-05
2.992857142857142883e+00,-7.185293143634014174e-05,3.347249024059910670e-05
2.993650793650793673e+00,-7.110132448544366436e-05,4.910418436909809599e-05
2.994444444444444464e+00,-6.668446924382931331e-05,5.952874167679440571e-05
2.995238095238095255e+00,-6.481050891706560506e-05,6.379833119769904182e-05
2.996031746031746046e+00,-7.017559446256062304e-05,6.135738809369937780e-05
2.996825396825396837e+00,-8.454507341601573682e-05,5.209529791379807729e-05
2.997619047619047628e+00,-1.062876462381033885e-04,3.646026851931470701e-05
2.998412698412698418e+00,-1.309394089475499241e-04,1.558641674778177440e-05
2.999206349206349209e+00,-1.525485470691064231e-04,-8.663761755497791342e-06
3.000000000000000000e+00,-1.653380866859405251e-04,-3.383119008175614344e-05
3.000793650793650791e+00,-1.651898788477164912e-04,-5.718469202896293602e-05
3.001587301587301582e+00,-1.505767256110387595e-04,-7.616080123317711193e-05
3.002380952380952372e+00,-1.227763199782230948e-04,-8.878202919713462367e-05
3.003174603174603163e+00,-8.540964362343464054e-05,-9.393067060251599886e-05
3.003968253968253954e+00,-4.349891167660201847e-05,-9.142602033539713215e-05
3.004761904761904745e+00,-2.315631171742489179e-06,-8.192766663295870412e-05
3.005555555555555536e+00,3.369837925272416368e-05,-6.672534438264307154e-05
3.006349206349206327e+00,6.168958630101549381e-05,-4.747681053696383807e-05
3.007142857142857117e+00,8.066924239614942690e-05,-2.594467575148401303e-05
3.007936507936507908e+00,9.128057005700204382e-05,-3.777929077143846300e-06
3.008730158730158699e+00,9.518083833726999918e-05,1.762009531911191141e-05
3.009523809523809490e+00,9.427650070484956072e-05,3.711303030524414916e-05
3.010317460317460281e+00,9.007878290053770748e-05,5.375709779170278238e-05
3.011111111111111072e+00,8.337777215704283908e-05,6.669413257775509826e-05
3.011904761904761862e+00,7.429475020917706532e-05,7.509902614111057791e-05
3.012698412698412653e+00,6.262501633484483094e-05,7.824402149504554890e-05
3.013492063492063444e+00,4.828769870990294436e-05,7.568089174333143311e-05
3.014285714285714235e+00,3.168946210795016628e-05,6.748075760896427651e-05
3.015079365079365026e+00,1.387734695538028165e-05,5.443550394618326883e-05
3.015873015873015817e+00,-3.544044350419028066e-06,3.811749688801599055e-05
3.016666666666666607e+00,-1.867703023545878074e-05,2.071901075561562896e-05
3.017460317460317398e+00,-2.968895680775982706e-05,4.658542882837688343e-06
3.018253968253968189e+00,-3.517668638484037992e-05,-7.963060185965364224e-06
3.019047619047618980e+00,-3.446960371049157597e-05,-1.588981900674743078e-05
3.019841269841269771e+00,-2.783272713278157518e-05,-1.903048687101272632e-05
3.020634920634920562e+00,-1.655485429942803456e-05,-1.843973404507501956e-05
3.021428571428571352e+00,-2.899735653824797067e-06,-1.595219809367556647e-05
3.022222222222222143e+00,1.013360155933302974e-05,-1.358984282472875349e-05
3.023015873015872934e+00,1.930124318045088104e-05,-1.293617581222023857e-05
3.023809523809523725e+00,2.184635693787917671e-05,-1.466404894209808429e-05
3.024603174603174516e+00,1.632927903352654209e-05,-1.834078801173521066e-05
3.025396825396825307e+00,3.285315031011757784e-06,-2.255457503286508245e-05
3.026190476190476097e+00,-1.458904225920944804e-05,-2.532823467353957175e-05
3.026984126984126888e+00,-3.290188554365866785e-05,-2.471121948335912110e-05
3.027777777777777679e+00,-4.662924151380556730e-05,-1.937859620860503824e-05
3.028571428571428470e+00,-5.147858547683960089e-05,-9.049457646668487105e-06
3.029365079365079261e+00,-4.512549311154862947e-05,5.407527230138828058e-06
3.030158730158730052e+00,-2.793537673159264418e-05,2.220153202821489278e-05
3.030952380952380842e+00,-2.953145518477160650e-06,3.908399747391914778e-05
3.031746031746031633e+00,2.483362776737885937e-05,5.388629986919529665e-05
3.032539682539682424e+00,4.974665115439626630e-05,6.496694362974319290e-05
3.033333333333333215e+00,6.683360819151669570e-05,7.145897622237651554e-05
3.034126984126984006e+00,7.306553785451935128e-05,7.328611480452972286e-05
3.034920634920634797e+00,6.801286749059635040e-05,7.098460571231889440e-05
3.035714285714285587e+00,5.386083009001677962e-05,6.540782701105294782e-05
3.036507936507936378e+00,3.480537984370198653e-05,5.740396720239921156e-05
3.037301587301587169e+00,1.601463254887525086e-05,4.755579670441500669e-05
3.038095238095237960e+00,2.420600428043102993e-06,3.605710418720374272e-05
3.038888888888888751e+00,-2.384936505496801335e-06,2.276429989669932600e-05
3.039682539682539542e+00,3.072489856598298612e-06,7.408370349075389313e-06
3.040476190476190332e+00,1.783676621807611535e-05,-1.009651547869801386e-05
3.041269841269841123e+00,3.871202757373203262e-05,-2.934091267433441684e-05
3.042063492063491914e+00,6.090491378623526264e-05,-4.920950272476730820e-05
3.042857142857142705e+00,7.898515120687056861e-05,-6.787064172240930057e-05
3.043650793650793496e+00,8.797607145391139055e-05,-8.302651012944853119e-05
3.044444444444444287e+00,8.436768725284428795e-05,-9.240563394105497184e-05
3.045238095238095077e+00,6.686401280055113505e-05,-9.437977137483447596e-05
3.046031746031745868e+00,3.672680493728646913e-05,-8.851187119072694682e-05
3.046825396825396659e+00,-2.351898771336194761e-06,-7.583501433477824578e-05
3.047619047619047450e+00,-4.484064877128919797e-05,-5.873649031554073366e-05
3.048412698412698241e+00,-8.434212687578499738e-05,-4.044933627334342500e-05
3.049206349206349032e+00,-1.147926929893925086e-04,-2.428534603265014726e-05
3.049999999999999822e+00,-1.316545418662575493e-04,-1.283011235083790649e-05
3.050793650793650613e+00,-1.328258701022853232e-04,-7.333325585658743142e-06
3.051587301587301404e+00,-1.190366357482917556e-04,-7.464140724680574197e-06
3.052380952380952195e+00,-9.362680931383758653e-05,-1.148556732056033752e-05
3.053174603174602986e+00,-6.176889316667037993e-05,-1.677533439223729327e-05
3.053968253968253777e+00,-2.933400825881857683e-05,-2.052775914278604617e-05
3.054761904761904567e+00,-1.673462179054068516e-06,-2.043999001172914316e-05
3.055555555555555358e+00,1.741269258290026954e-05,-1.521780493114620679e-05
3.056349206349206149e+00,2.630869794659448346e-05,-4.808162566158369671e-06
3.057142857142856940e+00,2.570309024906053164e-05,9.654165180034510811e-06
3.057936507936507731e+00,1.819468861951463006e-05,2.613508925781928517e-05
3.058730158730158522e+00,7.498331272667947099e-06,4.213629617594656554e-05
3.059523809523809312e+00,-2.542376935869444041e-06,5.517422574903649307e-05
3.060317460317460103e+00,-8.885230247292112227e-06,6.320687411855495472e-05
3.061111111111110894e+00,-9.939305272013961991e-06,6.493847258865902312e-05
3.061904761904761685e+00,-5.799473223402306003e-06,5.997018281437596599e-05
3.062698412698412920e+00,1.953028886281288360e-06,4.880148372229749687e-05
3.063492063492063711e+00,1.079617217197447332e-05,3.271238524315514036e-05
3.064285714285714501e+00,1.800114499438107405e-05,1.356844976531798588e-05
3.065079365079365292e+00,2.137087526184688701e-05,-6.412191836396348550e-06
3.065873015873016083e+00,1.981245429156741037e-05,-2.490647295012477454e-05
3.066666666666666874e+00,1.361993404237371545e-05,-3.974394340084472373e-05
3.067460317460317665e+00,4.414121070030752590e-06,-4.917481568917020721e-05
3.068253968253968456e+00,-5.240272756111457145e-06,-5.213147779783508252e-05
3.069047619047619246e+00,-1.245754740999445403e-05,-4.843439512831034449e-05
3.069841269841270037e+00,-1.476187389010513120e-05,-3.887170692513901976e-05
3.070634920634920828e+00,-1.075877698886292770e-05,-2.509411989462779919e-05
3.071428571428571619e+00,-5.750133600526336456e-07,-9.315521174054230380e-06
3.072222222222222410e+00,1.406345400012470285e-05,6.126378334615881768e-06
3.073015873015873201e+00,3.016091086619688324e-05,1.924637782149581157e-05
3.073809523809523991e+00,4.412975934970440314e-05,2.880766606251369355e-05
3.074603174603174782e+00,5.265955493810555766e-05,3.453908405994614690e-05
3.075396825396825573e+00,5.355227986969431233e-05,3.711644682080164647e-05
3.076190476190476364e+00,4.628812238540771769e-05,3.790235851973250121e-05
3.076984126984127155e+00,3.215188841884199705e-05,3.849659791193555102e-05
3.077777777777777946e+00,1.388392504663091987e-05,4.020543722260172309e-05
3.078571428571428736e+00,-5.026870277902154211e-06,4.357577626544100114e-05
3.079365079365079527e+00,-2.118413677130482497e-05,4.813723656004595592e-05
3.080158730158730318e+00,-3.202143983769596561e-05,5.244352049463452028e-05
3.080952380952381109e+00,-3.626843284045198993e-05,5.441706420794508353e-05
3.081746031746031900e+00,-3.408308581975670891e-05,5.190947434780080545e-05
3.082539682539682691e+00,-2.687637758665826793e-05,4.332779911034701328e-05
3.083333333333333481e+00,-1.690808806042523536e-05,2.816157137074671289e-05
3.084126984126984272e+00,-6.754227002007496210e-06,7.274258937393751291e-06
3.084920634920635063e+00,1.246394982806755100e-06,-1.712021341980993680e-05
3.085714285714285854e+00,5.459426216087592526e-06,-4.180436415115670618e-05
3.086507936507936645e+00,5.242693366299861182e-06,-6.316223996538461547e-05
3.087301587301587436e+00,9.985129358953653535e-07,-7.791240173199816743e-05
3.088095238095238226e+00,-6.004322119794417516e-06,-8.379754251340997982e-05
3.088888888888889017e+00,-1.397089180809167212e-05,-8.006021630600860259e-05
3.089682539682539808e+00,-2.098158865183100244e-05,-6.758666960839401457e-05
3.090476190476190599e+00,-2.536363735866653014e-05,-4.869225140694917388e-05
3.091269841269841390e+00,-2.597782782647726119e-05,-2.661533996436487180e-05
3.092063492063492181e+00,-2.239794005503860228e-05,-4.846007909733927426e-06
3.092857142857142971e+00,-1.497430075888706323e-05,1.356637523992399595e-05
3.093650793650793762e+00,-4.774065097576429295e-06,2.658778743490354502e-05
3.094444444444444553e+00,6.606436437506770397e-06,3.353423859216823357e-05
3.095238095238095344e+00,1.734446176062272158e-05,3.508195335930030921e-05
3.096031746031746135e+00,2.575993527009473035e-05,3.294064891791279877e-05
3.096825396825396925e+00,3.066130677376275459e-05,2.927365017294419596e-05
3.097619047619047716e+00,3.156241968239470593e-05,2.603112066372788907e-05
3.098412698412698507e+00,2.869756642259221649e-05,2.439109472581821726e-05
3.099206349206349298e+00,2.283844194801444008e-05,2.446221436354806492e-05
3.100000000000000089e+00,1.499776452587178978e-05,2.531223072759261798e-05
3.100793650793650880e+00,6.145484035988612462e-06,2.528930171795214427e-05
3.101587301587301670e+00,-2.954361587046269736e-06,2.253584556067555152e-05
3.102380952380952461e+00,-1.174297622182941306e-05,1.556666214812520914e-05
3.103174603174603252e+00,-1.973985443782349844e-05,3.778321531339590506e-06
3.103968253968254043e+00,-2.638653156156019132e-05,-1.223762064753430710e-05
3.104761904761904834e+00,-3.096833050047654044e-05,-3.067848429010033851e-05
3.105555555555555625e+00,-3.267817058389762842e-05,-4.884640812947192246e-05
3.106349206349206415e+00,-3.081208714643102447e-05,-6.373371558395172077e-05
3.107142857142857206e+00,-2.501811337669988092e-05,-7.272554804545014624e-05
3.107936507936507997e+00,-1.549051807106134062e-05,-7.422817380050268448e-05
3.108730158730158788e+00,-3.020244347400466951e-06,-6.805474345791308072e-05
3.109523809523809579e+00,1.113011883215360866e-05,-5.546975538442180243e-05
3.110317460317460370e+00,2.548326100763367142e-05,-3.888373687322384318e-05
3.111111111111111160e+00,3.863061292836194249e-05,-2.127935420630281177e-05
3.111904761904761951e+00,4.942472651092856523e-05,-5.519618341255554068e-06
3.112698412698412742e+00,5.701661522403141889e-05,6.281843521376791961e-06
3.113492063492063533e+00,6.076861404466619320e-05,1.317005351226430757e-05
3.114285714285714324e+00,6.015089039051897668e-05,1.544373789819906723e-05
3.115079365079365115e+00,5.473648393556280513e-05,1.442861422529742254e-05
3.115873015873015905e+00,4.433620151704914514e-05,1.200709753028409308e-05
3.116666666666666696e+00,2.920940618613358770e-05,1.004935033540452242e-05
3.117460317460317487e+00,1.022274624008235659e-05,9.917096993633343357e-06
3.118253968253968278e+00,-1.115298567232231922e-05,1.217967031197407690e-05
3.119047619047619069e+00,-3.303422555292275003e-05,1.659848887252328325e-05
3.119841269841269860e+00,-5.343513460430309207e-05,2.234062766248923670e-05
3.120634920634920650e+00,-7.057454446452044448e-05,2.831760751332628660e-05
3.121428571428571441e+00,-8.307222135121721549e-05,3.352905375109373540e-05
3.122222222222222232e+00,-8.999838731136718356e-05,3.731251057709901681e-05
3.123015873015873023e+00,-9.082268645024718211e-05,3.944163468036355997e-05
3.123809523809523814e+00,-8.535687618455163031e-05,4.006124174103096238e-05
3.124603174603174605e+00,-7.377486660928312941e-05,3.949323612443051730e-05
3.125396825396825395e+00,-5.672702878721442080e-05,3.798819143043461724e-05
3.126190476190476186e+00,-3.547727237696488798e-05,3.552161610830685643e-05
3.126984126984126977e+00,-1.193807916982149938e-05,3.172455334231184094e-05
3.127777777777777768e+00,1.149736385970097027e-05,2.598919082658996744e-05
3.128571428571428559e+00,3.233410980182542050e-05,1.771934723470764599e-05
3.129365079365079350e+00,4.846652769739570843e-05,6.636166660030626871e-06
3.130158730158730140e+00,5.862090436094183744e-05,-6.971851225977832305e-06
3.130952380952380931e+00,6.260108033187729163e-05,-2.214235340875421205e-05
3.131746031746031722e+00,6.126099049768366216e-05,-3.731218727223979372e-05
3.132539682539682513e+00,5.622114811099536761e-05,-5.055072356048700695e-05
3.133333333333333304e+00,4.942127710956555254e-05,-5.989575440273856320e-05
3.134126984126984095e+00,4.263771149498717247e-05,-6.371862681799291179e-05
3.134920634920634885e+00,3.708936121478727168e-05,-6.104710572094325751e-05
3.135714285714285676e+00,3.321900416143808892e-05,-5.178727363901109896e-05
3.136507936507936467e+00,3.068350735475699293e-05,-3.680601976143444538e-05
3.137301587301587258e+00,2.853506719331593109e-05,-1.785960451098911735e-05
3.138095238095238049e+00,2.553726932887495705e-05,2.624227224371407300e-06
3.138888888888888840e+00,2.053769981291150449e-05,2.188638446549191700e-05
3.139682539682539630e+00,1.281280318790888094e-05,3.726043332597117364e-05
3.140476190476190421e+00,2.310922377716868061e-06,4.662554854777078669e-05
3.141269841269841212e+00,-1.025731689970355618e-05,4.881497285852178647e-05
3.142063492063492003e+00,-2.350400585406380279e-05,4.389439809777160933e-05
3.142857142857142794e+00,-3.561752819644736312e-05,3.323195068458248327e-05
3.143650793650793585e+00,-4.474136910124955493e-05,1.931663633801788865e-05
3.144444444444444375e+00,-4.939247261910439263e-05,5.338424089154461571e-06
3.145238095238095166e+00,-4.880715205880274622e-05,-5.399788440959376568e-06
3.146031746031745957e+00,-4.311776153364297004e-05,-1.012859292328345931e-05
3.146825396825396748e+00,-3.331867229087828345e-05,-7.191297429893931432e-06
3.147619047619047539e+00,-2.104519499003264756e-05,3.562843868964567135e-06
3.148412698412698330e+00,-8.233465377936232405e-06,2.066219857201085773e-05
3.149206349206349120e+00,3.255297289998050239e-06,4.121627671949573994e-05
3.149999999999999911e+00,1.196773576260586458e-05,6.141892422420938539e-05
3.150793650793650702e+00,1.708609412708391996e-05,7.726053429838034882e-05
3.151587301587301493e+00,1.851165382786082651e-05,8.529916009627671453e-05
3.152380952380952284e+00,1.679438542652729151e-05,8.331626371128628768e-05
3.153174603174603075e+00,1.293295062150551521e-05,7.071049628888838182e-05
3.153968253968253865e+00,8.100293081842990027e-06,4.855556257372427103e-05
3.154761904761904656e+00,3.367911715626575484e-06,1.933659601151520240e-05
3.155555555555555447e+00,-5.023996855740706187e-07,-1.354954497685419559e-05
3.156349206349206238e+00,-3.156076016917968121e-06,-4.640777443613158126e-05
3.157142857142857029e+00,-4.624778187284768168e-06,-7.584342172536190623e-05
3.157936507936507819e+00,-5.211050723263950754e-06,-9.923141224918774809e-05
3.158730158730158610e+00,-5.322747529510003431e-06,-1.149737967048994797e-04
3.159523809523809401e+00,-5.306699319908761443e-06,-1.225185783993583920e-04
3.160317460317460192e+00,-5.323741551529339700e-06,-1.221840173306857767e-04
3.161111111111110983e+00,-5.291930204369952630e-06,-1.148902727279360256e-04
3.161904761904761774e+00,-4.907460798450033172e-06,-1.019084101499178273e-04
3.162698412698412564e+00,-3.737338171902581225e-06,-8.468903056552034496e-05
3.163492063492063355e+00,-1.364096849496975932e-06,-6.476457746343414505e-05
3.164285714285714146e+00,2.450653419259494690e-06,-4.367729381324221132e-05
3.165079365079364937e+00,7.628472764298312918e-06,-2.288695785034367916e-05
3.165873015873015728e+00,1.370959255879578184e-05,-3.643695405735382257e-06
3.166666666666666519e+00,1.989635912822473453e-05,1.315281432499021832e-05
3.167460317460317309e+00,2.520854040196925688e-05,2.706225154179806125e-05
3.168253968253968100e+00,2.871266941165462653e-05,3.813266642962255998e-05
3.169047619047618891e+00,2.975237930428474393e-05,4.682199194535468389e-05
3.169841269841269682e+00,2.809897035379051823e-05,5.381721833002492704e-05
3.170634920634920473e+00,2.397113960230340572e-05,5.978686777549132973e-05
3.171428571428571264e+00,1.792796214245733619e-05,6.512360537582560630e-05
3.172222222222222054e+00,1.069110686001277486e-05,6.974492468942939869e-05
3.173015873015872845e+00,2.973919093142664630e-06,7.301639086682891401e-05
3.173809523809523636e+00,-4.622695361117807270e-06,7.383673497150073598e-05
3.174603174603174427e+00,-1.163325014394878802e-05,7.088099283422192557e-05
3.175396825396825218e+00,-1.770310752368051076e-05,6.295517482108120501e-05
3.176190476190476009e+00,-2.257117708553964022e-05,4.938878222839080068e-05
3.176984126984126799e+00,-2.609458824411568789e-05,3.037924056406085064e-05
3.177777777777777590e+00,-2.830332130557836873e-05,7.201124612119354876e-06
3.178571428571428381e+00,-2.943489613850238984e-05,-1.779152899098064748e-05
3.179365079365079172e+00,-2.989726000813247491e-05,-4.140475951532081306e-05
3.180158730158729963e+00,-3.014135865203939412e-05,-6.007108011572100445e-05
3.180952380952380754e+00,-3.047171989139854450e-05,-7.047852319242201534e-05
3.181746031746031544e+00,-3.086001014732969212e-05,-7.025771597296974241e-05
3.182539682539682335e+00,-3.083895683508833968e-05,-5.859352812095983929e-05
3.183333333333333126e+00,-2.953813458403471335e-05,-3.661531955545902644e-05
3.184126984126983917e+00,-2.588284167479170894e-05,-7.436982848732169081e-06
3.184920634920634708e+00,-1.892430642406842483e-05,2.421857965077496078e-05
3.185714285714285499e+00,-8.219949917287458822e-06,5.277033053548538688e-05
3.186507936507936289e+00,5.847675041924785834e-06,7.275706621095412679e-05
3.187301587301587080e+00,2.192355751270041035e-05,7.983356851118801568e-05
3.188095238095238315e+00,3.777941359120654918e-05,7.158351835999898999e-05
3.188888888888889106e+00,5.067280681052587822e-05,4.800688508510511535e-05
3.189682539682539897e+00,5.790828324132998932e-05,1.161611814264460520e-05
3.190476190476190688e+00,5.747968571728201133e-05,-3.286081694111725313e-05
3.191269841269841478e+00,4.863452092966801590e-05,-7.913116183091817139e-05
3.192063492063492269e+00,3.219971973746889809e-05,-1.202675117315830851e-04
3.192857142857143060e+00,1.055120543382990297e-05,-1.497950811934113538e-04
3.193650793650793851e+00,-1.280250315091840270e-05,-1.627602835661116118e-04
3.194444444444444642e+00,-3.393828629575880760e-05,-1.565811250710706442e-04
3.195238095238095433e+00,-4.935452732436029338e-05,-1.315141086558765070e-04
3.196031746031746223e+00,-5.670176617071694277e-05,-9.065231045013688290e-05
3.196825396825397014e+00,-5.521975218216558035e-05,-3.945437935515182319e-05
3.197619047619047805e+00,-4.578586092649563770e-05,1.512972526816410748e-05
3.198412698412698596e+00,-3.059544295777151068e-05,6.581302986662867594e-05
3.199206349206349387e+00,-1.259396352538319746e-05,1.062202852668662367e-04
3.200000000000000178e+00,5.169515348388206631e-06,1.319928428941770555e-04
3.200793650793650968e+00,2.010989868414526216e-05,1.415034192984816676e-04
3.201587301587301759e+00,3.049248641542168627e-05,1.359982418793833790e-04
3.202380952380952550e+00,3.560136341099696733e-05,1.191169792068892008e-04
3.203174603174603341e+00,3.570340721148928035e-05,9.590573810715597271e-05
3.203968253968254132e+00,3.185147348417805040e-05,7.157741521838413968e-05
3.204761904761904923e+00,2.558405721094130091e-05,5.033740777180867223e-05
3.205555555555555713e+00,1.858164126519634327e-05,3.456350009789737314e-05
3.206349206349206504e+00,1.233681790111843873e-05,2.452219629153589215e-05
3.207142857142857295e+00,7.890167920777872663e-06,1.865560036778966924e-05
3.207936507936508086e+00,5.676164410060002367e-06,1.432630338715267690e-05
3.208730158730158877e+00,5.507385635679415794e-06,8.800790474774357143e-06
3.209523809523809668e+00,6.698053713348812822e-06,2.051587020214627249e-07
3.210317460317460458e+00,8.295133064670236924e-06,-1.179808949660557072e-05
3.211111111111111249e+00,9.358064091623693757e-06,-2.579358979304852861e-05
3.211904761904762040e+00,9.215575132916286694e-06,-3.892428730411978048e-05
3.212698412698412831e+00,7.633472125534938841e-06,-4.766028070576507726e-05
3.213492063492063622e+00,4.850262271578531128e-06,-4.882807050952203633e-05
3.214285714285714413e+00,1.473831084683352589e-06,-4.062012830725288462e-05
3.215079365079365203e+00,-1.726474084791548390e-06,-2.329441977998731513e-05
3.215873015873015994e+00,-4.065225714532718877e-06,6.486945571006782110e-07
3.216666666666666785e+00,-5.145557575393151472e-06,2.687331060582051837e-05
3.217460317460317576e+00,-4.961219137359581048e-06,5.009016405329153710e-05
3.218253968253968367e+00,-3.871416223628828774e-06,6.518578528539158428e-05
3.219047619047619158e+00,-2.466718841237251473e-06,6.833089353897022291e-05
3.219841269841269948e+00,-1.377400062458542502e-06,5.782539162360887029e-05
3.220634920634920739e+00,-1.088763609637205607e-06,3.449951919252040004e-05
3.221428571428571530e+00,-1.818755011468253389e-06,1.581346800273371779e-06
3.222222222222222321e+00,-3.486530432456565851e-06,-3.594043316808637266e-05
3.223015873015873112e+00,-5.767776149695965312e-06,-7.230280508887349748e-05
3.223809523809523903e+00,-8.206232844817146677e-06,-1.020579355679512916e-04
3.224603174603174693e+00,-1.033968026301273128e-05,-1.210048682460442975e-04
3.225396825396825484e+00,-1.180339420561410014e-05,-1.267672219495670299e-04
3.226190476190476275e+00,-1.238960713082979515e-05,-1.189393288289802879e-04
3.226984126984127066e+00,-1.206048532205181797e-05,-9.885561704557158124e-05
3.227777777777777857e+00,-1.092677318844500980e-05,-6.913680804676542802e-05
3.228571428571428648e+00,-9.208250705472450210e-06,-3.319033563924710057e-05
3.229365079365079438e+00,-7.186025380649996622e-06,5.212876476344154884e-06
3.230158730158730229e+00,-5.149418676388742142e-06,4.225511685472936488e-05
3.230952380952381020e+00,-3.340904684879452402e-06,7.432496021444241101e-05
3.231746031746031811e+00,-1.910425486395684108e-06,9.827075118388774969e-05
3.232539682539682602e+00,-8.956116224366956362e-07,1.116852077503054287e-04
3.233333333333333393e+00,-2.385285653437133588e-07,1.131876747039173823e-04
3.234126984126984183e+00,1.662003592769288703e-07,1.026187648008175513e-04
3.234920634920634974e+00,4.127766503278206949e-07,8.106418849991937675e-05
3.235714285714285765e+00,5.412707837480461462e-07,5.068856548346267456e-05
