Timestamp,Flexor carpi radialis,Extensor digitorum
2.000000000000000000e+00,1.249074497024373286e-05,-5.422849647925219362e-06
2.000793650793650791e+00,1.356019772985511694e-05,2.270716150810769745e-05
2.001587301587301582e+00,1.398797392175844633e-05,5.067380978009819524e-05
2.002380952380952372e+00,1.384503931130828313e-05,7.542084780233622129e-05
2.003174603174603163e+00,1.320252817019638091e-05,9.434746696272049496e-05
2.003968253968253954e+00,1.211362885805412352e-05,1.056925750851705147e-04
2.004761904761904745e+00,1.060950446456265679e-05,1.087500764628511338e-04
2.005555555555555536e+00,8.708502063381459699e-06,1.038659291570388484e-04
2.006349206349206327e+00,6.435239100251851465e-06,9.224210865612362436e-05
2.007142857142857117e+00,3.842992164012790454e-06,7.563250375909603941e-05
2.007936507936507908e+00,1.030161053103553341e-06,5.602132220507787631e-05
2.008730158730158699e+00,-1.857496190600917942e-06,3.533979302330495707e-05
2.009523809523809490e+00,-4.641639046351469682e-06,1.524614146352183982e-05
2.010317460317460281e+00,-7.138873687543062793e-06,-3.012695684397055997e-06
2.011111111111111072e+00,-9.192567265045533981e-06,-1.864045333624160408e-05
2.011904761904761862e+00,-1.070054956276959919e-05,-3.123411910420896423e-05
2.012698412698412653e+00,-1.163270406891031686e-05,-4.066389941372976620e-05
2.013492063492063444e+00,-1.203501525569466097e-05,-4.694552346729980585e-05
2.014285714285714235e+00,-1.201932219562535638e-05,-5.015510745554130817e-05
2.015079365079365026e+00,-1.174155671664991531e-05,-5.041288035465127712e-05
2.015873015873015817e+00,-1.137464984580866636e-05,-4.793302025250049925e-05
2.016666666666666607e+00,-1.108329930786408750e-05,-4.311129234839387354e-05
2.017460317460317398e+00,-1.100555436670943581e-05,-3.660423828325077363e-05
2.018253968253968189e+00,-1.124230621615159562e-05,-2.934935841230235611e-05
2.019047619047618980e+00,-1.185257193231624914e-05,-2.249118918662543670e-05
2.019841269841269771e+00,-1.285111235603412189e-05,-1.721135372407580217e-05
2.020634920634920562e+00,-1.420539986653741415e-05,-1.449871443478539885e-05
2.021428571428571352e+00,-1.583078559254659750e-05,-1.492261354823673436e-05
2.022222222222222143e+00,-1.758545142065931179e-05,-1.847788656389160150e-05
2.023015873015872934e+00,-1.926956017529257722e-05,-2.455384644422494293e-05
2.023809523809523725e+00,-2.063437942264933488e-05,-3.204638295598782806e-05
2.024603174603174516e+00,-2.140552212631133912e-05,-3.959234056933120984e-05
2.025396825396825307e+00,-2.131976154784521855e-05,-4.586967889475700486e-05
2.026190476190476097e+00,-2.016904806208690939e-05,-4.988526159745932591e-05
2.026984126984126888e+00,-1.784152272665509681e-05,-5.117014696917171593e-05
2.027777777777777679e+00,-1.435049897358689521e-05,-4.982153891682308979e-05
2.028571428571428470e+00,-9.849347137927817099e-06,-4.636904739027472453e-05
2.029365079365079261e+00,-4.639167682474377267e-06,-4.149414305459822995e-05
2.030158730158730052e+00,8.207325722430027714e-07,-3.568430835454073936e-05
2.030952380952380842e+00,5.898286571872544329e-06,-2.894221272483433471e-05
2.031746031746031633e+00,9.786687745800834660e-06,-2.067781874810559057e-05
2.032539682539682424e+00,1.154699161746291041e-05,-9.871582733590950751e-06
2.033333333333333215e+00,1.022734628847942540e-05,4.493889645869358087e-06
2.034126984126984006e+00,5.070872335819953447e-06,2.285466625446639380e-05
2.034920634920634797e+00,-4.210555058587538684e-06,4.455352399377688136e-05
2.035714285714285587e+00,-1.715709962371110748e-05,6.762403848314892021e-05
2.036507936507936378e+00,-3.236371967407067796e-05,8.901180232869463098e-05
2.037301587301587169e+00,-4.745702034557027025e-05,1.052134570513995726e-04
2.038095238095237960e+00,-5.931604403419635279e-05,1.131497980025410514e-04
2.038888888888888751e+00,-6.455894483271305893e-05,1.109936398598860495e-04
2.039682539682539542e+00,-6.024857761259245039e-05,9.868593835898954486e-05
2.040476190476190332e+00,-4.468971654506551571e-05,7.798486520866036319e-05
2.041269841269841123e+00,-1.812095966090455454e-05,5.205328901407334577e-05
2.042063492063491914e+00,1.692069793842059292e-05,2.473505992595661184e-05
2.042857142857142705e+00,5.573670120143382734e-05,-2.552615478223511194e-07
2.043650793650793496e+00,9.215799197748145871e-05,-2.001769442335593383e-05
2.044444444444444287e+00,1.196841875791912897e-04,-3.288897974194678612e-05
2.045238095238095077e+00,1.328250828277910834e-04,-3.855425888004233918e-05
2.046031746031745868e+00,1.283282955725080195e-04,-3.788071754644515014e-05
2.046825396825396659e+00,1.059973551328799804e-04,-3.256095353521249277e-05
2.047619047619047450e+00,6.890431482086547903e-05,-2.467513257540794079e-05
2.048412698412698241e+00,2.294423722455224684e-05,-1.626686222394902411e-05
2.049206349206349032e+00,-2.417848055391710535e-05,-8.995111202757122355e-06
2.049999999999999822e+00,-6.433349963996589792e-05,-3.898015945857450944e-06
2.050793650793650613e+00,-9.045725269437642835e-05,-1.292093950443494970e-06
2.051587301587301404e+00,-9.787700495816386897e-05,-8.184621195416064143e-07
2.052380952380952195e+00,-8.521116201295484479e-05,-1.622043505510110181e-06
2.053174603174602986e+00,-5.465313517127311395e-05,-2.616450388341285123e-06
2.053968253968253777e+00,-1.154921838692324970e-05,-2.766540387840123035e-06
2.054761904761904567e+00,3.667637456701144661e-05,-1.324805835670546746e-06
2.055555555555555358e+00,8.203214360301511621e-05,2.019561045144192264e-06
2.056349206349206149e+00,1.175531283840099161e-04,7.094037562074258384e-06
2.057142857142856940e+00,1.385863033857520177e-04,1.329395699610678838e-05
2.057936507936507731e+00,1.434697964087380481e-04,1.971380768762615775e-05
2.058730158730158522e+00,1.335019781323801670e-04,2.533117144210864997e-05
2.059523809523809312e+00,1.123019514373602064e-04,2.920811876037875777e-05
2.060317460317460103e+00,8.479739875816665854e-05,3.067082347779767279e-05
2.061111111111110894e+00,5.611145140807923616e-05,2.943081333226294953e-05
2.061904761904761685e+00,3.058318195961065653e-05,2.562341866992450261e-05
2.062698412698412920e+00,1.108850135106823119e-05,1.975985032768266136e-05
2.063492063492063711e+00,-1.245706117726196126e-06,1.261208488309998994e-05
2.064285714285714501e+00,-6.919844711862171430e-06,5.064355677058103286e-06
2.065079365079365292e+00,-7.603584459343774236e-06,-2.034337325212667025e-06
2.065873015873016083e+00,-5.491969331188587569e-06,-7.993155000999560078e-06
2.066666666666666874e+00,-2.668240342429999391e-06,-1.236858868807850480e-05
2.067460317460317665e+00,-6.468073401916069445e-07,-1.502061863220538395e-05
2.068253968253968456e+00,-1.940007501309808713e-07,-1.613761184462584857e-05
2.069047619047619246e+00,-1.425017067137912091e-06,-1.622460480836734816e-05
2.069841269841270037e+00,-4.090855874368456685e-06,-1.604178357953525295e-05
2.070634920634920828e+00,-7.921250374525703854e-06,-1.648169817630168799e-05
2.071428571428571619e+00,-1.288532863881420197e-05,-1.838997826626578437e-05
2.072222222222222410e+00,-1.926983389290985087e-05,-2.235915029717121052e-05
2.073015873015873201e+00,-2.754522913125762596e-05,-2.854459846046485949e-05
2.073809523809523991e+00,-3.807193979153896421e-05,-3.655340611038243798e-05
2.074603174603174782e+00,-5.076609211833984700e-05,-4.543948970041243937e-05
2.075396825396825573e+00,-6.487293255557225868e-05,-5.381200899803784181e-05
2.076190476190476364e+00,-7.897189390995538886e-05,-6.004013287864936227e-05
2.076984126984127155e+00,-9.126119223161320180e-05,-6.252127319734675052e-05
2.077777777777777946e+00,-1.000645317272119261e-04,-5.997158810677168859e-05
2.078571428571428736e+00,-1.044060576993377423e-04,-5.169472619180575507e-05
2.079365079365079527e+00,-1.044493386554585097e-04,-3.778532828613702881e-05
2.080158730158730318e+00,-1.016139289508265312e-04,-1.922707070972799734e-05
2.080952380952381109e+00,-9.827028563929707911e-05,2.146897768607873291e-06
2.081746031746031900e+00,-9.705007248535148928e-05,2.384637352222995289e-05
2.082539682539682691e+00,-9.995269264172921750e-05,4.305623701426021039e-05
2.083333333333333481e+00,-1.075256858283046271e-04,5.705913108932299417e-05
2.084126984126984272e+00,-1.184001270498496767e-04,6.366930000968804818e-05
2.084920634920635063e+00,-1.293620323839915107e-04,6.159130928432240992e-05
2.085714285714285854e+00,-1.359751291540132339e-04,5.064049708679508921e-05
2.086507936507936645e+00,-1.336072433740974558e-04,3.180221788598204129e-05
2.087301587301587436e+00,-1.186105140843959883e-04,7.141063617409452087e-06
2.088095238095238226e+00,-8.938257101870092998e-05,-2.041454824975774462e-05
2.088888888888889017e+00,-4.706997391865722769e-05,-4.738868491519122064e-05
2.089682539682539808e+00,4.264228343316487700e-06,-7.015551513863959871e-05
2.090476190476190599e+00,5.810891445626455653e-05,-8.539475514938853911e-05
2.091269841269841390e+00,1.065992171762640062e-04,-9.056678365493368290e-05
2.092063492063492181e+00,1.420754417169068913e-04,-8.434809532918241363e-05
2.092857142857142971e+00,1.587816157559183777e-04,-6.694865937169290344e-05
2.093650793650793762e+00,1.542714942184927234e-04,-4.022549177852394506e-05
2.094444444444444553e+00,1.301115414952459966e-04,-7.521072922401740639e-06
2.095238095238095344e+00,9.164514072311957978e-05,2.680144800252629462e-05
2.096031746031746135e+00,4.685794316931239434e-05,5.808323118450710450e-05
2.096825396825396925e+00,4.654349147346861832e-06,8.222790851439233575e-05
2.097619047619047716e+00,-2.698418799994920387e-05,9.649666706418373553e-05
2.098412698412698507e+00,-4.248896197726163972e-05,1.000239842397948235e-04
2.099206349206349298e+00,-3.952043662342895509e-05,9.389474416259083493e-05
2.100000000000000089e+00,-1.902207510074564845e-05,8.075358915635157087e-05
2.100793650793650880e+00,1.535042290141727509e-05,6.407015533922164410e-05
2.101587301587301670e+00,5.814488121216785613e-05,4.728686401251984937e-05
2.102380952380952461e+00,1.030797288423137930e-04,3.308585814750216792e-05
2.103174603174603252e+00,1.438676808846342070e-04,2.294025457624409875e-05
2.103968253968254043e+00,1.748470052477548689e-04,1.700846750376977024e-05
2.104761904761904834e+00,1.914788278709828387e-04,1.433358871207100508e-05
2.105555555555555625e+00,1.907841324833618409e-04,1.324653480400851753e-05
2.106349206349206415e+00,1.717268722280105230e-04,1.184692502800375127e-05
2.107142857142857206e+00,1.354634603516523608e-04,8.445811470113024676e-06
2.107936507936507997e+00,8.534328913502203556e-05,1.891144140816353429e-06
2.108730158730158788e+00,2.658527789703388301e-05,-8.256215195830248139e-06
2.109523809523809579e+00,-3.435703800366578291e-05,-2.169102999128945698e-05
2.110317460317460370e+00,-9.064437750579608128e-05,-3.745296158322554078e-05
2.111111111111111160e+00,-1.359689500880892940e-04,-5.410438778136311406e-05
2.111904761904761951e+00,-1.653920937087346923e-04,-6.995706489099026714e-05
2.112698412698412742e+00,-1.759876607090047945e-04,-8.330153035106385435e-05
2.113492063492063533e+00,-1.672257931607201394e-04,-9.259614471845854973e-05
2.114285714285714324e+00,-1.410735209802048819e-04,-9.659139892507909771e-05
2.115079365079365115e+00,-1.018025216724165671e-04,-9.439478232723328679e-05
2.115873015873015905e+00,-5.548286759539717184e-05,-8.550728546099279519e-05
2.116666666666666696e+00,-9.143546790020029262e-06,-6.987051107081496105e-05
2.117460317460317487e+00,3.035956179435499229e-05,-4.794793889140663108e-05
2.118253968253968278e+00,5.761241928491932815e-05,-2.082868846750160352e-05
2.119047619047619069e+00,6.977818464608152784e-05,9.699104068849407137e-06
2.119841269841269860e+00,6.728150303696926564e-05,4.118202544398157718e-05
2.120634920634920650e+00,5.378308478147773999e-05,7.070485207222033637e-05
2.121428571428571441e+00,3.535657985782087625e-05,9.527396291071757234e-05
2.122222222222222232e+00,1.902120452286053400e-05,1.123224049852497352e-04
2.123015873015873023e+00,1.100866694969148425e-05,1.202221619966513247e-04
2.123809523809523814e+00,1.525338402463297671e-05,1.186642966330837248e-04
2.124603174603174605e+00,3.252990139974178119e-05,1.087815112680234425e-04
2.125396825396825395e+00,6.042872563666179265e-05,9.294199739340772257e-05
2.126190476190476186e+00,9.405394768447302616e-05,7.423286070459459525e-05
2.126984126984126977e+00,1.271005871999144243e-04,5.575397066357104520e-05
2.127777777777777768e+00,1.529548382490313713e-04,3.991878896727605230e-05
2.128571428571428559e+00,1.656375622712690681e-04,2.796784903503866051e-05
2.129365079365079350e+00,1.606122174009150868e-04,1.983060671994868012e-05
2.130158730158730140e+00,1.355343594825791009e-04,1.435024007323862892e-05
2.130952380952380931e+00,9.090943305808366244e-05,9.768183148243367165e-06
2.131746031746031722e+00,3.047042908957229914e-05,4.298847391588805526e-06
2.132539682539682513e+00,-3.897163905372126022e-05,-3.374912345935109411e-06
2.133333333333333304e+00,-1.083587481368631782e-04,-1.380503529974455149e-05
2.134126984126984095e+00,-1.678518829063628504e-04,-2.672568444254449298e-05
2.134920634920634885e+00,-2.086650957157677993e-04,-4.121359997610973515e-05
2.135714285714285676e+00,-2.248433552468150803e-04,-5.597069128629870625e-05
2.136507936507936467e+00,-2.145234237963569951e-04,-6.961694430864566127e-05
2.137301587301587258e+00,-1.803251476855876961e-04,-8.090692534042562257e-05
2.138095238095238049e+00,-1.287492671262281164e-04,-8.883880161172067911e-05
2.138888888888888840e+00,-6.873159262451250886e-05,-9.267889805171080492e-05
2.139682539682539630e+00,-9.727206417082747179e-06,-9.195086189628237097e-05
2.140476190476190421e+00,4.019090763845479825e-05,-8.643124038665055337e-05
2.141269841269841212e+00,7.575033329434101748e-05,-7.616873894113153007e-05
2.142063492063492003e+00,9.507891506825523259e-05,-6.152448906592586191e-05
2.142857142857142794e+00,9.937903332260372149e-05,-4.322285075580093166e-05
2.143650793650793585e+00,9.184267916532663160e-05,-2.239575418708711214e-05
2.144444444444444375e+00,7.619932943007195981e-05,-5.882295435618796798e-07
2.145238095238095166e+00,5.538420510322360685e-05,2.032138120855689914e-05
2.146031746031745957e+00,3.074981323538198959e-05,3.832176747760479178e-05
2.146825396825396748e+00,2.045727263562701840e-06,5.157722204835565909e-05
2.147619047619047539e+00,-3.187230287862999540e-05,5.877085476420872823e-05
2.148412698412698330e+00,-7.188448913035520187e-05,5.937678821370552247e-05
2.149206349206349120e+00,-1.174233251446420899e-04,5.377700992030153595e-05
2.149999999999999911e+00,-1.656917983106055649e-04,4.319585613473077214e-05
2.150793650793650702e+00,-2.115803862899967114e-04,2.947884907253844175e-05
2.151587301587301493e+00,-2.483535090138051034e-04,1.476878395344684342e-05
2.152380952380952284e+00,-2.689364785234288910e-04,1.136731123228351386e-06
2.153174603174603075e+00,-2.674706923411917679e-04,-9.771597091062052257e-06
2.153968253968253865e+00,-2.407529403254595618e-04,-1.700495997186074004e-05
2.154761904761904656e+00,-1.892074825309781661e-04,-2.041955950701436387e-05
2.155555555555555447e+00,-1.171280690417480477e-04,-2.058919382853224015e-05
2.156349206349206238e+00,-3.207454279992216144e-05,-1.852677090497700902e-05
2.157142857142857029e+00,5.648550003603482108e-05,-1.530621741932140651e-05
2.157936507936507819e+00,1.389821627655893690e-04,-1.171833703510652782e-05
2.158730158730158610e+00,2.075393798767712539e-04,-8.076973419419178980e-06
2.159523809523809401e+00,2.572892369357212693e-04,-4.222989870719464646e-06
2.160317460317460192e+00,2.868600025406745947e-04,3.039078998322909491e-07
2.161111111111110983e+00,2.979284036041812017e-04,6.001055367843462286e-06
2.161904761904761774e+00,2.940087481456594726e-04,1.312594550681661990e-05
2.162698412698412564e+00,2.789051193049816657e-04,2.146799843512371811e-05
2.163492063492063355e+00,2.553800242486571029e-04,3.021368336857546222e-05
2.164285714285714146e+00,2.245108408652147548e-04,3.794080842151706547e-05
2.165079365079364937e+00,1.859268755908363756e-04,4.276758138457719842e-05
2.165873015873015728e+00,1.387751981571978160e-04,4.265991040254332999e-05
2.166666666666666519e+00,8.301247128638045624e-05,3.586425883479187098e-05
2.167460317460317309e+00,2.054073504599337788e-05,2.139190972419179645e-05
2.168253968253968100e+00,-4.422630846423987526e-05,-5.504465048415695645e-07
2.169047619047618891e+00,-1.046199274564883948e-04,-2.829652652034616680e-05
2.169841269841269682e+00,-1.528305591029536982e-04,-5.871761911276190520e-05
2.170634920634920473e+00,-1.816634830032847869e-04,-8.753615513611220521e-05
2.171428571428571264e+00,-1.864952635157026220e-04,-1.099493653760642842e-04
2.172222222222222054e+00,-1.668688955149911840e-04,-1.214775738887485508e-04
2.173015873015872845e+00,-1.272022956716462982e-04,-1.188736198836734699e-04
2.173809523809523636e+00,-7.629006391669328451e-05,-1.008847187698480889e-04
2.174603174603174427e+00,-2.561090787529076413e-05,-6.867168335434879517e-05
2.175396825396825218e+00,1.318291261077793817e-05,-2.576441195506946224e-05
2.176190476190476009e+00,3.094595212689847159e-05,2.245745992199709533e-05
2.176984126984126799e+00,2.316184721665490138e-05,6.965858793340656580e-05
2.177777777777777590e+00,-9.069942204401289026e-06,1.096320160796877624e-04
2.178571428571428381e+00,-5.941832892784139802e-05,1.373471112959516330e-04
2.179365079365079172e+00,-1.178947675782532838e-04,1.497433054507926764e-04
2.180158730158729963e+00,-1.731043008478803957e-04,1.461096746208763670e-04
2.180952380952380754e+00,-2.145307230684180685e-04,1.279900998796491742e-04
2.181746031746031544e+00,-2.343055869975048573e-04,9.867511084871448445e-05
2.182539682539682335e+00,-2.281610119152019248e-04,6.244920951668718706e-05
2.183333333333333126e+00,-1.955697813332608241e-04,2.381339662591175439e-05
2.184126984126983917e+00,-1.393173643028443689e-04,-1.312837433882723804e-05
2.184920634920634708e+00,-6.483549921381034367e-05,-4.502657536005750226e-05
2.185714285714285499e+00,2.046634653829856564e-05,-6.940657334154958999e-05
2.186507936507936289e+00,1.078346742453820584e-04,-8.464687506367260766e-05
2.187301587301587080e+00,1.879093251087436299e-04,-8.992503822617732719e-05
2.188095238095238315e+00,2.517375282964182549e-04,-8.520344666637405767e-05
2.188888888888889106e+00,2.920888163040851718e-04,-7.126306666541751538e-05
2.189682539682539897e+00,3.048306986493006508e-04,-4.973370192554772164e-05
2.190476190476190688e+00,2.899095353230497557e-04,-2.304139343349315651e-05
2.191269841269841478e+00,2.514855830291685859e-04,5.786292607653274109e-06
2.192063492063492269e+00,1.970420697845543575e-04,3.345712443406684587e-05
2.192857142857143060e+00,1.356894107529088263e-04,5.683093223148217741e-05
2.193650793650793851e+00,7.619291479043401451e-05,7.332480380634421658e-05
2.194444444444444642e+00,2.531609189967294323e-05,8.122677319564237019e-05
2.195238095238095433e+00,-1.310426186888299310e-05,7.987121752064865049e-05
2.196031746031746223e+00,-3.823673112317099531e-05,6.966338397477621000e-05
2.196825396825397014e+00,-5.165834188444895248e-05,5.196710330786357833e-05
2.197619047619047805e+00,-5.641398126621904039e-05,2.888860865937242347e-05
2.198412698412698596e+00,-5.606909714328168782e-05,2.999912103787935279e-06
2.199206349206349387e+00,-5.398197759713356520e-05,-2.295520656712699632e-05
2.200000000000000178e+00,-5.286819200981018776e-05,-4.634012250690278177e-05
2.200793650793650968e+00,-5.459886959444042284e-05,-6.487054170641073339e-05
2.201587301587301759e+00,-6.011315731313864947e-05,-7.681647536127706572e-05
2.202380952380952550e+00,-6.935139247926716533e-05,-8.115441258822868071e-05
2.203174603174603341e+00,-8.120311329325472990e-05,-7.766336088237330623e-05
2.203968253968254132e+00,-9.354806086581251841e-05,-6.695786460434932706e-05
2.204761904761904923e+00,-1.034865099858543194e-04,-5.044735314437015793e-05
2.205555555555555713e+00,-1.077959288058363672e-04,-3.020632103575888829e-05
2.206349206349206504e+00,-1.035583122212985793e-04,-8.744499194972345674e-06
2.207142857142857295e+00,-8.883270725479873193e-05,1.131249796626565255e-05
2.207936507936508086e+00,-6.322477409965406362e-05,2.759075279148999048e-05
2.208730158730158877e+00,-2.822065096891367567e-05,3.831775321351702185e-05
2.209523809523809668e+00,1.281128280745191881e-05,4.258209836527408293e-05
2.210317460317460458e+00,5.499941640058585965e-05,4.044920326977444441e-05
2.211111111111111249e+00,9.271604954262829856e-05,3.291563296970902847e-05
2.211904761904762040e+00,1.205937832048480785e-04,2.172267408671264334e-05
2.212698412698412831e+00,1.346062198497557829e-04,9.072069540604927186e-06
2.213492063492063622e+00,1.329328824890654598e-04,-2.710157504971061773e-06
2.214285714285714413e+00,1.163513800276092056e-04,-1.152307262613151654e-05
2.215079365079365203e+00,8.803411227643216099e-05,-1.581951955460725857e-05
2.215873015873015994e+00,5.281224096506633629e-05,-1.487472148923453537e-05
2.216666666666666785e+00,1.612517128218621427e-05,-8.943052897985198950e-06
2.217460317460317576e+00,-1.705505275332943357e-05,7.512814637392831578e-07
2.218253968253968367e+00,-4.306360230706703215e-05,1.221950641295861644e-05
2.219047619047619158e+00,-5.999076454994458068e-05,2.308781135485359041e-05
2.219841269841269948e+00,-6.771125534148438225e-05,3.107164221638333894e-05
2.220634920634920739e+00,-6.757300161386012619e-05,3.442908186488164595e-05
2.221428571428571530e+00,-6.187850133437449243e-05,3.228011640256831877e-05
2.222222222222222321e+00,-5.329850391172582678e-05,2.471741546354607087e-05
2.223015873015873112e+00,-4.433177967531484271e-05,1.269454400434607747e-05
2.223809523809523903e+00,-3.688681090016830791e-05,-2.258587173146320514e-06
2.224603174603174693e+00,-3.202858584722728295e-05,-1.839447107454700935e-05
2.225396825396825484e+00,-2.991145844003364484e-05,-3.406739107115891316e-05
2.226190476190476275e+00,-2.989905791490674302e-05,-4.792733503696001849e-05
2.226984126984127066e+00,-3.084407470778100912e-05,-5.896105896310046131e-05
2.227777777777777857e+00,-3.146457468991397928e-05,-6.641627974760219472e-05
2.228571428571428648e+00,-3.072182984974181335e-05,-6.968645620526285340e-05
2.229365079365079438e+00,-2.809424273076661403e-05,-6.823935118753788047e-05
2.230158730158730229e+00,-2.366507589850097958e-05,-6.164445062831508013e-05
2.230952380952381020e+00,-1.800077793547700638e-05,-4.970674635148536317e-05
2.231746031746031811e+00,-1.187735722796059460e-05,-3.266731276063981936e-05
2.232539682539682602e+00,-5.977278332946538245e-06,-1.140021260189888407e-05
2.233333333333333393e+00,-6.843900330811478903e-07,1.247494570895984078e-05
2.234126984126984183e+00,3.959370620648155848e-06,3.663785127817077963e-05
2.234920634920634974e+00,8.157593913946092483e-06,5.831688699252633192e-05
2.235714285714285765e+00,1.219507523854996123e-05,7.474023689547111408e-05
2.236507936507936556e+00,1.627677923129779169e-05,8.371310248627707694e-05
2.237301587301587347e+00,2.041671140634696734e-05,8.417245787005964966e-05
2.238095238095238138e+00,2.439922685326454787e-05,7.653758961623891932e-05
2.238888888888888928e+00,2.781750616917706958e-05,6.271206292684448598e-05
2.239682539682539719e+00,3.017873224058366971e-05,4.569483944697844770e-05
2.240476190476190510e+00,3.104912084905174724e-05,2.888434330023285243e-05
2.241269841269841301e+00,3.019581767094698088e-05,1.526175629398173733e-05
2.242063492063492092e+00,2.767642435987476883e-05,6.685094414065663708e-06
2.242857142857142883e+00,2.384163454924499454e-05,3.497574872123862570e-06
2.243650793650793673e+00,1.925042538187189846e-05,4.557471854309796114e-06
2.244444444444444464e+00,1.453206940930959102e-05,7.662501404381859732e-06
2.245238095238095255e+00,1.024431779361685002e-05,1.021743085408224024e-05
2.246031746031746046e+00,6.767077254764969691e-06,9.926405186798473732e-06
2.246825396825396837e+00,4.247875733932576900e-06,5.309091896289447203e-06
2.247619047619047628e+00,2.596559437799665569e-06,-4.067611319410669425e-06
2.248412698412698418e+00,1.520649794275725419e-06,-1.763145818605808213e-05
2.249206349206349209e+00,5.957375639227790409e-07,-3.402400686832574407e-05
2.250000000000000000e+00,-6.332656677048442898e-07,-5.138300977329382703e-05
2.250793650793650791e+00,-2.531521403571116260e-06,-6.761442184187673083e-05
2.251587301587301582e+00,-5.259265681812159019e-06,-8.063673193378511110e-05
2.252380952380952372e+00,-8.696165290649427720e-06,-8.860936377930515959e-05
2.253174603174603163e+00,-1.243351708158806032e-05,-9.014723706667690658e-05
2.253968253968253954e+00,-1.584399023063660431e-05,-8.449986805700056682e-05
2.254761904761904745e+00,-1.821516273255094286e-05,-7.166546833247693809e-05
2.255555555555555536e+00,-1.891423612072218945e-05,-5.242371111596485589e-05
2.256349206349206327e+00,-1.754204544066035495e-05,-2.828891342809594205e-05
2.257142857142857117e+00,-1.403604835128740814e-05,-1.392572408622814097e-06
2.257936507936507908e+00,-8.693401958973523096e-06,2.570112368820104903e-05
2.258730158730158699e+00,-2.105341190150402247e-06,5.025007234314206474e-05
2.259523809523809490e+00,4.978535590061561925e-06,6.965703950902861778e-05
2.260317460317460281e+00,1.181009121477110694e-05,8.183420601860838517e-05
2.261111111111111072e+00,1.776932536981499253e-05,8.554986673426730117e-05
2.261904761904761862e+00,2.241815703312640890e-05,8.067530781641896989e-05
2.262698412698412653e+00,2.548071448184617083e-05,6.825645313148577574e-05
2.263492063492063444e+00,2.678638898710543258e-05,5.037292400357874041e-05
2.264285714285714235e+00,2.622596183579566873e-05,2.980251328760026951e-05
2.265079365079365026e+00,2.375721060694922142e-05,9.559651870598313828e-06
2.265873015873015817e+00,1.946178271555790739e-05,-7.596063318669488196e-06
2.266666666666666607e+00,1.361605253012960401e-05,-1.958630694502766503e-05
2.267460317460317398e+00,6.718659155672984514e-06,-2.530188915525324051e-05
2.268253968253968189e+00,-5.650511991529498005e-07,-2.470849939330577939e-05
2.269047619047618980e+00,-7.532121273045316940e-06,-1.876103948261085422e-05
2.269841269841269771e+00,-1.358694258515923382e-05,-9.155489942736918653e-06
2.270634920634920562e+00,-1.833349706005102254e-05,2.018526633426537177e-06
2.271428571428571352e+00,-2.158084033971241741e-05,1.264555549016609279e-05
2.272222222222222143e+00,-2.328199126151002182e-05,2.090248074742573223e-05
2.273015873015872934e+00,-2.346303690298756154e-05,2.548221068258778088e-05
2.273809523809523725e+00,-2.219681280365725753e-05,2.570623149221861066e-05
2.274603174603174516e+00,-1.963862744161431765e-05,2.153346670166861559e-05
2.275396825396825307e+00,-1.609466360282293246e-05,1.349086127458738326e-05
2.276190476190476097e+00,-1.206541043573312351e-05,2.559953391424561781e-06
2.276984126984126888e+00,-8.211955742363021455e-06,-9.950393063650287085e-06
2.277777777777777679e+00,-5.227944598469797246e-06,-2.253072749536468624e-05
2.278571428571428470e+00,-3.647956049587959633e-06,-3.360248760078855682e-05
2.279365079365079261e+00,-3.662108084571994731e-06,-4.167201851060477533e-05
2.280158730158730052e+00,-5.015512670619559808e-06,-4.552056989454354133e-05
2.280952380952380842e+00,-7.043339455966878420e-06,-4.441936479666392144e-05
2.281746031746031633e+00,-8.844219988071276171e-06,-3.832448214014496843e-05
2.282539682539682424e+00,-9.548776939103248497e-06,-2.798232241940157563e-05
2.283333333333333215e+00,-8.605288442150467579e-06,-1.488126678317437744e-05
2.284126984126984006e+00,-5.985158273554956965e-06,-1.024005956448832452e-06
2.284920634920634797e+00,-2.220229291100877804e-06,1.144460417173840655e-05
2.285714285714285587e+00,1.767107215837510823e-06,2.066459463464389340e-05
2.286507936507936378e+00,5.002476027345258603e-06,2.543135133611962542e-05
2.287301587301587169e+00,6.852763976974740565e-06,2.541676370606212030e-05
2.288095238095237960e+00,7.321264197417221469e-06,2.119361511299150248e-05
2.288888888888888751e+00,7.113316764221784963e-06,1.406759170291600469e-05
2.289682539682539542e+00,7.421666489462862332e-06,5.766714455367787437e-06
2.290476190476190332e+00,9.490410484353966738e-06,-1.930873385037796226e-06
2.291269841269841123e+00,1.410957764656886139e-05,-7.540721334080636011e-06
2.292063492063491914e+00,2.122970260680533323e-05,-1.011444415924729792e-05
2.292857142857142705e+00,2.984809243245837464e-05,-9.344842176899319846e-06
2.293650793650793496e+00,3.821651355896494098e-05,-5.539456092948801876e-06
2.294444444444444287e+00,4.429749876066267324e-05,5.035374716286105784e-07
2.295238095238095077e+00,4.631157075895638465e-05,7.675818392724843432e-06
2.296031746031745868e+00,4.320544090186293574e-05,1.476181576878494912e-05
2.296825396825396659e+00,3.492129496262667718e-05,2.063921374534602132e-05
2.297619047619047450e+00,2.242136838906926756e-05,2.445429372342327592e-05
2.298412698412698241e+00,7.488390251815765208e-06,2.574466555651455321e-05
2.299206349206349032e+00,-7.631690548445072765e-06,2.448093207493169112e-05
2.299999999999999822e+00,-2.065613419613827163e-05,2.101346016071489492e-05
2.300793650793650613e+00,-2.967310896892251719e-05,1.594071394056012665e-05
2.301587301587301404e+00,-3.346036471040087184e-05,9.945440155821172790e-06
2.302380952380952195e+00,-3.167065794924921456e-05,3.655178278395478351e-06
2.303174603174602986e+00,-2.486741169118462637e-05,-2.432123930477550146e-06
2.303968253968253777e+00,-1.441949181287921355e-05,-7.948894421307297855e-06
2.304761904761904567e+00,-2.284759579771517988e-06,-1.260951601611322693e-05
2.305555555555555358e+00,9.275870672590999359e-06,-1.615637836065642372e-05
2.306349206349206149e+00,1.801326853839834772e-05,-1.834176333994386616e-05
2.307142857142856940e+00,2.200432474498541731e-05,-1.896417580090419575e-05
2.307936507936507731e+00,1.994522837060654362e-05,-1.794567632018681359e-05
2.308730158730158522e+00,1.140118831420764331e-05,-1.541172010760243562e-05
2.309523809523809312e+00,-3.021641085400817118e-06,-1.172923655135696043e-05
2.310317460317460103e+00,-2.162731623900324387e-05,-7.473926674178782942e-06
2.311111111111110894e+00,-4.175006439378114499e-05,-3.326436979411433151e-06
2.311904761904761685e+00,-6.007195314831984814e-05,7.214468692112510389e-08
2.312698412698412920e+00,-7.313010348520785633e-05,2.254238018405605119e-06
2.313492063492063711e+00,-7.795194785855035587e-05,2.998772296329571489e-06
2.314285714285714501e+00,-7.270197078990140924e-05,2.319991878839208263e-06
2.315079365079365292e+00,-5.718779474051384986e-05,3.907801326437957146e-07
2.315873015873016083e+00,-3.307616320731828559e-05,-2.549219547164557277e-06
2.316666666666666874e+00,-3.719542592466725793e-06,-6.249716550598221003e-06
2.317460317460317665e+00,2.641331422887036062e-05,-1.044762745669274357e-05
2.318253968253968456e+00,5.259741856605447478e-05,-1.482046781677854775e-05
2.319047619047619246e+00,7.080342841946046350e-05,-1.893138677733890161e-05
2.319841269841270037e+00,7.850642116906941120e-05,-2.220318739970027433e-05
2.320634920634920828e+00,7.515530220580434807e-05,-2.394506315378171245e-05
2.321428571428571619e+00,6.220521767497910726e-05,-2.343726463106859714e-05
2.322222222222222410e+00,4.273406314967421169e-05,-2.006309940977374861e-05
2.323015873015873201e+00,2.075989289179965396e-05,-1.346730427560612338e-05
2.323809523809523991e+00,4.241202138791133081e-07,-3.712622593621384155e-06
2.324603174603174782e+00,-1.479201110465981118e-05,8.600003634096405143e-06
2.325396825396825573e+00,-2.267566888952557771e-05,2.228555383323282591e-05
2.326190476190476364e+00,-2.261348855071314474e-05,3.563720685447172070e-05
2.326984126984127155e+00,-1.559547209420311152e-05,4.661702544572736423e-05
2.327777777777777946e+00,-3.904127492850829999e-06,5.317170976581086557e-05
2.328571428571428736e+00,9.434504936705340595e-06,5.363767735307964661e-05
2.329365079365079527e+00,2.130995179066426349e-05,4.716397261249819216e-05
2.330158730158730318e+00,2.914577167329097419e-05,3.405145126945197185e-05
2.330952380952381109e+00,3.134339397772978845e-05,1.589360290371460169e-05
2.331746031746031900e+00,2.747271165712144740e-05,-4.576218595590063609e-06
2.332539682539682691e+00,1.820633179937892815e-05,-2.396156112753652885e-05
2.333333333333333481e+00,5.059414165711575260e-06,-3.893331784613878735e-05
2.334126984126984272e+00,-9.973208739849164200e-06,-4.704554388772190255e-05
2.334920634920635063e+00,-2.479819600741458243e-05,-4.741630290355160774e-05
2.335714285714285854e+00,-3.756290828272435223e-05,-4.106592735489490899e-05
2.336507936507936645e+00,-4.691184195421842001e-05,-3.077623917243328065e-05
2.337301587301587436e+00,-5.212981022227435843e-05,-2.044900940805915386e-05
2.338095238095238226e+00,-5.315379557912607429e-05,-1.408139075176831351e-05
2.338888888888889017e+00,-5.045872209787333440e-05,-1.460864236789828378e-05
2.339682539682539808e+00,-4.485258103239330411e-05,-2.294314963818534398e-05
2.340476190476190599e+00,-3.724122002302052576e-05,-3.751737334235623686e-05
2.341269841269841390e+00,-2.843103298093053004e-05,-5.450449368250302517e-05
2.342063492063492181e+00,-1.902269144549332489e-05,-6.868736131695186401e-05
2.342857142857142971e+00,-9.414696774326173953e-06,-7.475222333220122130e-05
2.343650793650793762e+00,1.041757628514192308e-07,-6.866450461632544219e-05
2.344444444444444553e+00,9.224005701765494530e-06,-4.876748448821274150e-05
2.345238095238095344e+00,1.750609587680432709e-05,-1.632661452132644326e-05
2.346031746031746135e+00,2.435198341489708680e-05,2.460510891020943952e-05
2.346825396825396925e+00,2.907634319684023738e-05,6.795020082266638303e-05
2.347619047619047716e+00,3.107173078903540677e-05,1.068058269601368477e-04
2.348412698412698507e+00,3.001221138782551778e-05,1.348128293619403129e-04
2.349206349206349298e+00,2.601794869447312316e-05,1.474181274699238751e-04
2.350000000000000089e+00,1.970884900406846268e-05,1.427805642162371653e-04
2.350793650793650880e+00,1.211483848942436160e-05,1.221229186495883189e-04
2.351587301587301670e+00,4.468237443115073908e-06,8.942949894722367976e-05
2.352380952380952461e+00,-2.048975906568959912e-06,5.054127627758074474e-05
2.353174603174603252e+00,-6.520305878644267237e-06,1.186985491959870079e-05
2.353968253968254043e+00,-8.419802687749486464e-06,-2.094300580839675866e-05
2.354761904761904834e+00,-7.639295528939467686e-06,-4.410505669562190335e-05
2.355555555555555625e+00,-4.439868293091516524e-06,-5.627986436533207067e-05
2.356349206349206415e+00,6.419921690799193850e-07,-5.863063366264148875e-05
2.357142857142857206e+00,6.903590300263736655e-06,-5.431420513495409640e-05
2.357936507936507997e+00,1.357288765038206944e-05,-4.752576006352764263e-05
2.358730158730158788e+00,1.987639464161684107e-05,-4.228709783244134329e-05
2.359523809523809579e+00,2.508276619746904862e-05,-4.125732086625070544e-05
2.360317460317460370e+00,2.854337048751777806e-05,-4.488237420423099176e-05
2.361111111111111160e+00,2.974929856252786966e-05,-5.114538053347495545e-05
2.361904761904761951e+00,2.840907944166465055e-05,-5.602676385508042681e-05
2.362698412698412742e+00,2.453532019628045806e-05,-5.458034206371909506e-05
2.363492063492063533e+00,1.851527659492036991e-05,-4.235492019350112404e-05
2.364285714285714324e+00,1.112954343069839488e-05,-1.679562968873364476e-05
2.365079365079365115e+00,3.481063123524003556e-06,2.174026596176641628e-05
2.365873015873015905e+00,-3.187114647241394045e-06,6.963095209084704828e-05
2.366666666666666696e+00,-7.770975311750161731e-06,1.204181343075069949e-04
2.367460317460317487e+00,-9.621525759004622330e-06,1.659271275088451561e-04
2.368253968253968278e+00,-8.800241035667608422e-06,1.978020717465095728e-04
2.369047619047619069e+00,-6.168923961795844544e-06,2.090845396097641587e-04
2.369841269841269860e+00,-3.245137924293518085e-06,1.954978353276424401e-04
2.370634920634920650e+00,-1.828932020059046536e-06,1.562266218979501341e-04
2.371428571428571441e+00,-3.491830028816700959e-06,9.412674658973827380e-05
2.372222222222222232e+00,-9.078918771528814554e-06,1.540240513067041460e-05
2.373015873015873023e+00,-1.838345207371379418e-05,-7.116792149389330807e-05
2.373809523809523814e+00,-3.010533129480302345e-05,-1.553613225595654212e-04
2.374603174603174605e+00,-4.211632571752506923e-05,-2.268790073283840551e-04
2.375396825396825395e+00,-5.195793694193698303e-05,-2.767953073213293906e-04
2.376190476190476186e+00,-5.742701889470400910e-05,-2.988858721036817328e-04
2.376984126984126977e+00,-5.708204976660972426e-05,-2.906127342472082154e-04
2.377777777777777768e+00,-5.053336812651652610e-05,-2.535638452310763711e-04
2.378571428571428559e+00,-3.845203353163980319e-05,-1.932201991732615390e-04
2.379365079365079350e+00,-2.232131724198385442e-05,-1.180522567919332314e-04
2.380158730158730140e+00,-4.033840956960422861e-06,-3.809720541981620554e-05
2.380952380952380931e+00,1.452042680133691080e-05,3.670769105482475940e-05
2.381746031746031722e+00,3.174289691576211506e-05,9.809996228144147101e-05
2.382539682539682513e+00,4.642683531174846012e-05,1.406599855687149739e-04
2.383333333333333304e+00,5.769685103411252309e-05,1.623588214289555149e-04
2.384126984126984095e+00,6.488230901614736696e-05,1.644296189627955488e-04
2.384920634920634885e+00,6.742899339537639439e-05,1.506645279482403074e-04
2.385714285714285676e+00,6.491088943228586546e-05,1.263412955549216032e-04
2.386507936507936467e+00,5.714301770572383462e-05,9.701418359746947898e-05
2.387301587301587258e+00,4.434726926780098926e-05,6.739389103983755940e-05
2.388095238095238049e+00,2.729859945077370292e-05,4.052350522248857848e-05
2.388888888888888840e+00,7.379372636389198374e-06,1.742553629843042532e-05
2.389682539682539630e+00,-1.350583102794147578e-05,-2.681730839632081230e-06
2.390476190476190421e+00,-3.315852249952888972e-05,-2.163250228413754990e-05
2.391269841269841212e+00,-4.941269157101583402e-05,-4.121962381057085257e-05
2.392063492063492003e+00,-6.048134817148065914e-05,-6.208564084284004276e-05
2.392857142857142794e+00,-6.523985614594931799e-05,-8.297787763571163808e-05
2.393650793650793585e+00,-6.338373391902040507e-05,-1.006742341583795271e-04
2.394444444444444375e+00,-5.543668617931182563e-05,-1.106844851205905623e-04
2.395238095238095166e+00,-4.262492303058664639e-05,-1.085611966650053457e-04
2.396031746031745957e+00,-2.666062903752947473e-05,-9.142870364538893690e-05
2.396825396825396748e+00,-9.483932676831390262e-06,-5.925463135971420302e-05
2.397619047619047539e+00,6.994936878556934206e-06,-1.546299751622023778e-05
2.398412698412698330e+00,2.112224792393812908e-05,3.333226712972761808e-05
2.399206349206349120e+00,3.167252231760886671e-05,7.847297538226064018e-05
2.399999999999999911e+00,3.794790470087970998e-05,1.110582046338755248e-04
2.400793650793650702e+00,3.979771961604624815e-05,1.239937052302652752e-04
2.401587301587301493e+00,3.756646460706890810e-05,1.137931752664854879e-04
2.402380952380952284e+00,3.199351058020309332e-05,8.168371372383262255e-05
2.403174603174603075e+00,2.409381083733294648e-05,3.372855379926383202e-05
2.403968253968253865e+00,1.504276917223837771e-05,-2.011047387134827090e-05
2.404761904761904656e+00,6.072737643994519774e-06,-6.783400729269630121e-05
2.405555555555555447e+00,-1.629699511908997286e-06,-9.784845821288297647e-05
2.406349206349206238e+00,-7.045667724832283948e-06,-1.014841290528572604e-04
2.407142857142857029e+00,-9.472793512534551837e-06,-7.501247880034619237e-05
2.407936507936507819e+00,-8.674892371157715110e-06,-2.066712124208785220e-05
2.408730158730158610e+00,-4.973702378120914236e-06,5.360254375770848959e-05
2.409523809523809401e+00,7.781022352920894324e-07,1.356115642336384083e-04
2.410317460317460192e+00,7.363336850251947335e-06,2.113262970959387953e-04
2.411111111111110983e+00,1.346653611649343468e-05,2.676255937118637027e-04
2.411904761904761774e+00,1.795715214099027408e-05,2.948276091246641753e-04
2.412698412698412564e+00,2.010472149773730017e-05,2.884336924905053627e-04
2.413492063492063355e+00,1.967528982411235198e-05,2.497283782358568111e-04
2.414285714285714146e+00,1.690439035695875537e-05,1.851553879753993102e-04
2.415079365079364937e+00,1.237581746907620999e-05,1.046908737705610750e-04
2.415873015873015728e+00,6.849865928027439968e-06,1.966529081312063022e-05
2.416666666666666519e+00,1.085889437883303706e-06,-5.942254905037260525e-05
2.417460317460317309e+00,-4.301298715850783933e-06,-1.246171650718268839e-04
2.418253968253968100e+00,-8.922754937694626996e-06,-1.714415664307400000e-04
2.419047619047618891e+00,-1.262363630902538900e-05,-1.989835904423421157e-04
2.419841269841269682e+00,-1.542845949246121937e-05,-2.092700994372478582e-04
2.420634920634920473e+00,-1.745091770734474160e-05,-2.062038212938549638e-04
2.421428571428571264e+00,-1.880276297063617418e-05,-1.943820237181120251e-04
2.422222222222222054e+00,-1.953044143117869036e-05,-1.780706220476494818e-04
2.423015873015872845e+00,-1.959385120868175031e-05,-1.605034090332290722e-04
2.423809523809523636e+00,-1.888668212763396098e-05,-1.435616316693589937e-04
2.424603174603174427e+00,-1.728767870914539939e-05,-1.278008795033032103e-04
2.425396825396825218e+00,-1.472669155940701071e-05,-1.127402076002387385e-04
2.426190476190476009e+00,-1.124590975673980239e-05,-9.730558948192737318e-05
2.426984126984126799e+00,-7.035526628128752660e-06,-8.031817092003154513e-05
2.427777777777777590e+00,-2.428300091906067033e-06,-6.093215938093729322e-05
2.428571428571428381e+00,2.149379845481967002e-06,-3.895250706276902011e-05
2.429365079365079172e+00,6.256521242134164006e-06,-1.499415019260408876e-05
2.430158730158729963e+00,9.522667444533477831e-06,9.522557382023123031e-06
2.430952380952380754e+00,1.171338175257546850e-05,3.251862666377093347e-05
2.431746031746031544e+00,1.275655284233316750e-05,5.150877287878510277e-05
2.432539682539682335e+00,1.272216693970418461e-05,6.392009585491460690e-05
2.433333333333333126e+00,1.176379097327597784e-05,6.744531106689334241e-05
2.434126984126983917e+00,1.004479699876367841e-05,6.041090022588624619e-05
2.434920634920634708e+00,7.680120557226525715e-06,4.214491142876688567e-05
2.435714285714285499e+00,4.719502636281897768e-06,1.331173327194395305e-05
2.436507936507936289e+00,1.180523252139790536e-06,-2.385441917040432834e-05
2.437301587301587080e+00,-2.883063528322725716e-06,-6.551227606684671592e-05
2.438095238095238315e+00,-7.308659169771345064e-06,-1.064568462462610121e-04
2.438888888888889106e+00,-1.178121303395082933e-05,-1.406756465050046324e-04
2.439682539682539897e+00,-1.584053564300674663e-05,-1.621778621254672641e-04
2.440476190476190688e+00,-1.894210432583961611e-05,-1.659867058150284321e-04
2.441269841269841478e+00,-2.055553647850378421e-05,-1.491253511786881593e-04
2.442063492063492269e+00,-2.027476017113869898e-05,-1.113798420410551062e-04
2.442857142857143060e+00,-1.791435158336321046e-05,-5.561251930811159073e-05
2.443650793650793851e+00,-1.357322593356720107e-05,1.253145209398208723e-05
2.444444444444444642e+00,-7.652972299256692308e-06,8.552158407100417747e-05
2.445238095238095433e+00,-8.217131412777022162e-07,1.552463903465142237e-04
2.446031746031746223e+00,6.079445261596019334e-06,2.143974554651519905e-04
2.446825396825397014e+00,1.217679106969451168e-05,2.576003549006586390e-04
2.447619047619047805e+00,1.672301102984700066e-05,2.820572672883942173e-04
2.448412698412698596e+00,1.923470963725564466e-05,2.876096652706400399e-04
2.449206349206349387e+00,1.957091204570346051e-05,2.762799260685367309e-04
2.450000000000000178e+00,1.793300330831388819e-05,2.514815229533390122e-04
2.450793650793650968e+00,1.479165018154631062e-05,2.171568334228952100e-04
2.451587301587301759e+00,1.076662514145153379e-05,1.770762270080170086e-04
2.452380952380952550e+00,6.493955523755410786e-06,1.344300000944973796e-04
2.453174603174603341e+00,2.511945194868127747e-06,9.172313595267833045e-05
2.453968253968254132e+00,-8.122163577707651178e-07,5.088842684798932536e-05
2.454761904761904923e+00,-3.306359020226509964e-06,1.348461584608522816e-05
2.455555555555555713e+00,-4.971768983749415173e-06,-1.915087222482545810e-05
2.456349206349206504e+00,-5.930395931928736649e-06,-4.587512793006242809e-05
2.457142857142857295e+00,-6.360330589222082520e-06,-6.584820716078762601e-05
2.457936507936508086e+00,-6.438467146695069623e-06,-7.872472563651669488e-05
2.458730158730158877e+00,-6.303307023100368350e-06,-8.483861208457017908e-05
2.459523809523809668e+00,-6.041746906650891251e-06,-8.528090368083222862e-05
2.460317460317460458e+00,-5.695382001745027273e-06,-8.179719126548737861e-05
2.461111111111111249e+00,-5.277573843738538369e-06,-7.649563829079370598e-05
2.461904761904762040e+00,-4.792268021265739420e-06,-7.143316952831862108e-05
2.462698412698412831e+00,-4.247182343305096795e-06,-6.819780239877315552e-05
2.463492063492063622e+00,-3.656428167543872285e-06,-6.760621081548864474e-05
2.464285714285714413e+00,-3.031759728382348082e-06,-6.959330451121884865e-05
2.465079365079365203e+00,-2.367942232341765628e-06,-7.330966180852167998e-05
2.465873015873015994e+00,-1.633369288556664420e-06,-7.738832804794937195e-05
2.466666666666666785e+00,-7.769774419105299728e-07,-8.030806249222763771e-05
2.467460317460317576e+00,2.455080225319085842e-07,-8.076651722095449365e-05
2.468253968253968367e+00,1.435062220791103990e-06,-7.798020496485904543e-05
2.469047619047619158e+00,2.720528020068124782e-06,-7.184572625940774328e-05
2.469841269841269948e+00,3.955389956859241924e-06,-6.292721768034342539e-05
2.470634920634920739e+00,4.948382946354045898e-06,-5.227641105152894090e-05
2.471428571428571530e+00,5.521252002449688237e-06,-4.113853656272393062e-05
2.472222222222222321e+00,5.574083696723291454e-06,-3.063555526427171012e-05
2.473015873015873112e+00,5.133298539717264471e-06,-2.152703745002310283e-05
2.473809523809523903e+00,4.361153295379023044e-06,-1.411683990209232172e-05
2.474603174603174693e+00,3.517497803356668596e-06,-8.313092817626739758e-06
2.475396825396825484e+00,2.882211063271402608e-06,-3.788921973340727294e-06
2.476190476190476275e+00,2.664361835885140962e-06,-1.581453793193115053e-07
2.476984126984127066e+00,2.932236783897847494e-06,2.911878149794399016e-06
2.477777777777777857e+00,3.590644354704953059e-06,5.681688902586322067e-06
2.478571428571428648e+00,4.412432386000987480e-06,8.386947291272810502e-06
2.479365079365079438e+00,5.111485239514168085e-06,1.128595392902269887e-05
2.480158730158730229e+00,5.433124741036095867e-06,1.464934096909789958e-05
2.480952380952381020e+00,5.235500803494888050e-06,1.867584188249345691e-05
2.481746031746031811e+00,4.539184570576427335e-06,2.336555331148501286e-05
2.482539682539682602e+00,3.530010101820897942e-06,2.841049286584815440e-05
2.483333333333333393e+00,2.512028826741777673e-06,3.316382931285027246e-05
2.484126984126984183e+00,1.821779152244906282e-06,3.672728563101689485e-05
2.484920634920634974e+00,1.727403355315536254e-06,3.815712295785251862e-05
2.485714285714285765e+00,2.340851271451165593e-06,3.674284407047185067e-05
2.486507936507936556e+00,3.566458604962431703e-06,3.227532604190868666e-05
2.487301587301587347e+00,5.098093126790777462e-06,2.520867118661924294e-05
2.488095238095238138e+00,6.465397398302829581e-06,1.664068936879671003e-05
2.488888888888888928e+00,7.120582659071380257e-06,8.087910394826275035e-06
2.489682539682539719e+00,6.551096965558227482e-06,1.099981577762587187e-06
2.490476190476190510e+00,4.399901031499071852e-06,-3.176325743548662922e-06
2.491269841269841301e+00,5.733582597388706296e-07,-4.338977356005015180e-06
2.492063492063492092e+00,-4.684382786462985261e-06,-2.853144578143078238e-06
2.492857142857142883e+00,-1.077218988219911405e-05,9.672038181598827740e-08
2.493650793650793673e+00,-1.678644947003793861e-05,2.975569552938102143e-06
2.494444444444444464e+00,-2.165668162278181833e-05,4.357994378989271982e-06
2.495238095238095255e+00,-2.434969896272138094e-05,3.329142255715233448e-06
2.496031746031746046e+00,-2.410498776607496274e-05,-2.861526264393806609e-07
2.496825396825396837e+00,-2.064250189626835383e-05,-5.908312912951461177e-06
2.497619047619047628e+00,-1.427673296272513979e-05,-1.237575089831199752e-05
2.498412698412698418e+00,-5.888578753945947067e-06,-1.823378476819760647e-05
2.499206349206349209e+00,3.248948753045885537e-06,-2.205569450926432245e-05
2.500000000000000000e+00,1.174052252520743323e-05,-2.272924811396945583e-05
2.500793650793650791e+00,1.834935323186423649e-05,-1.967093397286506372e-05
2.501587301587301582e+00,2.221280287129394340e-05,-1.294838143147158608e-05
2.502380952380952372e+00,2.295632654104185820e-05,-3.293399107210158119e-06
2.503174603174603163e+00,2.070831818069966519e-05,8.010712266670651509e-06
2.503968253968253954e+00,1.603490646154953807e-05,1.936524187414232246e-05
2.504761904761904745e+00,9.813974357093076660e-06,2.917652556431886478e-05
2.505555555555555536e+00,3.069003385820495474e-06,3.618461422574068139e-05
2.506349206349206327e+00,-3.209228507180486080e-06,3.970784876814640143e-05
2.507142857142857117e+00,-8.219924337942462582e-06,3.972884178906326968e-05
2.507936507936507908e+00,-1.145989270229660739e-05,3.679675900182306661e-05
2.508730158730158699e+00,-1.276592092546062120e-05,3.178241271837218857e-05
2.509523809523809490e+00,-1.229207926766611251e-05,2.556999096289751019e-05
2.510317460317460281e+00,-1.043577552536005861e-05,1.878493893605778811e-05
2.511111111111111072e+00,-7.734847511054134846e-06,1.163995552736265766e-05
2.511904761904761862e+00,-4.759921408118269193e-06,3.939855480368664775e-06
2.512698412698412653e+00,-2.022414900166885134e-06,-4.762919564206869152e-06
2.513492063492063444e+00,8.893131402780513190e-08,-1.491015271687639957e-05
2.514285714285714235e+00,1.339107924609886981e-06,-2.664600982263122566e-05
2.515079365079365026e+00,1.649788442038810273e-06,-3.956468006541277949e-05
2.515873015873015817e+00,1.082973082817725844e-06,-5.256704290018118309e-05
2.516666666666666607e+00,-1.866262933930401459e-07,-6.388795317150261683e-05
2.517460317460317398e+00,-1.906198136028703694e-06,-7.133421899402153047e-05
2.518253968253968189e+00,-3.784580745476107983e-06,-7.272486399462648441e-05
2.519047619047618980e+00,-5.533973701318182924e-06,-6.645288418290204511e-05
2.519841269841269771e+00,-6.907498975405088134e-06,-5.202111579498502582e-05
2.520634920634920562e+00,-7.726083991768898049e-06,-3.038380652140410226e-05
2.521428571428571352e+00,-7.891721040634506725e-06,-3.968519933578217285e-06
2.522222222222222143e+00,-7.389030284167432217e-06,2.365771659129843959e-05
2.523015873015872934e+00,-6.279622734039471388e-06,4.841518296768702499e-05
2.523809523809523725e+00,-4.692993893840546771e-06,6.648840646248386013e-05
2.524603174603174516e+00,-2.814967012463303650e-06,7.506730781945568007e-05
2.525396825396825307e+00,-8.719421840763173435e-07,7.287684745049704984e-05
2.526190476190476097e+00,8.921296042616258472e-07,6.038817855344863630e-05
2.526984126984126888e+00,2.248069970212580954e-06,3.970387069178755172e-05
2.527777777777777679e+00,3.021494821509367873e-06,1.419024885651508781e-05
2.528571428571428470e+00,3.133898778258922923e-06,-1.204293437676675085e-05
2.529365079365079261e+00,2.634193633064136701e-06,-3.473621846579934578e-05
2.530158730158730052e+00,1.709672097061946291e-06,-5.010142515234504483e-05
2.530952380952380842e+00,6.690312642091463928e-07,-5.543041088882506270e-05
2.531746031746031633e+00,-1.037951149991807249e-07,-4.961924971324919737e-05
2.532539682539682424e+00,-2.194982262442674114e-07,-3.348812437281455974e-05
2.533333333333333215e+00,6.350088566462186929e-07,-9.762180946590021571e-06
2.534126984126984006e+00,2.620185382608486065e-06,1.736836260064359626e-05
2.534920634920634797e+00,5.690893155189118591e-06,4.307196031740765431e-05
2.535714285714285587e+00,9.581267749482413076e-06,6.290614049035023962e-05
2.536507936507936378e+00,1.383362707213848051e-05,7.377949725514333797e-05
2.537301587301587169e+00,1.786771670652296013e-05,7.456645128375402241e-05
2.538095238095237960e+00,2.107788587782200793e-05,6.619817650970987572e-05
2.538888888888888751e+00,2.293997378756290300e-05,5.122445258888767540e-05
2.539682539682539542e+00,2.310712285207359415e-05,3.301182440452998644e-05
2.540476190476190332e+00,2.147470261742873764e-05,1.484478959216123536e-05
2.541269841269841123e+00,1.820010489769094501e-05,-8.038820865913199134e-07
2.542063492063491914e+00,1.367342724531968704e-05,-1.265543066345938911e-05
2.542857142857142705e+00,8.446838733974068369e-06,-2.061197644870623350e-05
2.543650793650793496e+00,3.139029681751649334e-06,-2.542438475156580139e-05
2.544444444444444287e+00,-1.665778999568202353e-06,-2.819983881864845092e-05
2.545238095238095077e+00,-5.506409931046355618e-06,-2.992839268517130148e-05
2.546031746031745868e+00,-8.107320444763562418e-06,-3.116702219030893171e-05
2.546825396825396659e+00,-9.406975619617419747e-06,-3.194042780123953113e-05
2.547619047619047450e+00,-9.549314386583485930e-06,-3.183751487423846610e-05
2.548412698412698241e+00,-8.841378890252084668e-06,-3.023304789831967950e-05
2.549206349206349032e+00,-7.686221739287092046e-06,-2.655362044872019043e-05
2.549999999999999822e+00,-6.505429424335688913e-06,-2.052095008109697615e-05
2.550793650793650613e+00,-5.667784127356557555e-06,-1.232346084060107922e-05
2.551587301587301404e+00,-5.438182716596865433e-06,-2.680356829787383814e-06
2.552380952380952195e+00,-5.954381420373600877e-06,7.223721328749122974e-06
2.553174603174602986e+00,-7.230460332945035666e-06,1.593086885154580939e-05
2.553968253968253777e+00,-9.178003721996453259e-06,2.198970997317428825e-05
2.554761904761904567e+00,-1.163228676160775222e-05,2.424870308433318400e-05
2.555555555555555358e+00,-1.437330510849539864e-05,2.207828869709046226e-05
2.556349206349206149e+00,-1.713833799031216790e-05,1.546394673215521369e-05
2.557142857142856940e+00,-1.962923445292270440e-05,4.965026766648569533e-06
2.557936507936507731e+00,-2.152106510965183425e-05,-8.416601724918903614e-06
2.558730158730158522e+00,-2.247963401433574843e-05,-2.339440392731686354e-05
2.559523809523809312e+00,-2.219396587378440482e-05,-3.853240934036689672e-05
2.560317460317460103e+00,-2.042543521549117713e-05,-5.234213055380702422e-05
2.561111111111110894e+00,-1.706808059729649957e-05,-6.335722793559110688e-05
2.561904761904761685e+00,-1.220755141241659214e-05,-7.021806069042283186e-05
2.562698412698412920e+00,-6.161743649307451850e-06,-7.179378519803965319e-05
2.563492063492063711e+00,5.146384122312128015e-07,-6.734704481019706103e-05
2.564285714285714501e+00,7.075512462981345219e-06,-5.671486803429329492e-05
2.565079365079365292e+00,1.268156227002338529e-05,-4.045372657545839542e-05
2.565873015873016083e+00,1.653594088771877704e-05,-1.989032943579625344e-05
2.566666666666666874e+00,1.802703996693246201e-05,2.962320355055022238e-06
2.567460317460317665e+00,1.684700781011340583e-05,2.562847218616642422e-05
2.568253968253968456e+00,1.306952398483231463e-05,4.550038742484757579e-05
2.569047619047619246e+00,7.186509168233794587e-06,6.022202693630969629e-05
2.569841269841270037e+00,1.040604577757308620e-07,6.806967316861271898e-05
2.570634920634920828e+00,-6.918297489389142183e-06,6.827774972613165133e-05
2.571428571428571619e+00,-1.241546699599572597e-05,6.125022779369292342e-05
2.572222222222222410e+00,-1.497222553876402931e-05,4.858464498503695843e-05
2.573015873015873201e+00,-1.356579135955807135e-05,3.285013962292949573e-05
2.573809523809523991e+00,-7.919188978093082105e-06,1.712258328749664783e-05
2.574603174603174782e+00,1.253303805685931798e-06,4.363057194541444781e-06
2.575396825396825573e+00,1.223104886240192802e-05,-3.216699325321940320e-06
2.576190476190476364e+00,2.257703212130095414e-05,-4.649303400031987511e-06
2.576984126984127155e+00,2.971386299114858601e-05,-4.438457159484265113e-07
2.577777777777777946e+00,3.165365243853709206e-05,7.517167076850623732e-06
2.578571428571428736e+00,2.766232849596789181e-05,1.641965475068177266e-05
2.579365079365079527e+00,1.862295211911157869e-05,2.321772557785424670e-05
2.580158730158730318e+00,6.938644586343485094e-06,2.542698181540533706e-05
2.580952380952381109e+00,-4.037095226436844649e-06,2.179801406014523661e-05
2.581746031746031900e+00,-1.089334458722009518e-05,1.267397067326024403e-05
2.582539682539682691e+00,-1.111693498918648193e-05,-7.531909395645177088e-08
2.583333333333333481e+00,-3.826825461864499053e-06,-1.352126038482469913e-05
2.584126984126984272e+00,9.925337220245894078e-06,-2.440746359696118267e-05
2.584920634920635063e+00,2.736766261182253478e-05,-2.994156768476115128e-05
2.585714285714285854e+00,4.466123472494214501e-05,-2.845006303531222354e-05
2.586507936507936645e+00,5.780342391443109371e-05,-1.975397083530955949e-05
2.587301587301587436e+00,6.354028624955558504e-05,-5.201402267190970930e-06
2.588095238095238226e+00,6.006874684099698593e-05,1.263033650738626099e-05
2.588888888888889017e+00,4.738118422473092844e-05,3.048693607292847924e-05
2.589682539682539808e+00,2.720014067670146568e-05,4.512029065625228940e-05
2.590476190476190599e+00,2.548267720754149460e-06,5.395282890426671900e-05
2.591269841269841390e+00,-2.292052908906489219e-05,5.557585731332840374e-05
2.592063492063492181e+00,-4.565790235100512128e-05,4.997318535529177478e-05
2.592857142857142971e+00,-6.285784687943574438e-05,3.842963719210651342e-05
2.593650793650793762e+00,-7.287078540266902018e-05,2.316456855596339798e-05
2.594444444444444553e+00,-7.533950251242672153e-05,6.799132107487784618e-06
2.595238095238095344e+00,-7.106685551963339410e-05,-8.199992699773785070e-06
2.596031746031746135e+00,-6.167408042542633462e-05,-1.996893742089510222e-05
2.596825396825396925e+00,-4.913876474518639624e-05,-2.750272801915010717e-05
2.597619047619047716e+00,-3.531678301718238917e-05,-3.069498299496000848e-05
2.598412698412698507e+00,-2.155241285950563616e-05,-3.018922137895260966e-05
2.599206349206349298e+00,-8.460411534972808915e-06,-2.710384033984288536e-05
2.600000000000000089e+00,4.076459116447404694e-06,-2.270892261177726997e-05
2.600793650793650880e+00,1.669892932896193465e-05,-1.813416020284042038e-05
2.601587301587301670e+00,3.019875882075009229e-05,-1.417249841756102202e-05
2.602380952380952461e+00,4.506510902750388605e-05,-1.121178566503526277e-05
2.603174603174603252e+00,6.106510253779826524e-05,-9.284635366576885951e-06
2.603968253968254043e+00,7.699430078300183286e-05,-8.193270635517313797e-06
2.604761904761904834e+00,9.071673428048364211e-05,-7.655369129374705925e-06
2.605555555555555625e+00,9.954108800789409153e-05,-7.427403994472459850e-06
2.606349206349206415e+00,1.008594893673889149e-04,-7.382265526667940660e-06
2.607142857142857206e+00,9.285785838821679827e-05,-7.537134389568907489e-06
2.607936507936507997e+00,7.505728309501372261e-05,-8.039314945697824440e-06
2.608730158730158788e+00,4.849880620206946093e-05,-9.120912221767715474e-06
2.609523809523809579e+00,1.551517379871832645e-05,-1.103194818310716933e-05
2.610317460317460370e+00,-2.082213906056962362e-05,-1.396150448166910661e-05
2.611111111111111160e+00,-5.739378401660997950e-05,-1.795987699700384900e-05
2.611904761904761951e+00,-9.164688559407365635e-05,-2.287903926921381215e-05
2.612698412698412742e+00,-1.219547972204884954e-04,-2.834954543052732465e-05
2.613492063492063533e+00,-1.476251623593008867e-04,-3.380521604616033095e-05
2.614285714285714324e+00,-1.685653860321370523e-04,-3.855180507524389447e-05
2.615079365079365115e+00,-1.847239728889024147e-04,-4.185969208579987019e-05
2.615873015873015905e+00,-1.955094958993858602e-04,-4.305629907567134210e-05
2.616666666666666696e+00,-1.994168868257679343e-04,-4.160687258363620717e-05
2.617460317460317487e+00,-1.940488825040514401e-04,-3.719203063734007601e-05
2.618253968253968278e+00,-1.766160021258777254e-04,-2.979804568752282115e-05
2.619047619047619069e+00,-1.448526831840066286e-04,-1.981960075728376455e-05
2.619841269841269860e+00,-9.812953172997630183e-05,-8.141279598523497898e-06
2.620634920634920650e+00,-3.841509063988362356e-05,3.863159432907061255e-06
2.621428571428571441e+00,2.929803994381246834e-05,1.447004696705436444e-05
2.622222222222222232e+00,9.739183765033566714e-05,2.189658832532550420e-05
2.623015873015873023e+00,1.569031605416694344e-04,2.469453785143150805e-05
2.623809523809523814e+00,1.994343714168955728e-04,2.215126011458003709e-05
2.624603174603174605e+00,2.191673299009386363e-04,1.458995224093098962e-05
2.625396825396825395e+00,2.143339063889583909e-04,3.477107374534174541e-06
2.626190476190476186e+00,1.876193207899831260e-04,-8.722704307594107210e-06
2.626984126984126977e+00,1.453323381233012461e-04,-1.895867465708267564e-05
2.627777777777777768e+00,9.563228927245932061e-05,-2.422166906818896175e-05
2.628571428571428559e+00,4.644594771213752653e-05,-2.226455235430106685e-05
2.629365079365079350e+00,3.778933162354415691e-06,-1.223671741133382821e-05
2.630158730158730140e+00,-2.908495884436109225e-05,4.955028718067022523e-06
2.630952380952380931e+00,-5.137795867156215093e-05,2.669949268923955783e-05
2.631746031746031722e+00,-6.389067763643817299e-05,4.918572006024466315e-05
2.632539682539682513e+00,-6.775227300352883880e-05,6.825973704563216625e-05
2.633333333333333304e+00,-6.346963541143730474e-05,8.040719290928975672e-05
2.634126984126984095e+00,-5.059390419154212974e-05,8.357660750326809627e-05
2.634920634920634885e+00,-2.812542726790025205e-05,7.760277883898478060e-05
2.635714285714285676e+00,4.501305752740480551e-06,6.412552887716993684e-05
2.636507936507936467e+00,4.622651323201381430e-05,4.606487969007832075e-05
2.637301587301587258e+00,9.345791069701380946e-05,2.683830613953076832e-05
2.638095238095238049e+00,1.399097325816646474e-04,9.549992258378963935e-06
2.638888888888888840e+00,1.774417493388122705e-04,-3.645964072462603252e-06
2.639682539682539630e+00,1.977925715338940433e-04,-1.187606762544946986e-05
2.640476190476190421e+00,1.947245531895646189e-04,-1.552693593428798745e-05
2.641269841269841212e+00,1.658861708554852134e-04,-1.592009884710896486e-05
2.642063492063492003e+00,1.137673124392233752e-04,-1.480345999018409302e-05
2.642857142857142794e+00,4.544220340238327088e-05,-1.381655263517370635e-05
2.643650793650793585e+00,-2.879340434115291981e-05,-1.407104024765081652e-05
2.644444444444444375e+00,-9.746363593514854688e-05,-1.593034121549696003e-05
2.645238095238095166e+00,-1.500835540543401061e-04,-1.900203223590633591e-05
2.646031746031745957e+00,-1.789806649870369500e-04,-2.230604184049131354e-05
2.646825396825396748e+00,-1.804652008739584320e-04,-2.456125298525356929e-05
2.647619047619047539e+00,-1.552382590463814119e-04,-2.452639103898790493e-05
2.648412698412698330e+00,-1.080705957266193208e-04,-2.131990697354722690e-05
2.649206349206349120e+00,-4.686863255133315721e-05,-1.463538551905472360e-05
2.649999999999999911e+00,1.870843862139451292e-05,-4.789425226008281514e-06
2.650793650793650702e+00,7.887227942832857920e-05,7.402032111183216340e-06
2.651587301587301493e+00,1.253095275178267999e-04,2.085099322074400103e-05
2.652380952380952284e+00,1.524734205702184373e-04,3.442016752098112195e-05
2.653174603174603075e+00,1.583010296919132222e-04,4.705266993132994349e-05
2.653968253968253865e+00,1.442119772627346494e-04,5.778920591731014528e-05
2.654761904761904656e+00,1.144249195211896738e-04,6.572750701732982953e-05
2.655555555555555447e+00,7.480417257638454951e-05,7.000994939116002107e-05
2.656349206349206238e+00,3.154540545803705565e-05,6.989748270986121672e-05
2.657142857142857029e+00,-1.000538182318473850e-05,6.492647997044336244e-05
2.657936507936507819e+00,-4.619626692644245258e-05,5.508947318828286892e-05
2.658730158730158610e+00,-7.547500760235504333e-05,4.095806012568486358e-05
2.659523809523809401e+00,-9.832601897784698367e-05,2.368512797582281794e-05
2.660317460317460192e+00,-1.167626255455237643e-04,4.872294038715944962e-06
2.661111111111110983e+00,-1.334666667964515762e-04,-1.366342978247144684e-05
2.661904761904761774e+00,-1.507604294599187717e-04,-3.016993610024178117e-05
2.662698412698412564e+00,-1.696765075584131654e-04,-4.324034021371778597e-05
2.663492063492063355e+00,-1.893983662903108453e-04,-5.205457222466755904e-05
2.664285714285714146e+00,-2.072466520621831258e-04,-5.653734481839503974e-05
2.665079365079364937e+00,-2.192164449951687752e-04,-5.737988340395813334e-05
2.665873015873015728e+00,-2.209046238375741121e-04,-5.588818098578030160e-05
2.666666666666666519e+00,-2.085681485000081745e-04,-5.366671423206187809e-05
2.667460317460317309e+00,-1.800446699522976579e-04,-5.220513629278613813e-05
2.668253968253968100e+00,-1.353359897465697674e-04,-5.247739011242034664e-05
2.669047619047618891e+00,-7.677150314125180718e-05,-5.466863215850582553e-05
2.669841269841269682e+00,-8.781236479871874486e-06,-5.811280003199739160e-05
2.670634920634920473e+00,6.263102920472701958e-05,-6.146265363851508750e-05
2.671428571428571264e+00,1.306162624621794155e-04,-6.304434366406514324e-05
2.672222222222222054e+00,1.883160064996999253e-04,-6.129655876651887117e-05
2.673015873015872845e+00,2.296984498811750330e-04,-5.518029880632137124e-05
2.673809523809523636e+00,2.502778935249645514e-04,-4.446768790993319947e-05
2.674603174603174427e+00,2.476310137344390431e-04,-2.985675681510260523e-05
2.675396825396825218e+00,2.216920280720071528e-04,-1.289499186492820869e-05
2.676190476190476009e+00,1.748634460654185799e-04,4.276887640631655901e-06
2.676984126984126799e+00,1.119654169407013954e-04,1.932291889234023495e-05
2.677777777777777590e+00,3.997400836891400818e-05,3.018527236993233986e-05
2.678571428571428381e+00,-3.255472206120727370e-05,3.553965951341828307e-05
2.679365079365079172e+00,-9.643959880752438825e-05,3.512440422405414277e-05
2.680158730158729963e+00,-1.431491677762669677e-04,2.984497772932360102e-05
2.680952380952380754e+00,-1.662010597592372620e-04,2.159895942824177794e-05
2.681746031746031544e+00,-1.624082673060070622e-04,1.283837300048420816e-05
2.682539682539682335e+00,-1.326868078389799516e-04,5.968586134351121213e-06
2.683333333333333126e+00,-8.219211209297276372e-05,2.745059100785244920e-06
2.684126984126983917e+00,-1.965052437933317170e-05,3.841434819007713471e-06
2.684920634920634708e+00,4.410226828161553631e-05,8.714730616961436461e-06
2.685714285714285499e+00,9.817044701064109845e-05,1.580264208369703822e-05
2.686507936507936289e+00,1.338188559117341864e-04,2.298705370889374925e-05
2.687301587301587080e+00,1.463076663152726041e-04,2.818066431395681504e-05
2.688095238095238315e+00,1.358153874317842590e-04,2.986473217249774784e-05
2.688888888888889106e+00,1.071660268804736196e-04,2.743242027114583078e-05
2.689682539682539897e+00,6.843932762519480933e-05,2.126130505064527515e-05
2.690476190476190688e+00,2.887268574713271714e-05,1.252418614093833674e-05
2.691269841269841478e+00,-3.358789609028598618e-06,2.820723643157007564e-06
2.692063492063492269e+00,-2.290634629248462076e-05,-6.247258577595993847e-06
2.692857142857143060e+00,-2.814514309945645744e-05,-1.343350344590605410e-05
2.693650793650793851e+00,-2.105748235014268875e-05,-1.804825495914120912e-05
2.694444444444444642e+00,-6.233250842168844455e-06,-1.996765997159685670e-05
2.695238095238095433e+00,1.065965171454746170e-05,-1.947841821760862795e-05
2.696031746031746223e+00,2.446806922638221214e-05,-1.703443117610310543e-05
2.696825396825397014e+00,3.175457068199100385e-05,-1.302370344253628527e-05
2.697619047619047805e+00,3.128603728806349753e-05,-7.629863771178922553e-06
2.698412698412698596e+00,2.372344072510737580e-05,-8.315614474369669574e-07
2.699206349206349387e+00,1.070598826801381074e-05,7.467354869420066026e-06
2.700000000000000178e+00,-6.247591000704511690e-06,1.722614516669217823e-05
2.700793650793650968e+00,-2.652325506417927735e-05,2.804710907142044844e-05
2.701587301587301759e+00,-5.051305180790970349e-05,3.902346860832983595e-05
2.702380952380952550e+00,-7.895241287126888345e-05,4.871703803529090122e-05
2.703174603174603341e+00,-1.117425469769352231e-04,5.530049824364937765e-05
2.703968253968254132e+00,-1.467533340913578595e-04,5.686269296305804146e-05
2.704761904761904923e+00,-1.791699117026519772e-04,5.183055490686131589e-05
2.705555555555555713e+00,-2.018041854732144315e-04,3.941608021254781608e-05
2.706349206349206504e+00,-2.064772311392313936e-04,1.997170106398198211e-05
2.707142857142857295e+00,-1.861834659988149780e-04,-4.850071845748981884e-06
2.707936507936508086e+00,-1.374096458954396837e-04,-3.219215630528302004e-05
2.708730158730158877e+00,-6.184640695589377856e-05,-5.834774645665766386e-05
2.709523809523809668e+00,3.312209761933933495e-05,-7.932770413018771756e-05
2.710317460317460458e+00,1.353815314849820932e-04,-9.154957458566255143e-05
2.711111111111111249e+00,2.302800307874614178e-04,-9.252370330128038129e-05
2.711904761904762040e+00,3.034857387303937365e-04,-8.139865668212551569e-05
2.712698412698412831e+00,3.438143859650466105e-04,-5.924263490206641317e-05
2.713492063492063622e+00,3.453910835572275031e-04,-2.897879850989938620e-05
2.714285714285714413e+00,3.086901545769992860e-04,5.045426752104228740e-06
2.715079365079365203e+00,2.402544951217737879e-04,3.779894730191719296e-05
2.715873015873015994e+00,1.512065323923511269e-04,6.448351003524765068e-05
2.716666666666666785e+00,5.496281788802747997e-05,8.143399649416794813e-05
2.717460317460317576e+00,-3.525327984006526707e-05,8.679724259060721866e-05
2.718253968253968367e+00,-1.085218616685093172e-04,8.083010055858155947e-05
2.719047619047619158e+00,-1.575817177215894981e-04,6.575210295690984670e-05
2.719841269841269948e+00,-1.793370463529741739e-04,4.519779924328773732e-05
2.720634920634920739e+00,-1.746592116240445103e-04,2.340274163377315911e-05
2.721428571428571530e+00,-1.477265377027605871e-04,4.308365660372122391e-06
2.722222222222222321e+00,-1.051078113832496321e-04,-9.215466478024462161e-06
2.723015873015873112e+00,-5.470278894148356642e-05,-1.585648675824826977e-05
2.723809523809523903e+00,-4.600593066932390670e-06,-1.594886706864613734e-05
2.724603174603174693e+00,3.805659391580838203e-05,-1.116304069232531265e-05
2.725396825396825484e+00,6.804815550978278167e-05,-3.905970898598142113e-06
2.726190476190476275e+00,8.269612271090949029e-05,3.379076236473998954e-06
2.726984126984127066e+00,8.199271677735917030e-05,8.807125842132828598e-06
2.727777777777777857e+00,6.822365758471862513e-05,1.138750956084001335e-05
2.728571428571428648e+00,4.521877693085461872e-05,1.105019818173064867e-05
2.729365079365079438e+00,1.744678552060373159e-05,8.418812733969836736e-06
2.730158730158730229e+00,-1.082849641345108673e-05,4.457078853595266287e-06
2.730952380952381020e+00,-3.617555539115092792e-05,1.263527723721030958e-07
2.731746031746031811e+00,-5.633520516274297715e-05,-3.851699945013552546e-06
2.732539682539682602e+00,-7.027762259105125545e-05,-7.101040092642039566e-06
2.733333333333333393e+00,-7.803521066705996253e-05,-9.592240391422150123e-06
2.734126984126984183e+00,-8.039949863640706758e-05,-1.158083801009384253e-05
2.734920634920634974e+00,-7.857489419130130937e-05,-1.351455391512826955e-05
2.735714285714285765e+00,-7.386612807521169156e-05,-1.592739487237858497e-05
2.736507936507936556e+00,-6.744784350135161783e-05,-1.933340752068133341e-05
2.737301587301587347e+00,-6.023407975286319442e-05,-2.412980534186361318e-05
2.738095238095238138e+00,-5.284041040561398894e-05,-3.051323913284054425e-05
2.738888888888888928e+00,-4.561600928364755911e-05,-3.841042976252551371e-05
2.739682539682539719e+00,-3.871700785591983529e-05,-4.743114074684689655e-05
2.740476190476190510e+00,-3.219335738211572391e-05,-5.685990186332167908e-05
2.741269841269841301e+00,-2.606561395091568236e-05,-6.570066915986286715e-05
2.742063492063492092e+00,-2.037464473855328192e-05,-7.277566530790324523e-05
2.742857142857142883e+00,-1.519659415701289967e-05,-7.686680191048043476e-05
2.743650793650793673e+00,-1.062610433777991634e-05,-7.688235099216680901e-05
2.744444444444444464e+00,-6.739810466361965019e-06,-7.202999161417211976e-05
2.745238095238095255e+00,-3.557070205968486908e-06,-6.197313912586715589e-05
2.746031746031746046e+00,-1.013908500200595894e-06,-4.693849587125154801e-05
2.746825396825396837e+00,1.040986662268905823e-06,-2.773700165631968613e-05
2.747619047619047628e+00,2.829105313916806702e-06,-5.671452784656626366e-06
2.748412698412698418e+00,4.611171655863863689e-06,1.766300942507632689e-05
2.749206349206349209e+00,6.650219344242408287e-06,4.063733358324923020e-05
2.750000000000000000e+00,9.172852869988902400e-06,6.182902130644828500e-05
2.750793650793650791e+00,1.232926645587010425e-05,8.016928064024914210e-05
2.751587301587301582e+00,1.615258799900707646e-05,9.495621797857498590e-05
2.752380952380952372e+00,2.052321085914656632e-05,1.057484450129493874e-04
2.753174603174603163e+00,2.515158479272921213e-05,1.122054805652799805e-04
2.753968253968253954e+00,2.959667166270992946e-05,1.139675176317922760e-04
2.754761904761904745e+00,3.332996561903521043e-05,1.106542738517024788e-04
2.755555555555555536e+00,3.583688035821577740e-05,1.020110160182280135e-04
2.756349206349206327e+00,3.672841931016853468e-05,8.815612595924702123e-05
2.757142857142857117e+00,3.582901191054150110e-05,6.982003823921872270e-05
2.757936507936507908e+00,3.321605802276848325e-05,4.844484629464907067e-05
2.758730158730158699e+00,2.920637886629310961e-05,2.605807463933343412e-05
2.759523809523809490e+00,2.430201565709122624e-05,4.930440241447443477e-06
2.760317460317460281e+00,1.911414136036168284e-05,-1.287418063047264497e-05
2.761111111111111072e+00,1.427987388985918184e-05,-2.590527665426970734e-05
2.761904761904761862e+00,1.037955176496030883e-05,-3.356965752205461550e-05
2.762698412698412653e+00,7.858121572853807619e-06,-3.617106156474666454e-05
2.763492063492063444e+00,6.955260042892409169e-06,-3.477489892286793501e-05
2.764285714285714235e+00,7.652441063454219912e-06,-3.095997546375841262e-05
2.765079365079365026e+00,9.648914648537752255e-06,-2.651423463090611839e-05
2.765873015873015817e+00,1.238063498964241040e-05,-2.311469564686895208e-05
2.766666666666666607e+00,1.509353870977146079e-05,-2.202637157273099064e-05
2.767460317460317398e+00,1.697211230403138961e-05,-2.386438787986725027e-05
2.768253968253968189e+00,1.730670418593475599e-05,-2.847240185993531029e-05
2.769047619047618980e+00,1.566457520053890327e-05,-3.496112367379506107e-05
2.769841269841269771e+00,1.201859155899360574e-05,-4.191777671907631630e-05
2.770634920634920562e+00,6.790452171020800450e-06,-4.774972695519691233e-05
2.771428571428571352e+00,7.841103430004756868e-07,-5.108082671123164294e-05
2.772222222222222143e+00,-4.985277639721757868e-06,-5.109551365554906188e-05
2.773015873015872934e+00,-9.530344914358049427e-06,-4.773510712748143560e-05
2.773809523809523725e+00,-1.213909504502239310e-05,-4.169253237574650073e-05
2.774603174603174516e+00,-1.256488482691936404e-05,-3.421149374613737448e-05
2.775396825396825307e+00,-1.110473575719894323e-05,-2.675175064069109664e-05
2.776190476190476097e+00,-8.539307981034817045e-06,-2.061503065258607205e-05
2.776984126984126888e+00,-5.942066166421197845e-06,-1.662870738490457637e-05
2.777777777777777679e+00,-4.398402931432489772e-06,-1.496019920110886438e-05
2.778571428571428470e+00,-4.703536236139573766e-06,-1.509541505495630285e-05
2.779365079365079261e+00,-7.124813306862336020e-06,-1.597346474752311713e-05
2.780158730158730052e+00,-1.130642686554090022e-05,-1.623753526760986552e-05
2.780952380952380842e+00,-1.635236533829415143e-05,-1.454282350957933450e-05
2.781746031746031633e+00,-2.105925872691211356e-05,-9.858258497177716645e-06
2.782539682539682424e+00,-2.421859054212572625e-05,-1.708247830409506843e-06
2.783333333333333215e+00,-2.489442263315904937e-05,9.682605810638026674e-06
2.784126984126984006e+00,-2.260722373163335359e-05,2.336331916054170429e-05
2.784920634920634797e+00,-1.739606537269775815e-05,3.775780099138951941e-05
2.785714285714285587e+00,-9.770022402890055660e-06,5.088723900441238736e-05
2.786507936507936378e+00,-5.840611310743627993e-07,6.068589485916793232e-05
2.787301587301587169e+00,9.117406733134039484e-06,6.536070328660882470e-05
2.788095238095237960e+00,1.825105432026804606e-05,6.373182141097324656e-05
2.788888888888888751e+00,2.581218508213710229e-05,5.549096207985503791e-05
2.789682539682539542e+00,3.094563257355564611e-05,4.132537995293101039e-05
2.790476190476190332e+00,3.297246496750329714e-05,2.287548823572806503e-05
2.791269841269841123e+00,3.139272826855186885e-05,2.522668746016022820e-06
2.792063492063491914e+00,2.589618729019671216e-05,-1.696231991031562969e-05
2.792857142857142705e+00,1.640927972153194620e-05,-3.285011849626595323e-05
2.793650793650793496e+00,3.185252690190927931e-06,-4.288724456794725849e-05
2.794444444444444287e+00,-1.308608804619629480e-05,-4.566157528684253218e-05
2.795238095238095077e+00,-3.119807177528617615e-05,-4.084136802149974683e-05
2.796031746031745868e+00,-4.943230090015497533e-05,-2.924928052091675489e-05
2.796825396825396659e+00,-6.568774925341992364e-05,-1.275217701295378504e-05
2.797619047619047450e+00,-7.773562391150583360e-05,6.028039177295820173e-06
2.798412698412698241e+00,-8.355947205837299966e-05,2.414341226479237176e-05
2.799206349206349032e+00,-8.170709527913031119e-05,3.881374304952923011e-05
2.799999999999999822e+00,-7.156927737805140056e-05,4.788982541449214922e-05
2.800793650793650613e+00,-5.351748796059599102e-05,5.019675280766840793e-05
2.801587301587301404e+00,-2.887601114346151568e-05,4.569569952993494282e-05
2.802380952380952195e+00,2.447280182242992530e-07,3.544019333609314007e-05
2.803174603174602986e+00,3.119451701889980626e-05,2.134166202498132795e-05
2.803968253968253777e+00,6.105398860284558216e-05,5.793256133666644666e-06
2.804761904761904567e+00,8.690625803530106384e-05,-8.774437007760241183e-06
2.805555555555555358e+00,1.061181801773568425e-04,-2.032074037210504608e-05
2.806349206349206149e+00,1.166433248547669890e-04,-2.752422028437740160e-05
2.807142857142856940e+00,1.173284707718285963e-04,-2.995281594280445873e-05
2.807936507936507731e+00,1.081625729308940102e-04,-2.804606864517085200e-05
2.808730158730158522e+00,9.038299055227162543e-05,-2.292024107577603166e-05
2.809523809523809312e+00,6.636915763097180727e-05,-1.604838891313785574e-05
2.810317460317460103e+00,3.930780822386203797e-05,-8.901855419067470851e-06
2.811111111111110894e+00,1.268302559988043120e-05,-2.651803333693281097e-06
2.811904761904761685e+00,-1.030271524240604692e-05,1.992994546560267118e-06
2.812698412698412920e+00,-2.725246942690710814e-05,4.787395973573875626e-06
2.813492063492063711e+00,-3.693578112927994281e-05,5.823589523431425889e-06
2.814285714285714501e+00,-3.941764413097359487e-05,5.351179385154613771e-06
2.815079365079365292e+00,-3.593681040126585178e-05,3.626560426515168350e-06
2.815873015873016083e+00,-2.856821359487549865e-05,8.505082616680198945e-07
2.816666666666666874e+00,-1.975278358759271032e-05,-2.794188592202190136e-06
2.817460317460317665e+00,-1.180921239548291351e-05,-7.043603891905715840e-06
2.818253968253968456e+00,-6.540436973484801278e-06,-1.146061234772966215e-05
2.819047619047619246e+00,-5.006015683923415248e-06,-1.541276280208975374e-05
2.819841269841270037e+00,-7.466616323067132267e-06,-1.814481430913127870e-05
2.820634920634920828e+00,-1.345402913455897766e-05,-1.892137123942937897e-05
2.821428571428571619e+00,-2.190830561140687913e-05,-1.718240172428141645e-05
2.822222222222222410e+00,-3.134972027365852073e-05,-1.265619807085189411e-05
2.823015873015873201e+00,-4.008508005991841825e-05,-5.406018037555283980e-06
2.823809523809523991e+00,-4.645463587887450457e-05,4.175386139674098980e-06
2.824603174603174782e+00,-4.910415397195166682e-05,1.538871615015982333e-05
2.825396825396825573e+00,-4.723706892480322435e-05,2.724011739108314175e-05
2.826190476190476364e+00,-4.078620417436126143e-05,3.844223483454506835e-05
2.826984126984127155e+00,-3.045322144036064792e-05,4.744116900270532592e-05
2.827777777777777946e+00,-1.759461847470093497e-05,5.252736258071804740e-05
2.828571428571428736e+00,-3.975067318865376813e-06,5.207117678097346921e-05
2.829365079365079527e+00,8.553853104273443085e-06,4.486892286218757301e-05
2.830158730158730318e+00,1.837417112447232003e-05,3.052203059258699994e-05
2.830952380952381109e+00,2.435469039089743990e-05,9.736233638195500604e-06
2.831746031746031900e+00,2.599719828091342889e-05,-1.556581405218275652e-05
2.832539682539682691e+00,2.346497297462749325e-05,-4.238452639658247758e-05
2.833333333333333481e+00,1.750278695178830322e-05,-6.704408346322219083e-05
2.834126984126984272e+00,9.270241198008056485e-06,-8.580028517589163438e-05
2.834920634920635063e+00,1.212778233973811420e-07,-9.554767992678898263e-05
2.835714285714285854e+00,-8.628460679293517921e-06,-9.448209929146715949e-05
2.836507936507936645e+00,-1.590353137185407671e-05,-8.256571486448098529e-05
2.837301587301587436e+00,-2.100561153600355460e-05,-6.166349120420684877e-05
2.838095238095238226e+00,-2.366599027832092783e-05,-3.527374122501275024e-05
2.838888888888889017e+00,-2.400958411775955259e-05,-7.861672094638357314e-06
2.839682539682539808e+00,-2.244039412673377404e-05,1.608564261890382905e-05
2.840476190476190599e+00,-1.947268320181429457e-05,3.306165857436226799e-05
2.841269841269841390e+00,-1.554803996319196674e-05,4.132929643270016060e-05
2.842063492063492181e+00,-1.089131321911578941e-05,4.126371887720617707e-05
2.842857142857142971e+00,-5.457798160698048922e-06,3.513834980151279633e-05
2.843650793650793762e+00,9.992566240558051758e-07,2.640731410671078147e-05
2.844444444444444553e+00,8.755589757020891729e-06,1.868491737438027984e-05
2.845238095238095344e+00,1.789715386308643417e-05,1.470788341291393902e-05
2.846031746031746135e+00,2.813509597889849169e-05,1.557079712700282773e-05
2.846825396825396925e+00,3.871680148336689785e-05,2.045401136034152525e-05
2.847619047619047716e+00,4.845763618717896715e-05,2.693023109976926975e-05
2.848412698412698507e+00,5.588745131479366481e-05,3.176690551342074316e-05
2.849206349206349298e+00,5.949289531659352658e-05,3.198341878256139904e-05
2.850000000000000089e+00,5.802752182426619624e-05,2.583464170954370150e-05
2.850793650793650880e+00,5.084124365540847488e-05,1.341707917896486487e-05
2.851587301587301670e+00,3.815389918593292527e-05,-3.277906038600701449e-06
2.852380952380952461e+00,2.118584282369789893e-05,-2.086392792953952889e-05
2.853174603174603252e+00,2.077923935302152053e-06,-3.545358218006369332e-05
2.853968253968254043e+00,-1.641719263540582173e-05,-4.368144598494330910e-05
2.854761904761904834e+00,-3.142673959225194381e-05,-4.355442795733707230e-05
2.855555555555555625e+00,-4.053137645157274993e-05,-3.487698736708006705e-05
2.856349206349206415e+00,-4.229016752398606708e-05,-1.913505269180457245e-05
2.857142857142857206e+00,-3.659054113361419607e-05,1.091082660559575602e-06
2.857936507936507997e+00,-2.472969740094393314e-05,2.294882525112913589e-05
2.858730158730158788e+00,-9.189057769945455049e-06,4.406055298875728531e-05
2.859523809523809579e+00,6.867037920917839798e-06,6.293938825400929361e-05
2.860317460317460370e+00,2.026620575481403037e-05,7.897178777300999206e-05
2.861111111111111160e+00,2.852066517299879227e-05,9.204732358163496503e-05
2.861904761904761951e+00,3.036384519152609456e-05,1.020429978106386491e-04
2.862698412698412742e+00,2.598626031134851450e-05,1.083964461801404115e-04
2.863492063492063533e+00,1.690201285528122665e-05,1.099344351910187145e-04
2.864285714285714324e+00,5.483540865044606026e-06,1.050025735550333373e-04
2.865079365079365115e+00,-5.695181564928617205e-06,9.183051289297846113e-05
2.865873015873015905e+00,-1.450901659925619961e-05,6.901305973459401894e-05
2.866666666666666696e+00,-1.974161391578475801e-05,3.599280492226776513e-05
2.867460317460317487e+00,-2.124986981469354424e-05,-6.545250655424279732e-06
2.868253968253968278e+00,-1.983267156160405174e-05,-5.644188033198896420e-05
2.869047619047619069e+00,-1.688786374870971865e-05,-1.100595267648741768e-04
2.869841269841269860e+00,-1.397829097362137642e-05,-1.625487024005871459e-04
2.870634920634920650e+00,-1.242053377676458916e-05,-2.083875692432206306e-04
2.871428571428571441e+00,-1.297944402789405886e-05,-2.421410148440689516e-04
2.872222222222222232e+00,-1.571670633040539897e-05,-2.593203651880228921e-04
2.873015873015873023e+00,-2.000909647713945659e-05,-2.571732327337520555e-04
2.873809523809523814e+00,-2.472153552258781828e-05,-2.352252327843272267e-04
2.874603174603174605e+00,-2.849302338329536759e-05,-1.954418134422118919e-04
2.875396825396825395e+00,-3.007399784348104216e-05,-1.419580143374914248e-04
2.876190476190476186e+00,-2.864389457597027011e-05,-8.040967743232000622e-05
2.876984126984126977e+00,-2.403855734423679142e-05,-1.698599219768922398e-05
2.877777777777777768e+00,-1.683010388084016151e-05,4.259062851055873299e-05
2.878571428571428559e+00,-8.228271038292349855e-06,9.389926084063190698e-05
2.879365079365079350e+00,1.881328082736580807e-07,1.342512534457042286e-04
2.880158730158730140e+00,6.852933453243039349e-06,1.626490356287450248e-04
2.880952380952380931e+00,1.060772299068493780e-05,1.794019687107329796e-04
2.881746031746031722e+00,1.099388328854857013e-05,1.856528764734495540e-04
2.882539682539682513e+00,8.349665414038957563e-06,1.830365785215804680e-04
2.883333333333333304e+00,3.682016271076879156e-06,1.735299780039153050e-04
2.884126984126984095e+00,-1.642797607874264284e-06,1.593871374045923806e-04
2.884920634920634885e+00,-6.287022417172525799e-06,1.429990740825581397e-04
2.885714285714285676e+00,-9.281365712211759835e-06,1.265927799327040291e-04
2.886507936507936467e+00,-1.020943512626164485e-05,1.118130934857386086e-04
2.887301587301587258e+00,-9.185827800319940696e-06,9.932918583705160919e-05
2.888095238095238049e+00,-6.654470836289933520e-06,8.863465271698115074e-05
2.888888888888888840e+00,-3.102877942987272170e-06,7.817025560444008491e-05
2.889682539682539630e+00,1.180898060336198544e-06,6.580634306601000746e-05
2.890476190476190421e+00,6.203958641465587351e-06,4.959105188752886695e-05
2.891269841269841212e+00,1.217957781326450988e-05,2.853529503858158572e-05
2.892063492063492003e+00,1.929928092876034959e-05,3.137029080421056926e-06
2.892857142857142794e+00,2.747286911460058065e-05,-2.459090236516420867e-05
2.893650793650793585e+00,3.615561104089164715e-05,-5.163950225162625276e-05
2.894444444444444375e+00,4.434178083758050156e-05,-7.489466412594166422e-05
2.895238095238095166e+00,5.073155454451023236e-05,-9.207376858796696326e-05
2.896031746031745957e+00,5.400943021595674910e-05,-1.023757454241978128e-04
2.896825396825396748e+00,5.314034023856111671e-05,-1.066517096093353822e-04
2.897619047619047539e+00,4.760408203210117776e-05,-1.071009159522282907e-04
2.898412698412698330e+00,3.752851025794178561e-05,-1.066405840760854118e-04
2.899206349206349120e+00,2.371622989604271509e-05,-1.081364511955334594e-04
2.899999999999999911e+00,7.573616229518852683e-06,-1.136492408532465223e-04
2.900793650793650702e+00,-9.049266518912207688e-06,-1.238173188486921836e-04
2.901587301587301493e+00,-2.409962955314266025e-05,-1.374894483463960854e-04
2.902380952380952284e+00,-3.562487763180315824e-05,-1.517227983506521565e-04
2.903174603174603075e+00,-4.209561889481516664e-05,-1.622232616959896618e-04
2.903968253968253865e+00,-4.268349238047013420e-05,-1.642010583562351770e-04
2.904761904761904656e+00,-3.742308289953080416e-05,-1.534724823787376048e-04
2.905555555555555447e+00,-2.721037179935254470e-05,-1.275300654176769115e-04
2.906349206349206238e+00,-1.363511787464698785e-05,-8.629075252554020226e-05
2.907142857142857029e+00,1.308767367058512365e-06,-3.232251451457689216e-05
2.907936507936507819e+00,1.556212467546403544e-05,2.950121000690919225e-05
2.908730158730158610e+00,2.731341545784890038e-05,9.282381125785916435e-05
2.909523809523809401e+00,3.522873904154334452e-05,1.509080868108591460e-04
2.910317460317460192e+00,3.857145656025262408e-05,1.977785274870352415e-04
2.911111111111110983e+00,3.721440566182980422e-05,2.291694677306925975e-04
2.911904761904761774e+00,3.157033304134116607e-05,2.430974034878622151e-04
2.912698412698412564e+00,2.247366839246336872e-05,2.399672083082492592e-04
2.913492063492063355e+00,1.104027007612530864e-05,2.222304795283718091e-04
2.914285714285714146e+00,-1.478297911225892929e-06,1.937072127982335365e-04
2.915079365079364937e+00,-1.383330655771554393e-05,1.587396471986025979e-04
2.915873015873015728e+00,-2.489619147041819832e-05,1.213677291296984772e-04
2.916666666666666519e+00,-3.374335183980285577e-05,8.470267895287213091e-05
2.917460317460317309e+00,-3.970913101146263308e-05,5.062778252930516358e-05
2.918253968253968100e+00,-4.242107746947713513e-05,1.986987545681008878e-05
2.919047619047618891e+00,-4.183134738253721177e-05,-7.628712005562723524e-06
2.919841269841269682e+00,-3.823898795097187443e-05,-3.220748633088849576e-05
2.920634920634920473e+00,-3.227412221286565791e-05,-5.405596101220339219e-05
2.921428571428571264e+00,-2.481144483731652188e-05,-7.300173721520292051e-05
2.922222222222222054e+00,-1.680966428411546140e-05,-8.856369366771450833e-05
2.923015873015872845e+00,-9.120270795978864089e-06,-1.002092143564251497e-04
2.923809523809523636e+00,-2.337799688641613497e-06,-1.076823835830273239e-04
2.924603174603174427e+00,3.251283933526884729e-06,-1.112537105839374893e-04
2.925396825396825218e+00,7.614221391731158914e-06,-1.117843918622187118e-04
2.926190476190476009e+00,1.085496974088188768e-05,-1.105774344548232001e-04
2.926984126984126799e+00,1.309633734750883591e-05,-1.090664340806343004e-04
2.927777777777777590e+00,1.440839124716235006e-05,-1.084400215507378502e-04
2.928571428571428381e+00,1.479918745808358324e-05,-1.093073836417291048e-04
2.929365079365079172e+00,1.425406956004044259e-05,-1.114877280666982235e-04
2.930158730158729963e+00,1.279243417235496651e-05,-1.139696434157047003e-04
2.930952380952380754e+00,1.051112318619863947e-05,-1.150479672288594492e-04
2.931746031746031544e+00,7.598208346544036495e-06,-1.126159976689747284e-04
2.932539682539682335e+00,4.318519568707118425e-06,-1.045734523672398075e-04
2.933333333333333126e+00,9.820890355345565852e-07,-8.929719616369659655e-05
2.934126984126983917e+00,-2.093728169160735484e-06,-6.609960941878806242e-05
2.934920634920634708e+00,-4.623292355693387697e-06,-3.557136101925613831e-05
2.935714285714285499e+00,-6.391135234279540576e-06,3.036358045594993650e-07
2.936507936507936289e+00,-7.285586051899633350e-06,3.833704474328564416e-05
2.937301587301587080e+00,-7.318532845075209675e-06,7.462395936039999339e-05
2.938095238095238315e+00,-6.622341293564515985e-06,1.052312576859797144e-04
2.938888888888889106e+00,-5.421699141544644161e-06,1.269202706039947897e-04
2.939682539682539897e+00,-3.986746789286867706e-06,1.377206965485070541e-04
2.940476190476190688e+00,-2.579624073511451852e-06,1.372124641056200105e-04
2.941269841269841478e+00,-1.408282736448944807e-06,1.264593401914162053e-04
2.942063492063492269e+00,-5.989238825355931391e-07,1.076460981417648216e-04
2.942857142857143060e+00,-1.923909138094811915e-07,8.355857961764579227e-05
2.943650793650793851e+00,-1.627567983438809651e-07,5.707601470531841815e-05
2.944444444444444642e+00,-4.500458963326909028e-07,3.080880654742896272e-05
2.945238095238095433e+00,-9.936315705007195713e-07,6.935857938787586952e-06
2.946031746031746223e+00,-1.750072686721052257e-06,-1.278882434800763947e-05
2.946825396825397014e+00,-2.683409993628115316e-06,-2.694804473351050222e-05
2.947619047619047805e+00,-3.729441015336991262e-06,-3.439612109369621473e-05
2.948412698412698596e+00,-4.753133391025992865e-06,-3.429763227902807147e-05
2.949206349206349387e+00,-5.528703078685697361e-06,-2.629443909516335223e-05
2.950000000000000178e+00,-5.765217604056807318e-06,-1.074610685976139952e-05
2.950793650793650968e+00,-5.178427596006097781e-06,1.107573158474239803e-05
2.951587301587301759e+00,-3.585880647752014529e-06,3.695970134318685109e-05
2.952380952380952550e+00,-9.920760467153959048e-07,6.394188967638249506e-05
2.953174603174603341e+00,2.363950515110982390e-06,8.866080981944276791e-05
2.953968253968254132e+00,6.013409113239113395e-06,1.077807646110505555e-04
2.954761904761904923e+00,9.317415859496714489e-06,1.183958223332810941e-04
2.955555555555555713e+00,1.157327982719978500e-05,1.183694495719582381e-04
2.956349206349206504e+00,1.214978504823521522e-05,1.065956752982549560e-04
2.957142857142857295e+00,1.062798233128249830e-05,8.317248978482905011e-05
2.957936507936508086e+00,6.922260241518223937e-06,4.947212600200778793e-05
2.958730158730158877e+00,1.356384930886868500e-06,8.092801073285799736e-06
2.959523809523809668e+00,-5.329616388591348768e-06,-3.731592543641586520e-05
2.960317460317460458e+00,-1.205876126158689350e-05,-8.235293999244489808e-05
2.961111111111111249e+00,-1.758268615154190423e-05,-1.222805268443036449e-04
2.961904761904762040e+00,-2.071080540518382309e-05,-1.525335274819080854e-04
2.962698412698412831e+00,-2.056130917464746733e-05,-1.692863509454381205e-04
2.963492063492063622e+00,-1.678233252939928622e-05,-1.700207155685354711e-04
2.964285714285714413e+00,-9.689663348848603539e-06,-1.540126283419181305e-04
2.965079365079365203e+00,-2.730704429291561909e-07,-1.226369464805068127e-04
2.965873015873015994e+00,9.956930865210462234e-06,-7.938561405866378007e-05
2.966666666666666785e+00,1.926973062915724019e-05,-2.952595730802523948e-05
2.967460317460317576e+00,2.609710901743664672e-05,2.060478436441574843e-05
2.968253968253968367e+00,2.939116415209116817e-05,6.457509993110525839e-05
2.969047619047619158e+00,2.885004722841385408e-05,9.691990846401242975e-05
2.969841269841269948e+00,2.494743547727226100e-05,1.140551958348226199e-04
2.970634920634920739e+00,1.876905854861124395e-05,1.148388453843576513e-04
2.971428571428571530e+00,1.171905142977853090e-05,1.006598151186826337e-04
2.972222222222222321e+00,5.187532053511418172e-06,7.506356728739272972e-05
2.973015873015873112e+00,2.646517850428463086e-07,4.303332411237440332e-05
2.973809523809523903e+00,-2.442797806440056928e-06,1.010063336151697524e-05
2.974603174603174693e+00,-2.871661585078810333e-06,-1.855176579509167575e-05
2.975396825396825484e+00,-1.448277772022390059e-06,-3.887256875835663799e-05
2.976190476190476275e+00,1.053463755466011773e-06,-4.851857625250753598e-05
2.976984126984127066e+00,3.706751378261409447e-06,-4.714770924158695660e-05
2.977777777777777857e+00,5.640487000253230553e-06,-3.637283150294959365e-05
2.978571428571428648e+00,6.222884350173787806e-06,-1.937131574793721060e-05
2.979365079365079438e+00,5.185679422551081606e-06,-2.154686993942268704e-07
2.980158730158730229e+00,2.665822133975246723e-06,1.694442786164383915e-05
2.980952380952381020e+00,-8.421509335597210160e-07,2.867115725036187510e-05
2.981746031746031811e+00,-4.611904798575627165e-06,3.283462454348081279e-05
2.982539682539682602e+00,-7.861985829573196952e-06,2.889217409271900111e-05
2.983333333333333393e+00,-9.943884229625889648e-06,1.782870129457612800e-05
2.984126984126984183e+00,-1.049567340239830202e-05,1.820090692353733515e-06
2.984920634920634974e+00,-9.519826934282813689e-06,-1.626220698171962367e-05
2.985714285714285765e+00,-7.363307865926044525e-06,-3.338511007804465414e-05
2.986507936507936556e+00,-4.608772284201045463e-06,-4.684204308757584847e-05
2.987301587301587347e+00,-1.914178776447908388e-06,-5.464983390470063427e-05
2.988095238095238138e+00,1.496618557815867982e-07,-5.582250467083110090e-05
2.988888888888888928e+00,1.221408546142663585e-06,-5.048521267408008349e-05
2.989682539682539719e+00,1.207795444901464653e-06,-3.979881666939436268e-05
2.990476190476190510e+00,2.736420390745108864e-07,-2.570165716901667372e-05
2.991269841269841301e+00,-1.227583987699993476e-06,-1.052428795170529744e-05
2.992063492063492092e+00,-2.862206385009519877e-06,3.436424632555015616e-06
2.992857142857142883e+00,-4.233563148191122976e-06,1.430087715348554743e-05
2.993650793650793673e+00,-5.074400843210772136e-06,2.088935200509114807e-05
2.994444444444444464e+00,-5.289772356269577383e-06,2.286785239128091406e-05
2.995238095238095255e+00,-4.944906814287482370e-06,2.073821187122616404e-05
2.996031746031746046e+00,-4.211761695142655301e-06,1.567529011341599535e-05
2.996825396825396837e+00,-3.298674661553265143e-06,9.243004276673971525e-06
2.997619047619047628e+00,-2.388056668058773916e-06,3.046304563961614154e-06
2.998412698412698418e+00,-1.599966074511476291e-06,-1.611094398063385515e-06
2.999206349206349209e+00,-9.878697199751048094e-07,-3.994444158828852783e-06
3.000000000000000000e+00,-5.605637833845014972e-07,-4.075560203347330250e-06
3.000793650793650791e+00,-3.153296154445168407e-07,-2.508307287364997136e-06
3.001587301587301582e+00,-2.650734428590919130e-07,-4.405095160711148843e-07
3.002380952380952372e+00,-4.465165250394745393e-07,8.064389511640008981e-07
3.003174603174603163e+00,-9.046597279543218640e-07,1.279704246259783418e-07
3.003968253968253954e+00,-1.657500112104956906e-06,-2.990777810969134858e-06
3.004761904761904745e+00,-2.652753566607689123e-06,-8.220380576907332322e-06
3.005555555555555536e+00,-3.734585972181185997e-06,-1.434471101886427770e-05
3.006349206349206327e+00,-4.640956476406194011e-06,-1.948911751238110838e-05
3.007142857142857117e+00,-5.046709575450637626e-06,-2.160831629513734279e-05
3.007936507936507908e+00,-4.651175919831488234e-06,-1.912732901784221877e-05
3.008730158730158699e+00,-3.286181957251581558e-06,-1.153952601162952487e-05
3.009523809523809490e+00,-1.003189194568277329e-06,2.634019689741093115e-07
3.010317460317460281e+00,1.900992492848696273e-06,1.408689846644444064e-05
3.011111111111111072e+00,4.939179807759372014e-06,2.696395947000382629e-05
3.011904761904761862e+00,7.556340999348021422e-06,3.596780412525285819e-05
3.012698412698412653e+00,9.278515545271188753e-06,3.904837837886040557e-05
3.013492063492063444e+00,9.836313839302016448e-06,3.562386841894674648e-05
3.014285714285714235e+00,9.222506935478716407e-06,2.674046071211146427e-05
3.015079365079365026e+00,7.670505013610627696e-06,1.475440934539989701e-05
3.015873015873015817e+00,5.569912350928165084e-06,2.641690584423595870e-06
3.016666666666666607e+00,3.353522077916945027e-06,-6.846782367161723491e-06
3.017460317460317398e+00,1.392057187737555632e-06,-1.192798812728904385e-05
3.018253968253968189e+00,-7.752353896792455156e-08,-1.221599479659030212e-05
3.019047619047618980e+00,-9.796557439623435543e-07,-8.732073367152755043e-06
3.019841269841269771e+00,-1.386805153117232492e-06,-3.518128747649347341e-06
3.020634920634920562e+00,-1.476508575279822890e-06,1.014881801728965621e-06
3.021428571428571352e+00,-1.472969031985357152e-06,2.809905815533252139e-06
3.022222222222222143e+00,-1.586400867578964423e-06,7.610121107802969029e-07
3.023015873015872934e+00,-1.961160291867509562e-06,-4.965308859614350218e-06
3.023809523809523725e+00,-2.641521778935631372e-06,-1.295814703094670353e-05
3.024603174603174516e+00,-3.561052164028125090e-06,-2.092631076061349658e-05
3.025396825396825307e+00,-4.556882208423822452e-06,-2.630307106371032136e-05
3.026190476190476097e+00,-5.404571610093701357e-06,-2.693277602271850960e-05
3.026984126984126888e+00,-5.865264337846820450e-06,-2.165700124367951596e-05
3.027777777777777679e+00,-5.736196820878978086e-06,-1.064762004848709753e-05
3.028571428571428470e+00,-4.897221593456284971e-06,4.591731496454308156e-06
3.029365079365079261e+00,-3.347266443082617525e-06,2.154440007903689835e-05
3.030158730158730052e+00,-1.224623368685537809e-06,3.723156369070555944e-05
3.030952380952380842e+00,1.195091228601814736e-06,4.885994809033508891e-05
3.031746031746031633e+00,3.527909400668457581e-06,5.441795491700452357e-05
3.032539682539682424e+00,5.338078936117590630e-06,5.308973258104893015e-05
3.033333333333333215e+00,6.216564842672102072e-06,4.539968542868096633e-05
3.034126984126984006e+00,5.868117494891897657e-06,3.306006234732929036e-05
3.034920634920634797e+00,4.187255027535640066e-06,1.856149186652153937e-05
3.035714285714285587e+00,1.302462813681045741e-06,4.605973511963930880e-06
3.036507936507936378e+00,-2.425974616444070125e-06,-6.482780550095868846e-06
3.037301587301587169e+00,-6.457071541660581911e-06,-1.323517688287520498e-05
3.038095238095237960e+00,-1.015743410572102821e-05,-1.529041988183741296e-05
3.038888888888888751e+00,-1.290476274689849767e-05,-1.337365608111721135e-05
3.039682539682539542e+00,-1.418506941963960989e-05,-9.005369723049621485e-06
3.040476190476190332e+00,-1.367246127777960488e-05,-4.025491250669548268e-06
3.041269841269841123e+00,-1.128940041908316657e-05,-7.384653706528284170e-08
3.042063492063491914e+00,-7.242968845654498445e-06,1.813143634123542663e-06
3.042857142857142705e+00,-2.022502139015308362e-06,1.369791098977171405e-06
3.043650793650793496e+00,3.659080747209450472e-06,-9.970255265997399824e-07
3.044444444444444287e+00,8.983532209573249765e-06,-4.498150039676604953e-06
3.045238095238095077e+00,1.318270627437414939e-05,-8.305214204812689973e-06
3.046031746031745868e+00,1.568926445896377643e-05,-1.180964562351039620e-05
3.046825396825396659e+00,1.624016209546700335e-05,-1.472348576398273341e-05
3.047619047619047450e+00,1.490731439607546778e-05,-1.703008749140971095e-05
3.048412698412698241e+00,1.205386568297232748e-05,-1.885128931141850047e-05
3.049206349206349032e+00,8.235558899067747877e-06,-2.031179286465408437e-05
3.049999999999999822e+00,4.078549357565681848e-06,-2.145750853983317350e-05
3.050793650793650613e+00,1.652252030044791043e-07,-2.224496419523406683e-05
3.051587301587301404e+00,-3.049876452699381907e-06,-2.258568001352527122e-05
3.052380952380952195e+00,-5.285523064545715655e-06,-2.241297620073502261e-05
3.053174603174602986e+00,-6.443472245875134348e-06,-2.173732835219299874e-05
3.053968253968253777e+00,-6.590932494425033720e-06,-2.066461390855858218e-05
3.054761904761904567e+00,-5.924535188302799819e-06,-1.936574855435025457e-05
3.055555555555555358e+00,-4.722096582364765164e-06,-1.800362351816206267e-05
3.056349206349206149e+00,-3.286790902208117532e-06,-1.663981430522645344e-05
3.057142857142856940e+00,-1.889558343754720185e-06,-1.515439650387220151e-05
3.057936507936507731e+00,-7.188651412206910270e-07,-1.321404970961391660e-05
3.058730158730158522e+00,1.508461080004153581e-07,-1.031517002960735603e-05
3.059523809523809312e+00,7.627234667719624450e-07,-5.910193126274539070e-06
3.060317460317460103e+00,1.250966183242883530e-06,4.010483095314000044e-07
3.061111111111110894e+00,1.791905337954793255e-06,8.662089021877327424e-06
3.061904761904761685e+00,2.548093880641543642e-06,1.840214143889243575e-05
3.062698412698412920e+00,3.621865609039922435e-06,2.860242027805153859e-05
3.063492063492063711e+00,5.028786217253967909e-06,3.783267004188665923e-05
3.064285714285714501e+00,6.692429348615464963e-06,4.454977063340968233e-05
3.065079365079365292e+00,8.455713325676097618e-06,4.748550801198390329e-05
3.065873015873016083e+00,1.010353346930873936e-05,4.600366259995045234e-05
3.066666666666666874e+00,1.139454310936125226e-05,4.030247697832565969e-05
3.067460317460317665e+00,1.210163362313326199e-05,3.138446055507425103e-05
3.068253968253968456e+00,1.205767410528681569e-05,2.079498441254655960e-05
3.069047619047619246e+00,1.119715432780964422e-05,1.021193094182060119e-05
3.069841269841270037e+00,9.580774789500348876e-06,1.018813017504061248e-06
3.070634920634920828e+00,7.392596655296759262e-06,-6.004356527583026345e-06
3.071428571428571619e+00,4.907275707793228228e-06,-1.078270799957384705e-05
3.072222222222222410e+00,2.433844895849436625e-06,-1.382371614588165363e-05
3.073015873015873201e+00,2.484899334823944142e-07,-1.592778799862153930e-05
3.073809523809523991e+00,-1.469280269306585013e-06,-1.784187446492232563e-05
3.074603174603174782e+00,-2.683371957589263700e-06,-1.997781567292335788e-05
3.075396825396825573e+00,-3.519054364551949489e-06,-2.228552626070804361e-05
3.076190476190476364e+00,-4.243897130027092034e-06,-2.430785085639854113e-05
3.076984126984127155e+00,-5.209465589318771805e-06,-2.537498856277143860e-05
3.077777777777777946e+00,-6.760071973413630493e-06,-2.485120922741512734e-05
3.078571428571428736e+00,-9.124247557218576282e-06,-2.234251453453821019e-05
3.079365079365079527e+00,-1.231230046064786609e-05,-1.780644388520130601e-05
3.080158730158730318e+00,-1.604725427497292789e-05,-1.155218777488059750e-05
3.080952380952381109e+00,-1.975506329152207797e-05,-4.155922227325434868e-06
3.081746031746031900e+00,-2.263185743795645242e-05,3.669051407753179332e-06
3.082539682539682691e+00,-2.379024711148134679e-05,1.120965043720969159e-05
3.083333333333333481e+00,-2.246454108216060038e-05,1.786559957940884327e-05
3.084126984126984272e+00,-1.823058056373342667e-05,2.321019612687186357e-05
3.084920634920635063e+00,-1.117815662053555156e-05,2.698597860534811006e-05
3.085714285714285854e+00,-1.973398662364718033e-06,2.904983866549227698e-05
3.086507936507936645e+00,8.227237181599297689e-06,2.931022425168214714e-05
3.087301587301587436e+00,1.800380541104990945e-05,2.770402456581282834e-05
3.088095238095238226e+00,2.598196824856960639e-05,2.423426975355560541e-05
3.088888888888889017e+00,3.113259506570214381e-05,1.904878002425535927e-05
3.089682539682539808e+00,3.297103433862885058e-05,1.251191093976154063e-05
3.090476190476190599e+00,3.160113736613156279e-05,5.223064405171515242e-06
3.091269841269841390e+00,2.760472453546656768e-05,-2.039106124628239541e-06
3.092063492063492181e+00,2.182867517977643928e-05,-8.438921278030449248e-06
3.092857142857142971e+00,1.514933845919291664e-05,-1.324588918884089434e-05
3.093650793650793762e+00,8.290753100630228098e-06,-1.600082079129624035e-05
3.094444444444444553e+00,1.744735676219202839e-06,-1.664329228393275059e-05
3.095238095238095344e+00,-4.201494062353316271e-06,-1.555756849277756224e-05
3.096031746031746135e+00,-9.366910073911414715e-06,-1.350821091642283620e-05
3.096825396825396925e+00,-1.357047369984141237e-05,-1.146630003781231036e-05
3.097619047619047716e+00,-1.657739787854256613e-05,-1.036191797264530382e-05
3.098412698412698507e+00,-1.812761547501226525e-05,-1.082368836809173660e-05
3.099206349206349298e+00,-1.803489657524186504e-05,-1.297397414751876546e-05
3.100000000000000089e+00,-1.631451795874597213e-05,-1.634020091032048420e-05
3.100793650793650880e+00,-1.328841007701203944e-05,-1.992211248763120927e-05
3.101587301587301670e+00,-9.625503908823779975e-06,-2.242118357881224455e-05
3.102380952380952461e+00,-6.292210744348654523e-06,-2.259233013951658829e-05
3.103174603174603252e+00,-4.408636756798948952e-06,-1.963013236805771766e-05
3.103968253968254043e+00,-5.029903875176240964e-06,-1.347343896152159084e-05
3.104761904761904834e+00,-8.895872661356736040e-06,-4.922480128172681859e-06
3.105555555555555625e+00,-1.620774380188042788e-05,4.486681733695873438e-06
3.106349206349206415e+00,-2.648797712558079805e-05,1.283131702300398010e-05
3.107142857142857206e+00,-3.856147053358691227e-05,1.828397704664102240e-05
3.107936507936507997e+00,-5.067053543935278240e-05,1.959257384121292515e-05
3.108730158730158788e+00,-6.071261595421470724e-05,1.642485703962849906e-05
3.109523809523809579e+00,-6.656942670212493362e-05,9.487203736253298835e-06
3.110317460317460370e+00,-6.647761803816134608e-05,3.923466871296708864e-07
3.111111111111111160e+00,-5.937676302787344454e-05,-8.688996762416442959e-06
3.111904761904761951e+00,-4.516717147012594977e-05,-1.551392857250547677e-05
3.112698412698412742e+00,-2.482224110200559246e-05,-1.828460920633804827e-05
3.113492063492063533e+00,-3.253274086714638587e-07,-1.607935256840438247e-05
3.114285714285714324e+00,2.556750249062538045e-05,-9.089550428403010162e-06
3.115079365079365115e+00,4.970566914071425911e-05,1.406995451159683871e-06
3.115873015873015905e+00,6.900127213685387621e-05,1.333734381723075316e-05
3.116666666666666696e+00,8.088388676206235766e-05,2.431034696313540011e-05
3.117460317460317487e+00,8.367210385081288559e-05,3.214516375651570369e-05
3.118253968253968278e+00,7.680639607219666974e-05,3.531584520058235672e-05
3.119047619047619069e+00,6.092774852044696075e-05,3.322295929021848340e-05
3.119841269841269860e+00,3.782000259603295392e-05,2.626289510880752668e-05
3.120634920634920650e+00,1.024607717491440810e-05,1.570793204175599349e-05
3.121428571428571441e+00,-1.830087410468042629e-05,3.431842930113944982e-06
3.122222222222222232e+00,-4.392868702225061651e-05,-8.467495216614293112e-06
3.123015873015873023e+00,-6.276675376633533395e-05,-1.807535327958270045e-05
3.123809523809523814e+00,-7.146772330508348303e-05,-2.400854863225418103e-05
3.124603174603174605e+00,-6.774135360645129026e-05,-2.562661559419783473e-05
3.125396825396825395e+00,-5.082711877422247879e-05,-2.306850106307168654e-05
3.126190476190476186e+00,-2.179406130493578980e-05,-1.713193358157224358e-05
3.126984126984126977e+00,1.642337319996902098e-05,-9.053493210013884086e-06
3.127777777777777768e+00,5.929843389568971635e-05,-2.575413719283024355e-07
3.128571428571428559e+00,1.012844524822773017e-04,7.874985378556380466e-06
3.129365079365079350e+00,1.366208949629018861e-04,1.419231054726142474e-05
3.130158730158730140e+00,1.602507462907534980e-04,1.790326971655336664e-05
3.130952380952380931e+00,1.686804452903775599e-04,1.865173623464401145e-05
3.131746031746031722e+00,1.606021461792080118e-04,1.653426827855069905e-05
3.132539682539682513e+00,1.371397906266364419e-04,1.206530632045351878e-05
3.133333333333333304e+00,1.016632815300017229e-04,6.096399812752604380e-06
3.134126984126984095e+00,5.920430142144539104e-05,-3.058138817545878307e-07
3.134920634920634885e+00,1.557839208615414484e-05,-6.019030018203652699e-06
3.135714285714285676e+00,-2.363133173420981211e-05,-1.005184974019612927e-05
3.136507936507936467e+00,-5.404179426224897475e-05,-1.173353617454437337e-05
3.137301587301587258e+00,-7.319867643990025452e-05,-1.086925345074557849e-05
3.138095238095238049e+00,-8.091262922040317143e-05,-7.818499667344967232e-06
3.138888888888888840e+00,-7.912705316021952930e-05,-3.463789659559416190e-06
3.139682539682539630e+00,-7.134791442126030313e-05,9.422224694143678151e-07
3.140476190476190421e+00,-6.177426250834566301e-05,4.036707578945771574e-06
3.141269841269841212e+00,-5.434136030179612310e-05,4.673048826743887908e-06
3.142063492063492003e+00,-5.189784790313086018e-05,2.248015328997556660e-06
3.142857142857142794e+00,-5.568346378600557377e-05,-3.056578287067241920e-06
3.143650793650793585e+00,-6.518317990118683203e-05,-1.020754882278229376e-05
3.144444444444444375e+00,-7.834414249374973085e-05,-1.748831066980149855e-05
3.145238095238095166e+00,-9.207638962880014793e-05,-2.289194435078753851e-05
3.146031746031745957e+00,-1.029210150179282659e-04,-2.464822666499786572e-05
3.146825396825396748e+00,-1.077555743739999823e-04,-2.173588412762537738e-05
3.147619047619047539e+00,-1.044114933454939333e-04,-1.422527604086844033e-05
3.148412698412698330e+00,-9.209893461812460372e-05,-3.342851204185687224e-06
3.149206349206349120e+00,-7.156820886667517934e-05,8.773337181987755204e-06
3.149999999999999911e+00,-4.498012979719009225e-05,1.957370511467672344e-05
3.150793650793650702e+00,-1.550645799020538513e-05,2.673051693427181959e-05
3.151587301587301493e+00,1.326833812548194968e-05,2.874432541778908446e-05
3.152380952380952284e+00,3.802482994567024047e-05,2.536499318728372066e-05
3.153174603174603075e+00,5.631120771748387565e-05,1.770853076670685487e-05
3.153968253968253865e+00,6.691752269060738617e-05,8.019476952243994911e-06
3.154761904761904656e+00,6.993126153296796272e-05,-8.843143239130623621e-07
3.155555555555555447e+00,6.649880430297553876e-05,-6.356174075103222291e-06
3.156349206349206238e+00,5.842899079796823016e-05,-6.656557296398651003e-06
3.157142857142857029e+00,4.781668973419425618e-05,-1.465860568333658263e-06
3.157936507936507819e+00,3.680947077446831750e-05,7.988577911700257459e-06
3.158730158730158610e+00,2.752175305590543771e-05,1.924410304264288692e-05
3.159523809523809401e+00,2.198595558493820153e-05,2.927060634119100401e-05
3.160317460317460192e+00,2.198723696155656236e-05,3.529733586708765921e-05
3.161111111111110983e+00,2.869462084345499815e-05,3.555111078316109280e-05
3.161904761904761774e+00,4.215283487682088730e-05,2.969385760566495882e-05
3.162698412698412564e+00,6.084698147109028583e-05,1.885174805523052489e-05
3.163492063492063355e+00,8.159351814495198246e-05,5.256840680457766654e-06
3.164285714285714146e+00,9.990517285161960046e-05,-8.371689970460436596e-06
3.165079365079364937e+00,1.107804434606631493e-04,-1.952422399906318919e-05
3.165873015873015728e+00,1.097001507613611554e-04,-2.649256229823312514e-05
3.166666666666666519e+00,9.357232368905882400e-05,-2.871729802132055943e-05
3.167460317460317309e+00,6.144848438644445970e-05,-2.682047559094408924e-05
3.168253968253968100e+00,1.494084383688126107e-05,-2.233405696594456183e-05
3.169047619047618891e+00,-4.169028921350759653e-05,-1.721130400196720688e-05
3.169841269841269682e+00,-1.018363930942134491e-04,-1.326279128924500041e-05
3.170634920634920473e+00,-1.573038151037389211e-04,-1.167512498569865282e-05
3.171428571428571264e+00,-1.995541274451509569e-04,-1.274136454800826136e-05
3.172222222222222054e+00,-2.212868688292924822e-04,-1.586445856064878904e-05
3.173015873015872845e+00,-2.180590561061483126e-04,-1.980978422210043883e-05
3.173809523809523636e+00,-1.895350768006655252e-04,-2.310957974914303921e-05
3.174603174603174427e+00,-1.399866225486822672e-04,-2.448595353872828960e-05
3.175396825396825218e+00,-7.781134209195092173e-05,-2.316909627842626262e-05
3.176190476190476009e+00,-1.406459786495526244e-05,-1.903424076353509313e-05
3.176984126984126799e+00,3.975581648653059546e-05,-1.254625900207482243e-05
3.177777777777777590e+00,7.421713342506783978e-05,-4.563966387968438167e-06
3.178571428571428381e+00,8.416063845240318974e-05,3.903303780483974422e-06
3.179365079365079172e+00,7.002193764084174547e-05,1.189276367976892035e-05
3.180158730158729963e+00,3.785131819249892734e-05,1.858402117355352154e-05
3.180952380952380754e+00,-2.040831650499746733e-06,2.329982344751065003e-05
3.181746031746031544e+00,-3.750124931047258141e-05,2.546906326514305271e-05
3.182539682539682335e+00,-5.740059211280197838e-05,2.462584052507208856e-05
3.183333333333333126e+00,-5.421910886835548980e-05,2.049438114820778019e-05
3.184126984126983917e+00,-2.571165446604396909e-05,1.315854288494452688e-05
3.184920634920634708e+00,2.472263832437956473e-05,3.258420555935784350e-06
3.185714285714285499e+00,8.898187951436066761e-05,-7.883548536354838067e-06
3.186507936507936289e+00,1.561847549096158784e-04,-1.831059496900707138e-05
3.187301587301587080e+00,2.150202204624219028e-04,-2.571713097426225637e-05
3.188095238095238315e+00,2.559262348559554457e-04,-2.795270237611407690e-05
3.188888888888889106e+00,2.726386264768959275e-04,-2.362873643944650513e-05
3.189682539682539897e+00,2.628951546385959511e-04,-1.264334644689301822e-05
3.190476190476190688e+00,2.283212791618883738e-04,3.568937377613121618e-06
3.191269841269841478e+00,1.736862202752318014e-04,2.219207178119776325e-05
3.192063492063492269e+00,1.057895914894155384e-04,3.959638843695246233e-05
3.192857142857143060e+00,3.224581451224861666e-05,5.218779812604190747e-05
3.193650793650793851e+00,-3.960527745514844691e-05,5.730021476599764637e-05
3.194444444444444642e+00,-1.035073541607790966e-04,5.386519296639501279e-05
3.195238095238095433e+00,-1.547540983661468007e-04,4.265933298579697552e-05
3.196031746031746223e+00,-1.903420802575739171e-04,2.606551006872225338e-05
3.196825396825397014e+00,-2.089106018372615357e-04,7.431461992408095498e-06
3.197619047619047805e+00,-2.105993756477838284e-04,-9.785334123220106113e-06
3.198412698412698596e+00,-1.969202395328784820e-04,-2.285675886610430017e-05
3.199206349206349387e+00,-1.706481888662341449e-04,-3.039581203150283997e-05
3.200000000000000178e+00,-1.356489359938801531e-04,-3.259437411446998716e-05
3.200793650793650968e+00,-9.654575327882607984e-05,-3.103741150094088095e-05
3.201587301587301759e+00,-5.820301465502725777e-05,-2.815248922773560091e-05
3.202380952380952550e+00,-2.510831096872471609e-05,-2.644528386448173030e-05
3.203174603174603341e+00,-7.904607407791873914e-07,-2.772500541514493871e-05
3.203968253968254132e+00,1.260930061764826453e-05,-3.252910843528796343e-05
3.204761904761904923e+00,1.455469663948104097e-05,-3.991222602777321925e-05
3.205555555555555713e+00,6.113832195875786985e-06,-4.767211463336347085e-05
3.206349206349206504e+00,-1.023572206984812012e-05,-5.296188143973353597e-05
3.207142857142857295e+00,-3.095929776321483447e-05,-5.311896017466354839e-05
3.207936507936508086e+00,-5.193866583037707658e-05,-4.646957963386530416e-05
3.208730158730158877e+00,-6.903306682101032832e-05,-3.286942698246535542e-05
3.209523809523809668e+00,-7.867496745681775469e-05,-1.381735957678594742e-05
3.210317460317460458e+00,-7.840477265751639492e-05,7.892614409798095305e-06
3.211111111111111249e+00,-6.722164791003298326e-05,2.887371231149962967e-05
3.211904761904762040e+00,-4.566194519130065008e-05,4.598657689422981160e-05
3.212698412698412831e+00,-1.560842568075757728e-05,5.706382194596781664e-05
3.213492063492063622e+00,2.007726099437601465e-05,6.131514564759674428e-05
3.214285714285714413e+00,5.798235670008241622e-05,5.932696449642836959e-05
3.215079365079365203e+00,9.456085954691904937e-05,5.270897204126172238e-05
3.215873015873015994e+00,1.265276996230796879e-04,4.354309128384923326e-05
3.216666666666666785e+00,1.512206177207342430e-04,3.382301210976781014e-05
3.217460317460317576e+00,1.668834248907345968e-04,2.503789793061345041e-05
3.218253968253968367e+00,1.728055203606997299e-04,1.798083495464610680e-05
3.219047619047619158e+00,1.692832219426772071e-04,1.278170954156000794e-05
3.219841269841269948e+00,1.574165466345970558e-04,9.097387519316656984e-06
3.220634920634920739e+00,1.387853188302074273e-04,6.357126073664825689e-06
3.221428571428571530e+00,1.150685940670504251e-04,3.970697593284892759e-06
3.222222222222222321e+00,8.769679917130139633e-05,1.454786049924827557e-06
3.223015873015873112e+00,5.764012390512169448e-05,-1.511480476313317023e-06
3.223809523809523903e+00,2.541736405204091464e-05,-5.065228947681375630e-06
3.224603174603174693e+00,-8.640946133038440144e-06,-9.149227213814476321e-06
3.225396825396825484e+00,-4.391705510875200711e-05,-1.351562470095126549e-05
3.226190476190476275e+00,-7.896322096924157121e-05,-1.775980495175681425e-05
3.226984126984127066e+00,-1.111371604061399664e-04,-2.139062476403254837e-05
3.227777777777777857e+00,-1.366808160479168483e-04,-2.392477747201645410e-05
3.228571428571428648e+00,-1.513808895455113113e-04,-2.497971217468045058e-05
3.229365079365079438e+00,-1.517030688089340492e-04,-2.433947613732763299e-05
3.230158730158730229e+00,-1.360462011799811128e-04,-2.198079174181314920e-05
3.230952380952381020e+00,-1.056519792303103184e-04,-1.806461665597013116e-05
3.231746031746031811e+00,-6.479263797545145131e-05,-1.291141654134269548e-05
3.232539682539682602e+00,-2.010589727572845387e-05,-6.979942077754121833e-06
3.233333333333333393e+00,2.076075398872092318e-05,-8.575305803211406995e-07
3.234126984126984183e+00,5.082232541765345182e-05,4.750451277397810563e-06
