Timestamp,Flexor carpi radialis,Extensor digitorum
2.000000000000000000e+00,1.817480555526738074e-06,-7.704761337750360388e-06
2.000793650793650791e+00,2.302693309804458286e-06,3.698455366501724631e-06
2.001587301587301582e+00,7.788026756276876524e-07,1.359517318767737915e-05
2.002380952380952372e+00,-2.455538677649405809e-06,1.992066912241320737e-05
2.003174603174603163e+00,-6.746668197848931855e-06,2.138766523403107266e-05
2.003968253968253954e+00,-1.123158874005664150e-05,1.777324510291902044e-05
2.004761904761904745e+00,-1.502901544292367283e-05,9.942867701765015342e-06
2.005555555555555536e+00,-1.742948252804879660e-05,-3.891127290852562695e-07
2.006349206349206327e+00,-1.804050151731677063e-05,-1.109640348570377173e-05
2.007142857142857117e+00,-1.685420959224182154e-05,-2.015624929064132009e-05
2.007936507936507908e+00,-1.422315836708548500e-05,-2.610229530372108037e-05
2.008730158730158699e+00,-1.075152848311972258e-05,-2.829711757315928432e-05
2.009523809523809490e+00,-7.131167770208040808e-06,-2.696832002141325244e-05
2.010317460317460281e+00,-3.969522423386906426e-06,-2.302374631430336270e-05
2.011111111111111072e+00,-1.660863982217213397e-06,-1.771674928505688343e-05
2.011904761904761862e+00,-3.363990234048568383e-07,-1.226234520534293047e-05
2.012698412698412653e+00,1.029730983965339510e-07,-7.510405328484144521e-06
2.013492063492063444e+00,-9.996101355911924711e-08,-3.762104507152220174e-06
2.014285714285714235e+00,-6.541935164929633345e-07,-7.717526122534257041e-07
2.015079365079365026e+00,-1.287644744714491202e-06,2.078988945254170389e-06
2.015873015873015817e+00,-1.773909895737290164e-06,5.493845150067009954e-06
2.016666666666666607e+00,-1.931753820754300266e-06,9.948434193271904521e-06
2.017460317460317398e+00,-1.620993203783787575e-06,1.544730705998922414e-05
2.018253968253968189e+00,-7.512692843710049572e-07,2.143902098992789395e-05
2.019047619047618980e+00,6.960231046152551314e-07,2.693852267066013169e-05
2.019841269841269771e+00,2.646049374534263820e-06,3.083590928522871450e-05
2.020634920634920562e+00,4.925973930761599529e-06,3.228889478372869181e-05
2.021428571428571352e+00,7.286789436441027671e-06,3.104443605578627660e-05
2.022222222222222143e+00,9.447401883275221876e-06,2.754976866044038882e-05
2.023015873015872934e+00,1.114597072186096715e-05,2.279657333732793784e-05
2.023809523809523725e+00,1.218115012319389597e-05,1.795489004367898438e-05
2.024603174603174516e+00,1.243229941831359592e-05,1.394092672414154319e-05
2.025396825396825307e+00,1.185844521893285619e-05,1.108793065728187128e-05
2.026190476190476097e+00,1.048477900008265435e-05,9.046050376857380377e-06
2.026984126984126888e+00,8.388496673324575748e-06,6.946598413654763853e-06
2.027777777777777679e+00,5.692339779841559522e-06,3.765580643115158977e-06
2.028571428571428470e+00,2.566983449630002081e-06,-1.249601109619768468e-06
2.029365079365079261e+00,-7.639433969830004569e-07,-8.242328653031562479e-06
2.030158730158730052e+00,-4.026800629862182752e-06,-1.661052071248950648e-05
2.030952380952380842e+00,-6.918619487705168681e-06,-2.511171761903884252e-05
2.031746031746031633e+00,-9.148666922286982639e-06,-3.217150354621873371e-05
2.032539682539682424e+00,-1.049340193047932768e-05,-3.629656102755131266e-05
2.033333333333333215e+00,-1.084723614853871839e-05,-3.646378712684754018e-05
2.034126984126984006e+00,-1.024808616022040471e-05,-3.236832916093181382e-05
2.034920634920634797e+00,-8.864088014023103996e-06,-2.446775642697188294e-05
2.035714285714285587e+00,-6.943757279700735161e-06,-1.383764168032144210e-05
2.036507936507936378e+00,-4.747703999517333932e-06,-1.918810947597502714e-06
2.037301587301587169e+00,-2.486963891333729773e-06,9.742747605996406057e-06
2.038095238095237960e+00,-2.884591436664438735e-07,1.969146541545629481e-05
2.038888888888888751e+00,1.803970181545595462e-06,2.668000017960049411e-05
2.039682539682539542e+00,3.797838231592624234e-06,2.974961795212580266e-05
2.040476190476190332e+00,5.704223645573030138e-06,2.832998330242462483e-05
2.041269841269841123e+00,7.492499409532779195e-06,2.238261946024232139e-05
2.042063492063491914e+00,9.064258745376531064e-06,1.254883940915522572e-05
2.042857142857142705e+00,1.025674599185360683e-05,2.092253467839352464e-07
2.043650793650793496e+00,1.087695502813268107e-05,-1.264049073664773520e-05
2.044444444444444287e+00,1.075729524682870508e-05,-2.372764387835732061e-05
2.045238095238095077e+00,9.814837470540358958e-06,-3.098422629209494629e-05
2.046031746031745868e+00,8.092356233065467775e-06,-3.302477445631426514e-05
2.046825396825396659e+00,5.764092728788512595e-06,-2.946697389326058053e-05
2.047619047619047450e+00,3.102321236810902637e-06,-2.099961264858885625e-05
2.048412698412698241e+00,4.168911914426804372e-07,-9.186353779868996496e-06
2.049206349206349032e+00,-2.009587725955367234e-06,3.930914220323209397e-06
2.049999999999999822e+00,-3.969050479937029641e-06,1.631414739920860886e-05
2.050793650793650613e+00,-5.346796641357829266e-06,2.636254497715795090e-05
2.051587301587301404e+00,-6.114699183801385689e-06,3.318225631371013988e-05
2.052380952380952195e+00,-6.310569995086573420e-06,3.663247290345149652e-05
2.053174603174602986e+00,-6.016104708325627010e-06,3.716393381769462145e-05
2.053968253968253777e+00,-5.340662873056585890e-06,3.553398660255310668e-05
2.054761904761904567e+00,-4.411649636341121652e-06,3.251139082671100167e-05
2.055555555555555358e+00,-3.367498999087419961e-06,2.866356301655151838e-05
2.056349206349206149e+00,-2.347627553189690570e-06,2.426827933959029634e-05
2.057142857142856940e+00,-1.475903488995137586e-06,1.934062806856490376e-05
2.057936507936507731e+00,-8.393757722239030531e-07,1.373304557373592053e-05
2.058730158730158522e+00,-4.692299304099304733e-07,7.257828362356231103e-06
2.059523809523809312e+00,-3.326332681968956979e-07,-2.049363861689069461e-07
2.060317460317460103e+00,-3.410441719324603804e-07,-8.628049450936019517e-06
2.061111111111110894e+00,-3.744747024465536001e-07,-1.778448647543456930e-05
2.061904761904761685e+00,-3.151617123754136190e-07,-2.721706801097177681e-05
2.062698412698412920e+00,-8.048243699800243423e-08,-3.623271114063233100e-05
2.063492063492063711e+00,3.551322519199314520e-07,-4.393153705111511019e-05
2.064285714285714501e+00,9.560531115405494248e-07,-4.928612479013443190e-05
2.065079365079365292e+00,1.639885031277787396e-06,-5.128262194327516855e-05
2.065873015873016083e+00,2.304935200675022099e-06,-4.911934730496122700e-05
2.066666666666666874e+00,2.860812738672789414e-06,-4.243240302772864544e-05
2.067460317460317665e+00,3.251564889656827815e-06,-3.148911908091706600e-05
2.068253968253968456e+00,3.464035771242661016e-06,-1.727191309322720952e-05
2.069047619047619246e+00,3.520130701684823025e-06,-1.388166589308324794e-06
2.069841269841270037e+00,3.457893654117697792e-06,1.420095651980679761e-05
2.070634920634920828e+00,3.310046392624989413e-06,2.755904530344855183e-05
2.071428571428571619e+00,3.088455124441827212e-06,3.713356512652374802e-05
2.072222222222222410e+00,2.779507342407341088e-06,4.198275910076550778e-05
2.073015873015873201e+00,2.350647647696919793e-06,4.182927250977767154e-05
2.073809523809523991e+00,1.764515050547411947e-06,3.697958426030482942e-05
2.074603174603174782e+00,9.955198696188751050e-07,2.818970952836878831e-05
2.075396825396825573e+00,4.420157688707767873e-08,1.654795542639462893e-05
2.076190476190476364e+00,-1.053714579256911675e-06,3.403495762527437870e-06
2.076984126984127155e+00,-2.224886674513087049e-06,-9.678386247545057373e-06
2.077777777777777946e+00,-3.362308145236053455e-06,-2.098661186707732131e-05
2.078571428571428736e+00,-4.334542996279872679e-06,-2.881615724345150872e-05
2.079365079365079527e+00,-4.999645056662356390e-06,-3.172609862071919013e-05
2.080158730158730318e+00,-5.224572274260037349e-06,-2.887180241152425815e-05
2.080952380952381109e+00,-4.911350366881007280e-06,-2.032239252770742341e-05
2.081746031746031900e+00,-4.028834917130345454e-06,-7.247034758958924634e-06
2.082539682539682691e+00,-2.643453606890380098e-06,8.127380281255839779e-06
2.083333333333333481e+00,-9.362330829941682575e-07,2.282361058909599560e-05
2.084126984126984272e+00,8.083867901454222199e-07,3.364469728100120673e-05
2.084920634920635063e+00,2.249592870098499553e-06,3.782061512253075217e-05
2.085714285714285854e+00,3.066122122375716026e-06,3.363028908065145378e-05
2.086507936507936645e+00,3.039384824936284040e-06,2.086002179430637037e-05
2.087301587301587436e+00,2.116465436608198415e-06,9.899711020398499791e-07
2.088095238095238226e+00,4.324323964731715810e-07,-2.294733787776329331e-05
2.088888888888889017e+00,-1.713890232667630043e-06,-4.682727002996856370e-05
2.089682539682539808e+00,-3.921556958165070417e-06,-6.613945909955177595e-05
2.090476190476190599e+00,-5.768022314562051180e-06,-7.681947519428935145e-05
2.091269841269841390e+00,-6.888226856073231481e-06,-7.605482991317072481e-05
2.092063492063492181e+00,-7.036320235530096621e-06,-6.290190215206954661e-05
2.092857142857142971e+00,-6.121426935996593067e-06,-3.856574397077363242e-05
2.093650793650793762e+00,-4.215782512276600755e-06,-6.252634967151149183e-06
2.094444444444444553e+00,-1.538153380018501342e-06,2.939554630527781555e-05
2.095238095238095344e+00,1.582078335020187692e-06,6.316190797998368078e-05
2.096031746031746135e+00,4.752980526306482715e-06,9.020030377658576511e-05
2.096825396825396925e+00,7.571763412375589572e-06,1.068373070741228371e-04
2.097619047619047716e+00,9.672443917276395204e-06,1.110636626782833585e-04
2.098412698412698507e+00,1.076558078053272872e-05,1.026649359483545771e-04
2.099206349206349298e+00,1.067040783939643312e-05,8.305339510200461322e-05
2.100000000000000089e+00,9.341611798665315025e-06,5.491909966842356642e-05
2.100793650793650880e+00,6.892219375689343716e-06,2.180789701382993061e-05
2.101587301587301670e+00,3.611315779623947559e-06,-1.231058398909655304e-05
2.102380952380952461e+00,-2.910454487297228417e-08,-4.346262014551427786e-05
2.103174603174603252e+00,-3.388879723544397071e-06,-6.807539166924300592e-05
2.103968253968254043e+00,-5.709556128843019312e-06,-8.336330629680243688e-05
2.104761904761904834e+00,-6.210732734036502084e-06,-8.767138305647887862e-05
2.105555555555555625e+00,-4.236006271707935907e-06,-8.072371046128026697e-05
2.106349206349206415e+00,5.621343070380377332e-07,-6.371179062870259001e-05
2.107142857142857206e+00,8.027659727080138153e-06,-3.917346762005924414e-05
2.107936507936507997e+00,1.734650438463493217e-05,-1.065245742217006642e-05
2.108730158730158788e+00,2.699776097583405946e-05,1.782330935098927469e-05
2.109523809523809579e+00,3.487495721129538044e-05,4.236014019500206567e-05
2.110317460317460370e+00,3.861338397809389996e-05,5.979521501231421993e-05
2.111111111111111160e+00,3.610197797917174520e-05,6.814455831415364747e-05
2.111904761904761951e+00,2.608337433044970150e-05,6.680702763096625337e-05
2.112698412698412742e+00,8.679305908596337348e-06,5.649996544943464713e-05
2.113492063492063533e+00,-1.434466472276151459e-05,3.898529187510525523e-05
2.114285714285714324e+00,-3.971399261325976615e-05,1.669582905894694011e-05
2.115079365079365115e+00,-6.320430510617076978e-05,-7.635308230694591556e-06
2.115873015873015905e+00,-8.050950727903796018e-05,-3.128817310754299183e-05
2.116666666666666696e+00,-8.819660568764410352e-05,-5.180793143015176441e-05
2.117460317460317487e+00,-8.449437644744679050e-05,-6.721235760863052621e-05
2.118253968253968278e+00,-6.971410289455419527e-05,-7.616410358623710642e-05
2.119047619047619069e+00,-4.620549087384430746e-05,-7.809751482935181946e-05
2.119841269841269860e+00,-1.786938728614437529e-05,-7.327651356114343493e-05
2.120634920634920650e+00,1.065085926820451865e-05,-6.275893697701202150e-05
2.121428571428571441e+00,3.491249898038197036e-05,-4.824939665975403201e-05
2.122222222222222232e+00,5.154116440569824311e-05,-3.183439986776062132e-05
2.123015873015873023e+00,5.883608405879387171e-05,-1.561674484701119827e-05
2.123809523809523814e+00,5.699092455761911857e-05,-1.308859416760214857e-06
2.124603174603174605e+00,4.790192695682856375e-05,1.010397889240826335e-05
2.125396825396825395e+00,3.462964090964155766e-05,1.849693261849054922e-05
2.126190476190476186e+00,2.065048822955985265e-05,2.444839100106505579e-05
2.126984126984126977e+00,9.068138648631023514e-06,2.882416571290512947e-05
2.127777777777777768e+00,1.954772172255682577e-06,3.227119913938554719e-05
2.128571428571428559e+00,-3.611534107935856544e-08,3.485684428758378778e-05
2.129365079365079350e+00,2.300024246118329730e-06,3.603467603052693539e-05
2.130158730158730140e+00,7.048028929274567762e-06,3.496024197270959389e-05
2.130952380952380931e+00,1.176872986740806119e-05,3.100616069670588873e-05
2.131746031746031722e+00,1.419067147962601317e-05,2.423033669277694396e-05
2.132539682539682513e+00,1.280298201376644871e-05,1.557862236332403598e-05
2.133333333333333304e+00,7.196798354399192256e-06,6.729624416789198771e-06
2.134126984126984095e+00,-1.908322517270207166e-06,-3.545673675400595341e-07
2.134920634920634885e+00,-1.292047548575138357e-05,-3.994462863244470760e-06
2.135714285714285676e+00,-2.381197079977432585e-05,-3.269230596194347472e-06
2.136507936507936467e+00,-3.260529418767506532e-05,1.752204816634400394e-06
2.137301587301587258e+00,-3.778596889560340840e-05,1.007929581562610723e-05
2.138095238095238049e+00,-3.855643572477781368e-05,2.011208067378896861e-05
2.138888888888888840e+00,-3.489711187748817113e-05,3.006129483670514220e-05
2.139682539682539630e+00,-2.745329008545595079e-05,3.831895361904530335e-05
2.140476190476190421e+00,-1.730562181693330611e-05,4.367137823451893011e-05
2.141269841269841212e+00,-5.700158695460293645e-06,4.533976397243455009e-05
2.142063492063492003e+00,6.188901562642338646e-06,4.291597261714634578e-05
2.142857142857142794e+00,1.741083813428518485e-05,3.629025756968792224e-05
2.143650793650793585e+00,2.728331829775410320e-05,2.563858141614131387e-05
2.144444444444444375e+00,3.534452520830319810e-05,1.147788000305053084e-05
2.145238095238095166e+00,4.125442256643485487e-05,-5.253727802194245873e-06
2.146031746031745957e+00,4.469966967400138561e-05,-2.315180513403880107e-05
2.146825396825396748e+00,4.535053163816169387e-05,-4.038058916108460680e-05
2.147619047619047539e+00,4.289610484963911357e-05,-5.481029376100629590e-05
2.148412698412698330e+00,3.715442481155126247e-05,-6.426328848316197810e-05
2.149206349206349120e+00,2.822565978752884306e-05,-6.685932144079404448e-05
2.149999999999999911e+00,1.663497943213476454e-05,-6.142087034463184598e-05
2.150793650793650702e+00,3.400198033295208378e-06,-4.786093864662820970e-05
2.151587301587301493e+00,-1.003362511675282426e-05,-2.744228320634678725e-05
2.152380952380952284e+00,-2.201393275488681159e-05,-2.788924315317006631e-06
2.153174603174603075e+00,-3.101430115668301778e-05,2.243229959503473581e-05
2.153968253968253865e+00,-3.598315341727829561e-05,4.415335306431818771e-05
2.154761904761904656e+00,-3.658910799008009929e-05,5.874456238835588798e-05
2.155555555555555447e+00,-3.327750422675027824e-05,6.383105343858570227e-05
2.156349206349206238e+00,-2.712199649349607711e-05,5.884649501627519540e-05
2.157142857142857029e+00,-1.952750289520284812e-05,4.516228569143142127e-05
2.157936507936507819e+00,-1.188570072702437609e-05,2.576804874166958983e-05
2.158730158730158610e+00,-5.287864565689307696e-06,4.608635612941409594e-06
2.159523809523809401e+00,-3.671929841607103332e-07,-1.424696819527228558e-05
2.160317460317460192e+00,2.709287709365638961e-06,-2.742322656417803075e-05
2.161111111111110983e+00,4.129899733980650522e-06,-3.289206009163364407e-05
2.161904761904761774e+00,4.270565899701789982e-06,-3.035412009071189167e-05
2.162698412698412564e+00,3.535823733390813910e-06,-2.127473841675090848e-05
2.163492063492063355e+00,2.255218399089790531e-06,-8.542883139199442286e-06
2.164285714285714146e+00,6.523375333954812460e-07,4.210047014416612312e-06
2.165079365079364937e+00,-1.124190349615417934e-06,1.349501001565475221e-05
2.165873015873015728e+00,-2.937534350832941413e-06,1.682812411745047076e-05
2.166666666666666519e+00,-4.604005965351345692e-06,1.332834057519072668e-05
2.167460317460317309e+00,-5.870195400219637733e-06,3.883098824237755483e-06
2.168253968253968100e+00,-6.442229041084994375e-06,-9.151235223780003123e-06
2.169047619047618891e+00,-6.063021680904074783e-06,-2.261714969069845944e-05
2.169841269841269682e+00,-4.612539140070371907e-06,-3.340742930836113897e-05
2.170634920634920473e+00,-2.191636390326706097e-06,-3.927688650607922633e-05
2.171428571428571264e+00,8.506227177543834102e-07,-3.939806775474361309e-05
2.172222222222222054e+00,3.969652613590178071e-06,-3.450370823390169219e-05
2.173015873015872845e+00,6.552264816865661097e-06,-2.657104362526568583e-05
2.173809523809523636e+00,8.081990918285473144e-06,-1.814332462272467581e-05
2.174603174603174427e+00,8.289491408626106599e-06,-1.150391626550949128e-05
2.175396825396825218e+00,7.237582602803926756e-06,-7.972049965192727053e-06
2.176190476190476009e+00,5.311828489749501356e-06,-7.552794471628800714e-06
2.176984126984126799e+00,3.118117539080162395e-06,-9.053976288991967493e-06
2.177777777777777590e+00,1.316826692972764067e-06,-1.061860826272565140e-05
2.178571428571428381e+00,4.407576156348281800e-07,-1.047339542109426267e-05
2.179365079365079172e+00,7.471628707191276998e-07,-7.619061975445520965e-06
2.180158730158729963e+00,2.143093738517239626e-06,-2.215698748891589348e-06
2.180952380952380754e+00,4.201951952983016407e-06,4.464526548184724698e-06
2.181746031746031544e+00,6.264503896569107524e-06,1.048228474624262744e-05
2.182539682539682335e+00,7.597521874485421919e-06,1.389797739528262273e-05
2.183333333333333126e+00,7.572579507477669429e-06,1.341802670458351210e-05
2.184126984126983917e+00,5.826000061467695919e-06,8.803273015460723355e-06
2.184920634920634708e+00,2.365152656529960589e-06,9.242511088981334691e-07
2.185714285714285499e+00,-2.405068226465141154e-06,-8.517321958187251026e-06
2.186507936507936289e+00,-7.746529479100068650e-06,-1.747206253563685709e-05
2.187301587301587080e+00,-1.273167229055717708e-05,-2.405741777901050369e-05
2.188095238095238315e+00,-1.643275497902810104e-05,-2.695004614758010248e-05
2.188888888888889106e+00,-1.810939307787829352e-05,-2.556980234934850611e-05
2.189682539682539897e+00,-1.735064024153672933e-05,-2.005658679082102406e-05
2.190476190476190688e+00,-1.414521915122543890e-05,-1.111697162587570027e-05
2.191269841269841478e+00,-8.875811776240988653e-06,1.547163847988889020e-07
2.192063492063492269e+00,-2.251128447154080686e-06,1.241065573044121158e-05
2.192857142857143060e+00,4.802791686654919638e-06,2.414048165632422631e-05
2.193650793650793851e+00,1.127331174658698723e-05,3.377722131272315115e-05
2.194444444444444642e+00,1.620275807272468206e-05,3.987666618817571900e-05
2.195238095238095433e+00,1.883250649438265788e-05,4.137270338542087478e-05
2.196031746031746223e+00,1.873433462797018716e-05,3.784425608717726703e-05
2.196825396825397014e+00,1.590275616761954228e-05,2.970201541006352934e-05
2.197619047619047805e+00,1.077902200821669374e-05,1.822628683041664467e-05
2.198412698412698596e+00,4.188952480643211021e-06,5.431877507999862541e-06
2.199206349206349387e+00,-2.801303974651550859e-06,-6.228733426074867645e-06
2.200000000000000178e+00,-9.084446751949556626e-06,-1.428941387134060885e-05
2.200793650793650968e+00,-1.372240362333284776e-05,-1.676018719352249871e-05
2.201587301587301759e+00,-1.611797148519285701e-05,-1.258753337094303217e-05
2.202380952380952550e+00,-1.610454157607471738e-05,-1.970188434588680671e-06
2.203174603174603341e+00,-1.393226515703024344e-05,1.356580091204958501e-05
2.203968253968254132e+00,-1.016134412428490291e-05,3.137367736401438563e-05
2.204761904761904923e+00,-5.502756780096577414e-06,4.814933452282259225e-05
2.205555555555555713e+00,-6.578970566601450763e-07,6.057083576068533314e-05
2.206349206349206504e+00,3.802803546039562140e-06,6.598922454174763023e-05
2.207142857142857295e+00,7.505038661332809081e-06,6.301580225906975620e-05
2.207936507936508086e+00,1.028165771837046966e-05,5.185489095937164376e-05
2.208730158730158877e+00,1.214097100004372907e-05,3.428426431821538531e-05
2.209523809523809668e+00,1.320623272825183306e-05,1.327633021803278481e-05
2.210317460317460458e+00,1.364188278150856017e-05,-7.649355972856286716e-06
2.211111111111111249e+00,1.358520498600827980e-05,-2.517969848165152290e-05
2.211904761904762040e+00,1.310324687015102698e-05,-3.688241981114020709e-05
2.212698412698412831e+00,1.218926643513609429e-05,-4.164811214809216889e-05
2.213492063492063622e+00,1.079956027938264324e-05,-3.981704364462219952e-05
2.214285714285714413e+00,8.914761246163396886e-06,-3.298737127898156602e-05
2.215079365079365203e+00,6.597521803217714085e-06,-2.357030671820691014e-05
2.215873015873015994e+00,4.018387967659033570e-06,-1.420743569082072685e-05
2.216666666666666785e+00,1.435505019640597629e-06,-7.189065616940493839e-06
2.217460317460317576e+00,-8.650302532225441711e-07,-4.002281150053371769e-06
2.218253968253968367e+00,-2.644321280473451119e-06,-5.093656589380611720e-06
2.219047619047619158e+00,-3.772888382577058465e-06,-9.870366854068905935e-06
2.219841269841269948e+00,-4.259483730362481503e-06,-1.690920940819368347e-05
2.220634920634920739e+00,-4.240286709340426612e-06,-2.431098758382179158e-05
2.221428571428571530e+00,-3.935595602940229432e-06,-3.012388869740416567e-05
2.222222222222222321e+00,-3.589314509230315983e-06,-3.275142979380119441e-05
2.223015873015873112e+00,-3.408669399608618722e-06,-3.125824422782375354e-05
2.223809523809523903e+00,-3.518891886450803950e-06,-2.550726596846932987e-05
2.224603174603174693e+00,-3.942095502505293174e-06,-1.611418036551372850e-05
2.225396825396825484e+00,-4.602911694414322644e-06,-4.267393558094497253e-06
2.226190476190476275e+00,-5.356778500502633208e-06,8.506227189719883379e-06
2.226984126984127066e+00,-6.031438942027783093e-06,2.056691501318849163e-05
2.227777777777777857e+00,-6.469960363529217074e-06,3.036015330571825916e-05
2.228571428571428648e+00,-6.565229682355495642e-06,3.659920899880922564e-05
2.229365079365079438e+00,-6.280043515292712984e-06,3.844001217932934740e-05
2.230158730158730229e+00,-5.651090249981679506e-06,3.562954632643389484e-05
2.230952380952381020e+00,-4.778002495179677798e-06,2.858443914390848569e-05
2.231746031746031811e+00,-3.800730770310491687e-06,1.835362415753648884e-05
2.232539682539682602e+00,-2.870408910315392297e-06,6.444335653686934318e-06
2.233333333333333393e+00,-2.120183628971794073e-06,-5.464495996425470820e-06
2.234126984126984183e+00,-1.642193831712775992e-06,-1.585570265642358845e-05
2.234920634920634974e+00,-1.474793713581424176e-06,-2.367103078238586426e-05
2.235714285714285765e+00,-1.601040396010144281e-06,-2.849874345076266365e-05
2.236507936507936556e+00,-1.956680080683474268e-06,-3.060409611045685342e-05
2.237301587301587347e+00,-2.444370500617883831e-06,-3.078743066501035577e-05
2.238095238095238138e+00,-2.950838695859931197e-06,-3.009338548364144165e-05
2.238888888888888928e+00,-3.364406952964569935e-06,-2.943985841183159406e-05
2.239682539682539719e+00,-3.591043064025892471e-06,-2.927684650658374094e-05
2.240476190476190510e+00,-3.567485716394265887e-06,-2.940005595729884609e-05
2.241269841269841301e+00,-3.269980974936255423e-06,-2.900701774660618173e-05
2.242063492063492092e+00,-2.716826406669526865e-06,-2.699388347700413702e-05
2.242857142857142883e+00,-1.963022463678320447e-06,-2.238943047193576514e-05
2.243650793650793673e+00,-1.087041164465789306e-06,-1.476502109872469446e-05
2.244444444444444464e+00,-1.729806274002081411e-07,-4.472940629698115960e-06
2.245238095238095255e+00,7.059102930044183920e-07,7.364388687181480513e-06
2.246031746031746046e+00,1.496666039014643028e-06,1.910372056544535097e-05
2.246825396825396837e+00,2.167096161125374766e-06,2.898842677986446741e-05
2.247619047619047628e+00,2.700329543736444667e-06,3.559822168241794685e-05
2.248412698412698418e+00,3.089051484075172453e-06,3.821774649754720491e-05
2.249206349206349209e+00,3.333727536557472924e-06,3.701300273344495319e-05
2.250000000000000000e+00,3.444956163418605333e-06,3.294638089639602044e-05
2.250793650793650791e+00,3.446207261229076789e-06,2.744191069598111079e-05
2.251587301587301582e+00,3.372323347946346690e-06,2.191060679419591596e-05
2.252380952380952372e+00,3.261897290959277699e-06,1.731033683655968072e-05
2.253174603174603163e+00,3.146070336690225346e-06,1.390457725407136729e-05
2.253968253968253954e+00,3.039224779843571810e-06,1.130124684075288098e-05
2.254761904761904745e+00,2.936339533862533115e-06,8.737623727005223003e-06
2.255555555555555536e+00,2.818084264657370679e-06,5.484552144943225412e-06
2.256349206349206327e+00,2.660912145095725014e-06,1.210475633521786812e-06
2.257142857142857117e+00,2.447884656421505328e-06,-3.823842854931428290e-06
2.257936507936507908e+00,2.176722278152617527e-06,-8.800468848184675555e-06
2.258730158730158699e+00,1.863047296527651374e-06,-1.259155524749879551e-05
2.259523809523809490e+00,1.537918856628936498e-06,-1.413331615196291944e-05
2.260317460317460281e+00,1.239693314776657489e-06,-1.280067023641856994e-05
2.261111111111111072e+00,1.001475462504868477e-06,-8.655542643254186296e-06
2.261904761904761862e+00,8.371139444076593514e-07,-2.482779661908010415e-06
2.262698412698412653e+00,7.303882971703121014e-07,4.401109231306127253e-06
2.263492063492063444e+00,6.325246809076857324e-07,1.050305377652184631e-05
2.264285714285714235e+00,4.711633898907910962e-07,1.455362988005000189e-05
2.265079365079365026e+00,1.695655875500454167e-07,1.582465143459503142e-05
2.265873015873015817e+00,-3.296255199734159989e-07,1.427642523126785464e-05
2.266666666666666607e+00,-1.043738974984994059e-06,1.051296244426275354e-05
2.267460317460317398e+00,-1.938707599548665062e-06,5.582501041459681589e-06
2.268253968253968189e+00,-2.929395295370139255e-06,6.918961659855848331e-07
2.269047619047618980e+00,-3.890467483296545551e-06,-3.093055425219057608e-06
2.269841269841269771e+00,-4.674957037681602363e-06,-5.099901888826542525e-06
2.270634920634920562e+00,-5.137783563410882077e-06,-5.205402543108752014e-06
2.271428571428571352e+00,-5.161893059541701280e-06,-3.858808026181491534e-06
2.272222222222222143e+00,-4.683844593913154275e-06,-1.956476305097407251e-06
2.273015873015872934e+00,-3.713572968738827975e-06,-5.837880795059292670e-07
2.273809523809523725e+00,-2.341719358284966535e-06,-6.804197027546557244e-07
2.274603174603174516e+00,-7.296441508197214620e-07,-2.720511792084273467e-06
2.275396825396825307e+00,9.178337593253961615e-07,-6.513016679786616827e-06
2.276190476190476097e+00,2.391075719130036051e-06,-1.120579071396580731e-05
2.276984126984126888e+00,3.515798439736678343e-06,-1.551755965896706543e-05
2.277777777777777679e+00,4.184544759508424505e-06,-1.813937054422926239e-05
2.278571428571428470e+00,4.372297403829432925e-06,-1.817352348743136837e-05
2.279365079365079261e+00,4.134127435974800709e-06,-1.545073695180690056e-05
2.280158730158730052e+00,3.587647755588311687e-06,-1.060516728431878850e-05
2.280952380952380842e+00,2.886176363655126955e-06,-4.878342839284252844e-06
2.281746031746031633e+00,2.189343390645033805e-06,2.729585536334887107e-07
2.282539682539682424e+00,1.636789247510262814e-06,3.619064591864315583e-06
2.283333333333333215e+00,1.328718087556373113e-06,4.496443439255978838e-06
2.284126984126984006e+00,1.315465491745137651e-06,2.944035669762414570e-06
2.284920634920634797e+00,1.597000583685978120e-06,-3.784077327885907874e-07
2.285714285714285587e+00,2.131670655647077079e-06,-4.432984667750866037e-06
2.286507936507936378e+00,2.851176192769176162e-06,-8.114900338545827363e-06
2.287301587301587169e+00,3.676643017797324565e-06,-1.054123678158635378e-05
2.288095238095237960e+00,4.530300952581939290e-06,-1.125006289031432878e-05
2.288888888888888751e+00,5.339479995333522439e-06,-1.027521923302999523e-05
2.289682539682539542e+00,6.033570484873668114e-06,-8.094464416485039706e-06
2.290476190476190332e+00,6.538243119227801635e-06,-5.476094812906520277e-06
2.291269841269841123e+00,6.772585478695608244e-06,-3.268291851097195221e-06
2.292063492063491914e+00,6.653103416877750162e-06,-2.183322527437558162e-06
2.292857142857142705e+00,6.104815755338872532e-06,-2.623951049736571785e-06
2.293650793650793496e+00,5.076273244606190069e-06,-4.584158609317125931e-06
2.294444444444444287e+00,3.554234347192253156e-06,-7.636311580751421694e-06
2.295238095238095077e+00,1.575165642602646640e-06,-1.099940983136267989e-05
2.296031746031745868e+00,-7.669531667427600867e-07,-1.367283345450977767e-05
2.296825396825396659e+00,-3.316327081631960056e-06,-1.461709049827356902e-05
2.297619047619047450e+00,-5.856430373177147956e-06,-1.296280196768448970e-05
2.298412698412698241e+00,-8.121434527318688803e-06,-8.224594056411212929e-06
2.299206349206349032e+00,-9.823327616075799124e-06,-4.828930348454542888e-07
2.299999999999999822e+00,-1.069562717097106633e-05,9.521750087039126077e-06
2.300793650793650613e+00,-1.054695539730068301e-05,2.044231454291917512e-05
2.301587301587301404e+00,-9.311351562786226738e-06,3.055778351378686281e-05
2.302380952380952195e+00,-7.080815315540269594e-06,3.814916418714396634e-05
2.303174603174602986e+00,-4.109567949937775690e-06,4.191283709717032966e-05
2.303968253968253777e+00,-7.863200739262598195e-07,4.127516515886358228e-05
2.304761904761904567e+00,2.422251436130042529e-06,3.650637033731178040e-05
2.305555555555555358e+00,5.047651785006598263e-06,2.861007732634201074e-05
2.306349206349206149e+00,6.701385941628204151e-06,1.904241884931176580e-05
2.307142857142856940e+00,7.145762518557241832e-06,9.356529356549014026e-06
2.307936507936507731e+00,6.337808913895593504e-06,8.707168138352049633e-07
2.308730158730158522e+00,4.435397721938285094e-06,-5.563823210520359562e-06
2.309523809523809312e+00,1.762962776158278869e-06,-9.655537294729370012e-06
2.310317460317460103e+00,-1.256055278927817559e-06,-1.162661664515110974e-05
2.311111111111110894e+00,-4.184120453113082144e-06,-1.206486329895057251e-05
2.311904761904761685e+00,-6.651294165849849403e-06,-1.172438853104809870e-05
2.312698412698412920e+00,-8.415306453554022371e-06,-1.132076609593156221e-05
2.313492063492063711e+00,-9.390688946157730311e-06,-1.135355935234137287e-05
2.314285714285714501e+00,-9.649087339969565153e-06,-1.198174178568776306e-05
2.315079365079365292e+00,-9.398569336585831536e-06,-1.297639302068601416e-05
2.315873015873016083e+00,-8.944943572569073777e-06,-1.377068694278748949e-05
2.316666666666666874e+00,-8.629077420942213972e-06,-1.360974092102803171e-05
2.317460317460317665e+00,-8.735043535633536880e-06,-1.177287147115686704e-05
2.318253968253968456e+00,-9.381297687101418693e-06,-7.811386246677261025e-06
2.319047619047619246e+00,-1.043030284393477809e-05,-1.732740897607904496e-06
2.319841269841270037e+00,-1.146196180192952330e-05,5.925969094059595128e-06
2.320634920634920828e+00,-1.184264614007804646e-05,1.416100696265571793e-05
2.321428571428571619e+00,-1.088950859308843429e-05,2.168878752688638148e-05
2.322222222222222410e+00,-8.092718285977629103e-06,2.720908502098378341e-05
2.323015873015873201e+00,-3.330386005800246943e-06,2.967501397304513609e-05
2.323809523809523991e+00,2.996863259192418224e-06,2.849721248861264122e-05
2.324603174603174782e+00,9.967693751218122177e-06,2.363076935415689886e-05
2.325396825396825573e+00,1.629651185310413282e-05,1.553574380037334992e-05
2.326190476190476364e+00,2.061621275973112187e-05,5.048875274030731989e-06
2.326984126984127155e+00,2.181788538752215640e-05,-6.770224679970597528e-06
2.327777777777777946e+00,1.935562184402189311e-05,-1.876525486920269521e-05
2.328571428571428736e+00,1.342923194581118847e-05,-2.976413042281724514e-05
2.329365079365079527e+00,4.990177880173406603e-06,-3.863083483670546334e-05
2.330158730158730318e+00,-4.434628361317671802e-06,-4.431709452058062165e-05
2.330952380952381109e+00,-1.305872477800688881e-05,-4.593538076129870430e-05
2.331746031746031900e+00,-1.921708343482097148e-05,-4.286103392686239276e-05
2.332539682539682691e+00,-2.172459416171955090e-05,-3.486014138123883730e-05
2.333333333333333481e+00,-2.012868726898668333e-05,-2.222799556559073385e-05
2.334126984126984272e+00,-1.479415478845975557e-05,-5.904121570735097585e-06
2.334920634920635063e+00,-6.798065393893656508e-06,1.249154327126368867e-05
2.335714285714285854e+00,2.335363744245874498e-06,3.076277622954143331e-05
2.336507936507936645e+00,1.098417591670417078e-05,4.641577613941659313e-05
2.337301587301587436e+00,1.776764249148047014e-05,5.708688494052164072e-05
2.338095238095238226e+00,2.179552118843908339e-05,6.102674126296557484e-05
2.338888888888889017e+00,2.278611010167453421e-05,5.750985721267085597e-05
2.339682539682539808e+00,2.105059828734446789e-05,4.704927286945924267e-05
2.340476190476190599e+00,1.736750471891393215e-05,3.134886459553839133e-05
2.341269841269841390e+00,1.278416252793442096e-05,1.299709094205761010e-05
2.342063492063492181e+00,8.388608176623540386e-06,-5.029746336143741326e-06
2.342857142857142971e+00,5.097517626916176345e-06,-1.994641380729952435e-05
2.343650793650793762e+00,3.500140511864530796e-06,-2.969944054454756307e-05
2.344444444444444553e+00,3.781709957848220225e-06,-3.335865445027052812e-05
2.345238095238095344e+00,5.728064028230809498e-06,-3.127409650186874413e-05
2.346031746031746135e+00,8.796550316360527252e-06,-2.495594178774389511e-05
2.346825396825396925e+00,1.223218629794702192e-05,-1.669512045105691998e-05
2.347619047619047716e+00,1.520920295799706242e-05,-9.007179550177425094e-06
2.348412698412698507e+00,1.697943120434546209e-05,-4.031046533608451034e-06
2.349206349206349298e+00,1.700709391284186363e-05,-3.029062601749351101e-06
2.350000000000000089e+00,1.506705841455408093e-05,-6.108122149048852411e-06
2.350793650793650880e+00,1.128537649666236775e-05,-1.222348288093476321e-05
2.351587301587301670e+00,6.109703200679404165e-06,-1.945658009117870709e-05
2.352380952380952461e+00,2.122511946377737503e-07,-2.549582047394046910e-05
2.353174603174603252e+00,-5.654270411471322737e-06,-2.820904190291240122e-05
2.353968253968254043e+00,-1.081264862491219924e-05,-2.618251426450847780e-05
2.354761904761904834e+00,-1.478893161104271543e-05,-1.910738224400649905e-05
2.355555555555555625e+00,-1.737978950548492506e-05,-7.914486065050194271e-06
2.356349206349206415e+00,-1.864622609172327908e-05,5.399031674888200247e-06
2.357142857142857206e+00,-1.884322643425129205e-05,1.823241285754288594e-05
2.357936507936507997e+00,-1.831349193615016332e-05,2.801984724698634136e-05
2.358730158730158788e+00,-1.738221776976971300e-05,3.285839324825027749e-05
2.359523809523809579e+00,-1.628675257354180746e-05,3.192865102238812847e-05
2.360317460317460370e+00,-1.516016970890299974e-05,2.558276739663521709e-05
2.361111111111111160e+00,-1.406500421371959509e-05,1.510369506396708664e-05
2.361904761904761951e+00,-1.305141726458907588e-05,2.263330966564236481e-06
2.362698412698412742e+00,-1.220342303943030222e-05,-1.113821247907734638e-05
2.363492063492063533e+00,-1.164350827370081413e-05,-2.359937054657554559e-05
2.364285714285714324e+00,-1.148741109335880212e-05,-3.403794029607469930e-05
2.365079365079365115e+00,-1.176692948416251996e-05,-4.172322682512086056e-05
2.365873015873015905e+00,-1.235716630483160571e-05,-4.610488975932263431e-05
2.366666666666666696e+00,-1.294741497841261328e-05,-4.665511428149031725e-05
2.367460317460317487e+00,-1.308038733245182807e-05,-4.282902461434118398e-05
2.368253968253968278e+00,-1.225771097417085816e-05,-3.419641247127335967e-05
2.369047619047619069e+00,-1.008205313000775249e-05,-2.071973076831879507e-05
2.369841269841269860e+00,-6.391046324224149691e-06,-3.074789000772065971e-06
2.370634920634920650e+00,-1.340854509613683831e-06,1.713599189628216887e-05
2.371428571428571441e+00,4.587299931219548363e-06,3.741723558502792375e-05
2.372222222222222232e+00,1.066385520440892486e-05,5.472821827284010503e-05
2.373015873015873023e+00,1.605599304226235750e-05,6.609885453750679902e-05
2.373809523809523814e+00,2.000742613132431885e-05,6.935691659476593952e-05
2.374603174603174605e+00,2.200743070276795667e-05,6.374341422281132753e-05
2.375396825396825395e+00,2.190384435888241056e-05,5.020339321545078072e-05
2.376190476190476186e+00,1.992886245809145825e-05,3.123210788462840417e-05
2.376984126984126977e+00,1.663129299491215973e-05,1.030486822867050086e-05
2.377777777777777768e+00,1.273634054288259926e-05,-8.938007352922956115e-06
2.378571428571428559e+00,8.974247469780057752e-06,-2.350832069012421841e-05
2.379365079365079350e+00,5.925303579287841494e-06,-3.167145319007676294e-05
2.380158730158730140e+00,3.919348412148348255e-06,-3.320478177593464726e-05
2.380952380952380931e+00,3.007443853346280982e-06,-2.928979189825453464e-05
2.381746031746031722e+00,3.000721788226834755e-06,-2.209962817134528614e-05
2.382539682539682513e+00,3.554931964433020985e-06,-1.420145731901655375e-05
2.383333333333333304e+00,4.272547249936251715e-06,-7.923307803495948431e-06
2.384126984126984095e+00,4.796395646396464806e-06,-4.835027226267656224e-06
2.384920634920634885e+00,4.876740887143248538e-06,-5.459332271902634138e-06
2.385714285714285676e+00,4.404067999783996295e-06,-9.265490824760895855e-06
2.386507936507936467e+00,3.409046440384448138e-06,-1.491985697050672100e-05
2.387301587301587258e+00,2.036906929034094317e-06,-2.069814458459682199e-05
2.388095238095238049e+00,5.054713702850640473e-07,-2.492844749798273681e-05
2.388888888888888840e+00,-9.444324342092715950e-07,-2.634460566333696161e-05
2.389682539682539630e+00,-2.098554822068524042e-06,-2.428021413642579636e-05
2.390476190476190421e+00,-2.811552394319870771e-06,-1.870057852221630507e-05
2.391269841269841212e+00,-3.034970853183409098e-06,-1.012251052284977301e-05
2.392063492063492003e+00,-2.825560756152108953e-06,5.132346678203563718e-07
2.392857142857142794e+00,-2.332296144270190469e-06,1.197721560583707865e-05
2.393650793650793585e+00,-1.764334321323427329e-06,2.289654365301807307e-05
2.394444444444444375e+00,-1.344981078571922373e-06,3.193585461311410707e-05
2.395238095238095166e+00,-1.259315727196172765e-06,3.802413999901310850e-05
2.396031746031745957e+00,-1.606425989724683406e-06,4.059265371589807099e-05
2.396825396825396748e+00,-2.369731452498496364e-06,3.974665000005002239e-05
2.397619047619047539e+00,-3.416956238819526748e-06,3.628793476303830907e-05
2.398412698412698330e+00,-4.532672652237514954e-06,3.155168356902767916e-05
2.399206349206349120e+00,-5.473984249407846741e-06,2.709689229161532350e-05
2.399999999999999911e+00,-6.031100675611312744e-06,2.434273418439340044e-05
2.400793650793650702e+00,-6.074428238267526852e-06,2.424037242814441697e-05
2.401587301587301493e+00,-5.577098415053363293e-06,2.703377837377006777e-05
2.402380952380952284e+00,-4.611594053035322493e-06,3.213977788503786267e-05
2.403174603174603075e+00,-3.327164262562920572e-06,3.817965115680056640e-05
2.403968253968253865e+00,-1.918651960284234354e-06,4.319398765169153498e-05
2.404761904761904656e+00,-5.961117502131030646e-07,4.504051507006109477e-05
2.405555555555555447e+00,4.406112976105197682e-07,4.191271662887045677e-05
2.406349206349206238e+00,1.023606319001503887e-06,3.285197426619937411e-05
2.407142857142857029e+00,1.038042132315716497e-06,1.809326333469724643e-05
2.407936507936507819e+00,4.432333053774364027e-07,-8.857538463437287515e-07
2.408730158730158610e+00,-7.104347072101561975e-07,-2.164803527426899303e-05
2.409523809523809401e+00,-2.275654492624901271e-06,-4.133197968731165700e-05
2.410317460317460192e+00,-4.019520858843841617e-06,-5.727794288395129582e-05
2.411111111111110983e+00,-5.654161235107806219e-06,-6.757452708654543088e-05
2.411904761904761774e+00,-6.883695583219003350e-06,-7.139315269163360085e-05
2.412698412698412564e+00,-7.459871867577322462e-06,-6.904475461740228225e-05
2.413492063492063355e+00,-7.235096092445864796e-06,-6.176661318764828563e-05
2.414285714285714146e+00,-6.199787127192009576e-06,-5.132024212867254996e-05
2.415079365079364937e+00,-4.492566573158430482e-06,-3.953277864484045867e-05
2.415873015873015728e+00,-2.377711620031659896e-06,-2.791889278988252240e-05
2.416666666666666519e+00,-1.932537164041758196e-07,-1.747208468301800156e-05
2.417460317460317309e+00,1.718352364506700539e-06,-8.639638373937429586e-06
2.418253968253968100e+00,3.080307988115894581e-06,-1.433665994394737285e-06
2.419047619047618891e+00,3.735863600802283540e-06,4.394572341219924235e-06
2.419841269841269682e+00,3.675071822039981475e-06,9.180202214406374631e-06
2.420634920634920473e+00,3.029207917532001878e-06,1.320560396254826072e-05
2.421428571428571264e+00,2.036294373410580705e-06,1.660448963983514252e-05
2.422222222222222054e+00,9.875902130727476856e-07,1.930215794393796367e-05
2.423015873015872845e+00,1.674774347679362670e-07,2.098816154079319966e-05
2.423809523809523636e+00,-2.020442175638978104e-07,2.113389171156124859e-05
2.424603174603174427e+00,-3.767569008375545472e-09,1.908073227822256691e-05
2.425396825396825218e+00,7.516896334019100613e-07,1.421652137961583944e-05
2.426190476190476009e+00,1.926561063506135861e-06,6.224521551506638579e-06
2.426984126984126799e+00,3.281710046656975778e-06,-4.654461921663698922e-06
2.427777777777777590e+00,4.525024214653887244e-06,-1.743595122137155904e-05
2.428571428571428381e+00,5.375815623397762307e-06,-3.037224875808994598e-05
2.429365079365079172e+00,5.634041839347834521e-06,-4.116016912111920075e-05
2.430158730158729963e+00,5.238342765091446854e-06,-4.737692674593396253e-05
2.430952380952380754e+00,4.294489437337692381e-06,-4.706451462417480586e-05
2.431746031746031544e+00,3.059654597735266584e-06,-3.930770138918644426e-05
2.432539682539682335e+00,1.879293154356939996e-06,-2.461807979565277897e-05
2.433333333333333126e+00,1.089500101738118014e-06,-4.972402985702181160e-06
2.434126984126983917e+00,9.122120384907178127e-07,1.654626769675789544e-05
2.434920634920634708e+00,1.376387416491152004e-06,3.642448719722152624e-05
2.435714285714285499e+00,2.291603384383205963e-06,5.151624899398101154e-05
2.436507936507936289e+00,3.284413242928238652e-06,5.971706575198244929e-05
2.437301587301587080e+00,3.889999597042804114e-06,6.031331675071219023e-05
2.438095238095238315e+00,3.677967437813225869e-06,5.393349841081350942e-05
2.438888888888889106e+00,2.382682376472628808e-06,4.217744365936117450e-05
2.439682539682539897e+00,5.262476987075935809e-09,2.709717193603753224e-05
2.440476190476190688e+00,-3.142100868887146446e-06,1.071344411220952771e-05
2.441269841269841478e+00,-6.466950907426412463e-06,-5.307390737607419146e-06
2.442063492063492269e+00,-9.202049458098084505e-06,-1.977699675417499489e-05
2.442857142857143060e+00,-1.056673612702021387e-05,-3.194123240500955515e-05
2.443650793650793851e+00,-9.952054573639775248e-06,-4.133850846149688134e-05
2.444444444444444642e+00,-7.091629223093588480e-06,-4.763464974779592272e-05
2.445238095238095433e+00,-2.180958369667005864e-06,-5.049451276340906586e-05
2.446031746031746223e+00,4.086412303175630387e-06,-4.953153955431979913e-05
2.446825396825397014e+00,1.058652169001403184e-05,-4.435763887448653962e-05
2.447619047619047805e+00,1.594038401923652509e-05,-3.473465320510010665e-05
2.448412698412698596e+00,1.877865482008026854e-05,-2.080031878559834957e-05
2.449206349206349387e+00,1.805172680336321813e-05,-3.306012687328047974e-06
2.450000000000000178e+00,1.331982870109046033e-05,1.622682502790427761e-05
2.450793650793650968e+00,4.949880074230021287e-06,3.552706417535220061e-05
2.451587301587301759e+00,-5.840723756594602761e-06,5.182675277946332512e-05
2.452380952380952550e+00,-1.712110382777326726e-05,6.233069771650813929e-05
2.453174603174603341e+00,-2.655378340506568701e-05,6.481139329113456342e-05
2.453968253968254132e+00,-3.182745337257062454e-05,5.818613025411494320e-05
2.454761904761904923e+00,-3.114723191602297139e-05,4.292271480703684414e-05
2.455555555555555713e+00,-2.369577974012074029e-05,2.115235094368202642e-05
2.456349206349206504e+00,-9.966718700181837092e-06,-3.571654674946034738e-06
2.457142857142857295e+00,8.126935037264495357e-06,-2.686013384433778750e-05
2.457936507936508086e+00,2.744319449060819021e-05,-4.433723230953667143e-05
2.458730158730158877e+00,4.412375185806850439e-05,-5.259724522442455906e-05
2.459523809523809668e+00,5.437596539921690092e-05,-5.005101512644869019e-05
2.460317460317460458e+00,5.537881214692377216e-05,-3.742263032152534337e-05
2.461111111111111249e+00,4.608389982238623154e-05,-1.771415839611004738e-05
2.461904761904762040e+00,2.765241586650270844e-05,4.403877697236402001e-06
2.462698412698412831e+00,3.335614066097130831e-06,2.364314560754657914e-05
2.463492063492063622e+00,-2.222739956165089865e-05,3.532159348424671486e-05
2.464285714285714413e+00,-4.411572010147766739e-05,3.645435535763189765e-05
2.465079365079365203e+00,-5.830854790873025902e-05,2.646048320459790343e-05
2.465873015873015994e+00,-6.259175068290449373e-05,7.340224533792966403e-06
2.466666666666666785e+00,-5.694541032588411474e-05,-1.671045986083677200e-05
2.467460317460317576e+00,-4.335115466952114705e-05,-4.017814617981923993e-05
2.468253968253968367e+00,-2.513596119270563797e-05,-5.743681912076182341e-05
2.469047619047619158e+00,-6.080728995242021357e-06,-6.403202690665759267e-05
2.469841269841269948e+00,1.045366312032630379e-05,-5.775324781288069723e-05
2.470634920634920739e+00,2.217735190873353231e-05,-3.922071646085624653e-05
2.471428571428571530e+00,2.818156670415446240e-05,-1.180402582481447094e-05
2.472222222222222321e+00,2.888758216512870558e-05,1.915010636413079506e-05
2.473015873015873112e+00,2.569967086355272760e-05,4.760614569282063256e-05
2.473809523809523903e+00,2.048417757271941628e-05,6.829795225613025870e-05
2.474603174603174693e+00,1.501750918709605880e-05,7.794002270341194758e-05
2.475396825396825484e+00,1.053273647876608153e-05,7.584940542231545502e-05
2.476190476190476275e+00,7.459356095164142891e-06,6.383688132183794068e-05
2.476984126984127066e+00,5.405960725534401701e-06,4.547342798423492177e-05
2.477777777777777857e+00,3.385052633518174962e-06,2.502885687628704595e-05
2.478571428571428648e+00,2.216354510289139533e-07,6.439485059266246215e-06
2.479365079365079438e+00,-4.968659037598288088e-06,-7.419438574732263390e-06
2.480158730158730229e+00,-1.237554563575881360e-05,-1.504793942399063121e-05
2.480952380952381020e+00,-2.128877139693473240e-05,-1.627727253529740682e-05
2.481746031746031811e+00,-3.015276710418242004e-05,-1.200846085332061771e-05
2.482539682539682602e+00,-3.686426535202074985e-05,-3.864749652398401671e-06
2.483333333333333393e+00,-3.923532253175201779e-05,6.169569533354747241e-06
2.484126984126984183e+00,-3.551667509024112489e-05,1.609536018170186459e-05
2.484920634920634974e+00,-2.487605199534862285e-05,2.420480358589654932e-05
2.485714285714285765e+00,-7.737958946503998382e-06,2.930982667026831094e-05
2.486507936507936556e+00,1.409199844338428307e-05,3.085747436308041141e-05
2.487301587301587347e+00,3.756973809395493187e-05,2.891843611118429509e-05
2.488095238095238138e+00,5.883432987331820187e-05,2.406175284212066704e-05
2.488888888888888928e+00,7.386998316352641491e-05,1.715021933214520597e-05
2.489682539682539719e+00,7.931378294674643514e-05,9.104673947805292736e-06
2.490476190476190510e+00,7.325941990508083742e-05,6.917738276918276250e-07
2.491269841269841301e+00,5.586779681229951054e-05,-7.613129064913023993e-06
2.492063492063492092e+00,2.959867204712495427e-05,-1.565354514237453403e-05
2.492857142857142883e+00,-1.056774542552096040e-06,-2.350565895889047439e-05
2.493650793650793673e+00,-3.034405460317921978e-05,-3.130714081135419825e-05
2.494444444444444464e+00,-5.238213139973466764e-05,-3.905400922604683602e-05
2.495238095238095255e+00,-6.243124912992544212e-05,-4.642954954995113750e-05
2.496031746031746046e+00,-5.800547540951961041e-05,-5.272604313719847399e-05
2.496825396825396837e+00,-3.956138604111678726e-05,-5.690181781216118806e-05
2.497619047619047628e+00,-1.057565376359949298e-05,-5.778381770610227779e-05
2.498412698412698418e+00,2.304345008430064957e-05,-5.438446088762174767e-05
2.499206349206349209e+00,5.410931054606909118e-05,-4.625863656749929772e-05
2.500000000000000000e+00,7.563452161715740051e-05,-3.379292234187396276e-05
2.500793650793650791e+00,8.231085966344210616e-05,-1.831220450878272497e-05
2.501587301587301582e+00,7.166694793469496037e-05,-1.928442800551943471e-06
2.502380952380952372e+00,4.465122591186100560e-05,1.285802007076636463e-05
2.503174603174603163e+00,5.514960350647182390e-06,2.369823263254306687e-05
2.503968253968253954e+00,-3.897933150041900093e-05,2.891501256935069143e-05
2.504761904761904745e+00,-8.086046470083461089e-05,2.785879970271702097e-05
2.505555555555555536e+00,-1.125013163775340197e-04,2.102243767323616069e-05
2.506349206349206327e+00,-1.281165349977158381e-04,9.919019405227600514e-06
2.507142857142857117e+00,-1.249092178688015380e-04,-3.215907139220813602e-06
2.507936507936507908e+00,-1.036316786237845110e-04,-1.581772267523669104e-05
2.508730158730158699e+00,-6.843439306647055556e-05,-2.541455652030297986e-05
2.509523809523809490e+00,-2.602008744394996057e-05,-3.003214658104374701e-05
2.510317460317460281e+00,1.572935053999933536e-05,-2.854354650448769499e-05
2.511111111111111072e+00,4.936098615820118271e-05,-2.091397247936875559e-05
2.511904761904761862e+00,6.933779603018026621e-05,-8.279387652323766039e-06
2.512698412698412653e+00,7.306933595547263028e-05,7.190848190947586284e-06
2.513492063492063444e+00,6.126206087069278796e-05,2.265365260491447632e-05
2.514285714285714235e+00,3.754204528037281542e-05,3.512115303069323144e-05
2.515079365079365026e+00,7.491113404936887972e-06,4.205804988903660997e-05
2.515873015873015817e+00,-2.262720386158237188e-05,4.192730280269790078e-05
2.516666666666666607e+00,-4.713405544390135502e-05,3.456813341856877347e-05
2.517460317460317398e+00,-6.192714038235814134e-05,2.130681026024942433e-05
2.518253968253968189e+00,-6.503897202158134437e-05,4.735139131494494823e-06
2.519047619047618980e+00,-5.672242478944633818e-05,-1.183691959932428970e-05
2.519841269841269771e+00,-3.912393167841893472e-05,-2.514202568569726641e-05
2.520634920634920562e+00,-1.566953173379519060e-05,-3.272470613580474332e-05
2.521428571428571352e+00,9.682049494429691321e-06,-3.349595496951819401e-05
2.522222222222222143e+00,3.316817311474198139e-05,-2.792015578332413087e-05
2.523015873015872934e+00,5.181036063608173472e-05,-1.779848509283523934e-05
2.523809523809523725e+00,6.378279381301405371e-05,-5.725241806160831307e-06
2.524603174603174516e+00,6.852953375788789850e-05,5.627292676808332441e-06
2.525396825396825307e+00,6.664255288417541645e-05,1.420121672835082515e-05
2.526190476190476097e+00,5.955236740895218829e-05,1.903384383780692030e-05
2.526984126984126888e+00,4.911626646106194389e-05,2.039367276510558040e-05
2.527777777777777679e+00,3.720561945392938165e-05,1.953979429553817323e-05
2.528571428571428470e+00,2.538301017688024042e-05,1.819290044437578473e-05
2.529365079365079261e+00,1.472387599977977053e-05,1.789743419737142163e-05
2.530158730158730052e+00,5.790450605940957199e-06,1.948059069301685543e-05
2.530952380952380842e+00,-1.275124653608071867e-06,2.277213079134228987e-05
2.531746031746031633e+00,-6.595470924617124258e-06,2.666437502693901551e-05
2.532539682539682424e+00,-1.040045135007256501e-05,2.949170323776610132e-05
2.533333333333333215e+00,-1.291295302428047519e-05,2.961182509963343121e-05
2.534126984126984006e+00,-1.429838813112654377e-05,2.599832536259490264e-05
2.534920634920634797e+00,-1.467139185305477744e-05,1.863737764139658607e-05
2.535714285714285587e+00,-1.413401103271959081e-05,8.585119092249281358e-06
2.536507936507936378e+00,-1.281547062706519509e-05,-2.328105503816416041e-06
2.537301587301587169e+00,-1.089359755694313668e-05,-1.202440966411353198e-05
2.538095238095237960e+00,-8.593439227935381722e-06,-1.874185822647348205e-05
2.538888888888888751e+00,-6.169907620092460535e-06,-2.146126333005580634e-05
2.539682539682539542e+00,-3.884235321621256023e-06,-2.010450365030429560e-05
2.540476190476190332e+00,-1.980618250365303355e-06,-1.549888089831303364e-05
2.541269841269841123e+00,-6.643880512071165025e-07,-9.155291264479919450e-06
2.542063492063491914e+00,-8.024200143925465197e-08,-2.925401556899394522e-06
2.542857142857142705e+00,-2.899462614724509582e-07,1.395536650839686828e-06
2.543650793650793496e+00,-1.252829101714808243e-06,2.448980420877349412e-06
2.544444444444444287e+00,-2.816619073263399616e-06,-4.010821838351439596e-07
2.545238095238095077e+00,-4.727209600485639055e-06,-6.943127717457679137e-06
2.546031746031745868e+00,-6.661880775501451916e-06,-1.618128448344420030e-05
2.546825396825396659e+00,-8.282808659236332241e-06,-2.656318107107770733e-05
2.547619047619047450e+00,-9.299973593800675819e-06,-3.631054491254798221e-05
2.548412698412698241e+00,-9.528143781350904346e-06,-4.377236014991182645e-05
2.549206349206349032e+00,-8.922852940392191198e-06,-4.771585265120665176e-05
2.549999999999999822e+00,-7.585004246675060439e-06,-4.748174322229749581e-05
2.550793650793650613e+00,-5.731788320972612248e-06,-4.297031996025287622e-05
2.551587301587301404e+00,-3.640922064387026020e-06,-3.449362877984559709e-05
2.552380952380952195e+00,-1.583204135490972702e-06,-2.259526729414818635e-05
2.553174603174602986e+00,2.372898803698760649e-07,-7.956338480902758602e-06
2.553968253968253777e+00,1.717535960851549825e-06,8.552959107297150270e-06
2.554761904761904567e+00,2.855043792157819833e-06,2.572959933385508751e-05
2.555555555555555358e+00,3.716252826722272275e-06,4.194965533612868020e-05
2.556349206349206149e+00,4.389310639617504597e-06,5.528334378912284019e-05
2.557142857142856940e+00,4.941008501790145394e-06,6.385211717117696075e-05
2.557936507936507731e+00,5.392915128563488133e-06,6.631713840305788999e-05
2.558730158730158522e+00,5.721420837265203542e-06,6.229641233283858277e-05
2.559523809523809312e+00,5.876317443656245369e-06,5.253153493162601565e-05
2.560317460317460103e+00,5.807209071270208212e-06,3.874226740015613820e-05
2.561111111111110894e+00,5.487367770147159215e-06,2.323785038067516308e-05
2.561904761904761685e+00,4.928251123289879813e-06,8.426197603738831040e-06
2.562698412698412920e+00,4.181757466055395113e-06,-3.641205717928664748e-06
2.563492063492063711e+00,3.330214564932530970e-06,-1.159991419355288702e-05
2.564285714285714501e+00,2.466793450633649674e-06,-1.494436789193771810e-05
2.565079365079365292e+00,1.672082144901154617e-06,-1.404280810270800223e-05
2.565873015873016083e+00,9.946826930039748992e-07,-1.001310498213179364e-05
2.566666666666666874e+00,4.426292606832505004e-07,-4.484255095810656107e-06
2.567460317460317665e+00,-1.224222913674485333e-08,7.237189447444187758e-07
2.568253968253968456e+00,-4.202899185475474887e-07,3.957112457069398641e-06
2.569047619047619246e+00,-8.365104697269551461e-07,4.066089799515986923e-06
2.569841269841270037e+00,-1.304850653083230332e-06,6.563753561481646382e-07
2.570634920634920828e+00,-1.847523998656113746e-06,-5.808338595099845989e-06
2.571428571428571619e+00,-2.460401887366198546e-06,-1.409308898295846845e-05
2.572222222222222410e+00,-3.114260840749006054e-06,-2.246192712955978087e-05
2.573015873015873201e+00,-3.761007388708631768e-06,-2.907325304388980809e-05
2.573809523809523991e+00,-4.343697416462980124e-06,-3.240285605408795363e-05
2.574603174603174782e+00,-4.808897076369418818e-06,-3.158900506864295267e-05
2.575396825396825573e+00,-5.119360256144150918e-06,-2.661840172064680056e-05
2.576190476190476364e+00,-5.264070672642574066e-06,-1.831764939533003230e-05
2.576984126984127155e+00,-5.262036893061833061e-06,-8.164313384954356438e-06
2.577777777777777946e+00,-5.156991706271310700e-06,2.029674367835363905e-06
2.578571428571428736e+00,-5.002937256452943705e-06,1.048801272153179363e-05
2.579365079365079527e+00,-4.844320813685388086e-06,1.581591902030828655e-05
2.580158730158730318e+00,-4.697510348506032914e-06,1.725690448345244536e-05
2.580952380952381109e+00,-4.540655948335763300e-06,1.481765786595470732e-05
2.581746031746031900e+00,-4.316692452720363237e-06,9.244316691343428910e-06
2.582539682539682691e+00,-3.949902556079182790e-06,1.860494990695834021e-06
2.583333333333333481e+00,-3.371630385024156576e-06,-5.698177537797956778e-06
2.584126984126984272e+00,-2.547214215861639124e-06,-1.180297510796680925e-05
2.584920634920635063e+00,-1.495226558375975992e-06,-1.515053051667328128e-05
2.585714285714285854e+00,-2.919144290965289834e-07,-1.502845356783424868e-05
2.586507936507936645e+00,9.421762345871941895e-07,-1.147636651552658568e-05
2.587301587301587436e+00,2.071126679589568245e-06,-5.294431926551526506e-06
2.588095238095238226e+00,2.981059448824218111e-06,2.127887452896046720e-06
2.588888888888889017e+00,3.616164379696909333e-06,9.144301971428135670e-06
2.589682539682539808e+00,4.003053840982222901e-06,1.426697460236930968e-05
2.590476190476190599e+00,4.255041473009473124e-06,1.654164932084113031e-05
2.591269841269841390e+00,4.552306445106630436e-06,1.576138570376452760e-05
2.592063492063492181e+00,5.100274263781764428e-06,1.245389914959405690e-05
2.592857142857142971e+00,6.074631461760430525e-06,7.662585857851918593e-06
2.593650793650793762e+00,7.564915324482632900e-06,2.612240390767097107e-06
2.594444444444444553e+00,9.529440536777228390e-06,-1.623166985828323648e-06
2.595238095238095344e+00,1.177321826607495328e-05,-4.355084663694681345e-06
2.596031746031746135e+00,1.395712033034159612e-05,-5.374146942864956332e-06
2.596825396825396925e+00,1.564034258073592412e-05,-4.915486592740290124e-06
2.597619047619047716e+00,1.635082468196707813e-05,-3.541749080580763970e-06
2.598412698412698507e+00,1.567278660674902447e-05,-1.992502414976526977e-06
2.599206349206349298e+00,1.333850342727690619e-05,-1.031238091549946913e-06
2.600000000000000089e+00,9.311256533888617059e-06,-1.304660599923761943e-06
2.600793650793650880e+00,3.845079658203459373e-06,-3.225961036490779587e-06
2.601587301587301670e+00,-2.496577507468738069e-06,-6.899465943082766541e-06
2.602380952380952461e+00,-8.883638254682415500e-06,-1.210387342836595807e-05
2.603174603174603252e+00,-1.433856013630614698e-05,-1.833629353933489360e-05
2.603968253968254043e+00,-1.792743233122804430e-05,-2.489591196665355235e-05
2.604761904761904834e+00,-1.898802554029112950e-05,-3.097170709371331913e-05
2.605555555555555625e+00,-1.733237828654389390e-05,-3.570662727905292601e-05
2.606349206349206415e+00,-1.335476766740988956e-05,-3.823766719498373649e-05
2.607142857142857206e+00,-7.997294391692335243e-06,-3.773839539338584884e-05
2.607936507936507997e+00,-2.566669699116728989e-06,-3.349785476147234414e-05
2.608730158730158788e+00,1.559851152417930217e-06,-2.505255111842135272e-05
2.609523809523809579e+00,3.269167973883853625e-06,-1.235717457117386051e-05
2.610317460317460370e+00,2.004667505486848934e-06,4.051551588836495463e-06
2.611111111111111160e+00,-2.059783260752248272e-06,2.296427189871789177e-05
2.611904761904761951e+00,-8.016635241379764548e-06,4.254673066848883655e-05
2.612698412698412742e+00,-1.440810512788472996e-05,6.055863144985450030e-05
2.613492063492063533e+00,-1.956553774525808854e-05,7.471929796723323096e-05
2.614285714285714324e+00,-2.202525693503959287e-05,8.313661277741892007e-05
2.615079365079365115e+00,-2.090832715218860673e-05,8.468093024601684997e-05
2.615873015873015905e+00,-1.615449890125114719e-05,7.919343319868567580e-05
2.616666666666666696e+00,-8.545095151206780673e-06,6.747103126396837504e-05
2.617460317460317487e+00,4.830568639619041558e-07,5.104760662928745335e-05
2.618253968253968278e+00,9.171566682623148207e-06,3.185731791798643466e-05
2.619047619047619069e+00,1.583193460561611572e-05,1.188830307674188556e-05
2.619841269841269860e+00,1.920506140341374934e-05,-7.089808568756219186e-06
2.620634920634920650e+00,1.871773556818524676e-05,-2.369118893822994717e-05
2.621428571428571441e+00,1.458951886801535679e-05,-3.698351204201187403e-05
2.622222222222222232e+00,7.771070761942308210e-06,-4.649410257717641369e-05
2.623015873015873023e+00,-2.726215465061321086e-07,-5.217839691372416506e-05
2.623809523809523814e+00,-7.884964801686208076e-06,-5.435677288138378343e-05
2.624603174603174605e+00,-1.356815835634840592e-05,-5.361232121842133587e-05
2.625396825396825395e+00,-1.627548964588193143e-05,-5.064943270137107399e-05
2.626190476190476186e+00,-1.558230020740835150e-05,-4.613793740315691737e-05
2.626984126984126977e+00,-1.171542523919929527e-05,-4.058854846570437671e-05
2.627777777777777768e+00,-5.461090565841892812e-06,-3.430033606081562327e-05
2.628571428571428559e+00,2.009465420402716219e-06,-2.738838677218957877e-05
2.629365079365079350e+00,9.358558789839753513e-06,-1.986182872984313031e-05
2.630158730158730140e+00,1.531504956651968640e-05,-1.170611342401331454e-05
2.630952380952380931e+00,1.889527532501020116e-05,-2.939274325872465429e-06
2.631746031746031722e+00,1.958080354710773418e-05,6.354346538376392141e-06
2.632539682539682513e+00,1.741629491348799949e-05,1.598672042903026710e-05
2.633333333333333304e+00,1.299642861433882379e-05,2.560808833415355258e-05
2.634126984126984095e+00,7.334581589429958229e-06,3.464509476133802933e-05
2.634920634920634885e+00,1.640328880169058180e-06,4.228072501993596224e-05
2.635714285714285676e+00,-2.939462180241715256e-06,4.752080476028302278e-05
2.636507936507936467e+00,-5.552822946327639571e-06,4.936109448630407936e-05
2.637301587301587258e+00,-5.796369630368743349e-06,4.702573489844096829e-05
2.638095238095238049e+00,-3.762324277081980758e-06,4.021159977910777970e-05
2.638888888888888840e+00,2.177632143675545532e-08,2.925971316279227786e-05
2.639682539682539630e+00,4.737330115308206937e-06,1.519158558331451716e-05
2.640476190476190421e+00,9.464360062688702730e-06,-4.117920750675286097e-07
2.641269841269841212e+00,1.337322359168120491e-05,-1.566396151077829009e-05
2.642063492063492003e+00,1.587815835267565064e-05,-2.869766035542360878e-05
2.642857142857142794e+00,1.672152622823373596e-05,-3.797982064150121561e-05
2.643650793650793585e+00,1.597271231340445364e-05,-4.254562140303640839e-05
2.644444444444444375e+00,1.394736715273072424e-05,-4.211217182697739623e-05
2.645238095238095166e+00,1.107620787562279095e-05,-3.707101177459238710e-05
2.646031746031745957e+00,7.767408259951793929e-06,-2.838597199333998901e-05
2.646825396825396748e+00,4.304914947388426623e-06,-1.742991441540973701e-05
2.647619047619047539e+00,8.086030641525098423e-07,-5.785989739327314181e-06
2.648412698412698330e+00,-2.740091939881971693e-06,4.967839711642865665e-06
2.649206349206349120e+00,-6.422544926014799828e-06,1.346821048447215605e-05
2.649999999999999911e+00,-1.028440554442590844e-05,1.873896201509378225e-05
2.650793650793650702e+00,-1.424613906916256004e-05,2.029872783379535695e-05
2.651587301587301493e+00,-1.805420458456883978e-05,1.819198867558168649e-05
2.652380952380952284e+00,-2.129597268581138707e-05,1.295185664472087447e-05
2.653174603174603075e+00,-2.348143428113762287e-05,5.512661668675937414e-06
2.653968253968253865e+00,-2.416810232103407799e-05,-2.912635905945824076e-06
2.654761904761904656e+00,-2.308710002691441218e-05,-1.098459395072356192e-05
2.655555555555555447e+00,-2.022986834426243664e-05,-1.742017758763333903e-05
2.656349206349206238e+00,-1.587236898998655528e-05,-2.120286949643032851e-05
2.657142857142857029e+00,-1.053371967569502690e-05,-2.179504654571441668e-05
2.657936507936507819e+00,-4.881188308584926542e-06,-1.929705681203239891e-05
2.658730158730158610e+00,3.958292046218125404e-07,-1.448085452216695497e-05
2.659523809523809401e+00,4.713730057997048781e-06,-8.646469679506546825e-06
2.660317460317460192e+00,7.696389332679208156e-06,-3.307185345743146009e-06
2.661111111111110983e+00,9.231005205648553158e-06,2.219230053987377553e-07
2.661904761904761774e+00,9.469754545244352191e-06,1.211197785363594668e-06
2.662698412698412564e+00,8.779388400366632726e-06,-2.431103287099759587e-07
2.663492063492063355e+00,7.650944498945272824e-06,-3.203318108382259973e-06
2.664285714285714146e+00,6.590719225960094931e-06,-6.108187682879862482e-06
2.665079365079364937e+00,6.017533738024217280e-06,-7.167508882790095622e-06
2.665873015873015728e+00,6.187376848497691276e-06,-4.837229440555221730e-06
2.666666666666666519e+00,7.157035142995898183e-06,1.733591981816327196e-06
2.667460317460317309e+00,8.788434386551588289e-06,1.238824255910640019e-05
2.668253968253968100e+00,1.078843466918715468e-05,2.586636070854240050e-05
2.669047619047618891e+00,1.277461407515384487e-05,3.997377532261806309e-05
2.669841269841269682e+00,1.435417135867877600e-05,5.200200449601570285e-05
2.670634920634920473e+00,1.519962582276841049e-05,5.930616253406707447e-05
2.671428571428571264e+00,1.510364595706173627e-05,5.989229968049749432e-05
2.672222222222222054e+00,1.399951817967994506e-05,5.285552880892571996e-05
2.673015873015872845e+00,1.194400295339979905e-05,3.855965596396865747e-05
2.673809523809523636e+00,9.071964080700097146e-06,1.853656629497128043e-05
2.674603174603174427e+00,5.542261877780611116e-06,-4.831209385673603864e-06
2.675396825396825218e+00,1.498043429425195065e-06,-2.873331178185817831e-05
2.676190476190476009e+00,-2.941098487703980738e-06,-5.034948941717718373e-05
2.676984126984126799e+00,-7.652488665549828426e-06,-6.719086296919611493e-05
2.677777777777777590e+00,-1.246444306935957215e-05,-7.734367319937705690e-05
2.678571428571428381e+00,-1.711669719913518948e-05,-7.963342407324269627e-05
2.679365079365079172e+00,-2.124997471136513737e-05,-7.373753604329765627e-05
2.680158730158729963e+00,-2.443483082563309417e-05,-6.025499731672600542e-05
2.680952380952380754e+00,-2.623618204342844179e-05,-4.070932922783795726e-05
2.681746031746031544e+00,-2.630059369123050424e-05,-1.744084639831286932e-05
2.682539682539682335e+00,-2.444763200353038628e-05,6.650659833964599427e-06
2.683333333333333126e+00,-2.074220245722973156e-05,2.851877050517559974e-05
2.684126984126983917e+00,-1.552361267952414637e-05,4.548606727228047679e-05
2.684920634920634708e+00,-9.373536343733972188e-06,5.574403458797666164e-05
2.685714285714285499e+00,-3.020572713657798530e-06,5.868996260820873303e-05
2.686507936507936289e+00,2.800252306460726735e-06,5.499390283666957460e-05
2.687301587301587080e+00,7.496622611531415242e-06,4.637635991946574988e-05
2.688095238095238315e+00,1.073330518077685114e-05,3.516077637913934506e-05
2.688888888888889106e+00,1.247757665152047875e-05,2.371782164022407567e-05
2.689682539682539897e+00,1.296435071025694072e-05,1.394308544275295711e-05
2.690476190476190688e+00,1.259646209512870988e-05,6.902445804130007596e-06
2.691269841269841478e+00,1.181553006857804325e-05,2.729714860783569431e-06
2.692063492063492269e+00,1.098499046761478255e-05,7.790823097366762774e-07
2.692857142857143060e+00,1.031780695648716418e-05,-4.501377147379032591e-08
2.693650793650793851e+00,9.861551304438953772e-06,-9.016391432615221443e-07
2.694444444444444642e+00,9.531969643903380606e-06,-2.687413104955118148e-06
2.695238095238095433e+00,9.171806818539216902e-06,-5.845981262393039824e-06
2.696031746031746223e+00,8.609317781332161335e-06,-1.033120465873790719e-05
2.696825396825397014e+00,7.699860705623684585e-06,-1.569170476684077228e-05
2.697619047619047805e+00,6.348366502125159175e-06,-2.121638528141572391e-05
2.698412698412698596e+00,4.521119610270885785e-06,-2.608463298973543574e-05
2.699206349206349387e+00,2.255281386568075624e-06,-2.949546835252705047e-05
2.700000000000000178e+00,-3.342561371409637983e-07,-3.078217505913568289e-05
2.700793650793650968e+00,-3.059163715106117619e-06,-2.952577964474408512e-05
2.701587301587301759e+00,-5.680616808211757671e-06,-2.565744632927747021e-05
2.702380952380952550e+00,-7.949096576067812733e-06,-1.950906174479181767e-05
2.703174603174603341e+00,-9.649508307239927442e-06,-1.176540809422780694e-05
2.703968253968254132e+00,-1.063698526783548450e-05,-3.306207836264430817e-06
2.704761904761904923e+00,-1.085345797589927037e-05,5.016435980562648009e-06
2.705555555555555713e+00,-1.032365895863349798e-05,1.258079729699624313e-05
2.706349206349206504e+00,-9.136813009314661297e-06,1.909946659012738611e-05
2.707142857142857295e+00,-7.423826633919539305e-06,2.458679622476028288e-05
2.707936507936508086e+00,-5.338617549532955710e-06,2.920570540048348371e-05
2.708730158730158877e+00,-3.047473108632185061e-06,3.305728313953174377e-05
2.709523809523809668e+00,-7.246421308768600012e-07,3.600256357594117595e-05
2.710317460317460458e+00,1.451245790041549563e-06,3.759539912223148231e-05
2.711111111111111249e+00,3.305261091657074723e-06,3.716099841635992613e-05
2.711904761904762040e+00,4.680868569795853691e-06,3.399938904606977812e-05
2.712698412698412831e+00,5.458992265876037002e-06,2.764932600656090460e-05
2.713492063492063622e+00,5.576059601626801157e-06,1.812649170145738114e-05
2.714285714285714413e+00,5.035342539694812797e-06,6.055564911873976611e-06
2.715079365079365203e+00,3.908287011412342331e-06,-7.351570598146825026e-06
2.715873015873015994e+00,2.325736042761918956e-06,-2.047310251275179883e-05
2.716666666666666785e+00,4.615292796327929131e-07,-3.157195397260285089e-05
2.717460317460317576e+00,-1.487363548352460208e-06,-3.914717867315099825e-05
2.718253968253968367e+00,-3.319670599961613134e-06,-4.227268458381290751e-05
2.719047619047619158e+00,-4.844946835257130976e-06,-4.084972013221150006e-05
2.719841269841269948e+00,-5.895757549178349997e-06,-3.569891802127209466e-05
2.720634920634920739e+00,-6.340118271627407864e-06,-2.843364942883866862e-05
2.721428571428571530e+00,-6.096765334163997907e-06,-2.110324439943400744e-05
2.722222222222222321e+00,-5.152380441382778095e-06,-1.566822496287669932e-05
2.723015873015873112e+00,-3.575918918207439799e-06,-1.344381248637703100e-05
2.723809523809523903e+00,-1.523339389106902693e-06,-1.468672968283132834e-05
2.724603174603174693e+00,7.726085895639542696e-07,-1.847641776133164239e-05
2.725396825396825484e+00,3.029367480094628765e-06,-2.295464768613427926e-05
2.726190476190476275e+00,4.956148316810497246e-06,-2.586842862379823508e-05
2.726984126984127066e+00,6.303928358453030981e-06,-2.525564186535693100e-05
2.727777777777777857e+00,6.913616208701632648e-06,-2.005784399620537370e-05
2.728571428571428648e+00,6.749416767771156227e-06,-1.045932237445683538e-05
2.729365079365079438e+00,5.906096854457116473e-06,2.164553156283859696e-06
2.730158730158730229e+00,4.586256586373175921e-06,1.567523852921828354e-05
2.730952380952381020e+00,3.053977854373878892e-06,2.782378019244301733e-05
2.731746031746031811e+00,1.578874088568031791e-06,3.688799165786650072e-05
2.732539682539682602e+00,3.857393891433980381e-07,4.205971415197329424e-05
2.733333333333333393e+00,-3.797749825010454905e-07,4.346054701611471740e-05
2.734126984126984183e+00,-6.655988268473844733e-07,4.183525933076261550e-05
2.734920634920634974e+00,-5.083699742634888719e-07,3.810903398784566356e-05
2.735714285714285765e+00,-1.187035328676378824e-08,3.302366383584049011e-05
2.736507936507936556e+00,6.863325159367674024e-07,2.698640871524448509e-05
2.737301587301587347e+00,1.451459805359291242e-06,2.013691803964681994e-05
2.738095238095238138e+00,2.180102000870497609e-06,1.253808447006163442e-05
2.738888888888888928e+00,2.811590023402537396e-06,4.365900419840577633e-06
2.739682539682539719e+00,3.320252944702758442e-06,-3.992712814778432609e-06
2.740476190476190510e+00,3.695568114675662921e-06,-1.195647560241492080e-05
2.741269841269841301e+00,3.921781783416551287e-06,-1.883860995002708242e-05
2.742063492063492092e+00,3.965562710936628101e-06,-2.394004125452499807e-05
2.742857142857142883e+00,3.772801807881279335e-06,-2.660399150871992787e-05
2.743650793650793673e+00,3.271052177693800413e-06,-2.624495697528313068e-05
2.744444444444444464e+00,2.376352415452089111e-06,-2.241041969437891453e-05
2.745238095238095255e+00,1.008938941863893671e-06,-1.492893540592286517e-05
2.746031746031746046e+00,-8.750654276906907241e-07,-4.133353756121805518e-06
2.746825396825396837e+00,-3.233084967413094800e-06,8.940418369148421369e-06
2.747619047619047628e+00,-5.873948068723782115e-06,2.252327274943539032e-05
2.748412698412698418e+00,-8.404752514973990365e-06,3.434917111488370244e-05
2.749206349206349209e+00,-1.021832699293032142e-05,4.213402453577787596e-05
2.750000000000000000e+00,-1.055328568514395652e-05,4.414868081575952686e-05
2.750793650793650791e+00,-8.642136276755736882e-06,3.968492378296669521e-05
2.751587301587301582e+00,-3.932156277487124328e-06,2.925632016754934210e-05
2.752380952380952372e+00,3.669411365360164770e-06,1.447903909816498078e-05
2.753174603174603163e+00,1.359687940322323567e-05,-2.314306917368199732e-06
2.753968253968253954e+00,2.454954588163422868e-05,-1.860294267735901314e-05
2.754761904761904745e+00,3.459484798388941387e-05,-3.220252376785402682e-05
2.755555555555555536e+00,4.146975007939681339e-05,-4.166145530815102435e-05
2.756349206349206327e+00,4.304233602260270627e-05,-4.644882024877948848e-05
2.757142857142857117e+00,3.783633273425211270e-05,-4.690902396338461557e-05
2.757936507936507908e+00,2.548278282457611512e-05,-4.401741041779383477e-05
2.758730158730158699e+00,6.966581065786590114e-06,-3.902033969275207225e-05
2.759523809523809490e+00,-1.541497293365436575e-05,-3.306559495498159171e-05
2.760317460317460281e+00,-3.838783514114076903e-05,-2.692114147324548416e-05
2.761111111111111072e+00,-5.826321370335494666e-05,-2.085185392179498640e-05
2.761904761904761862e+00,-7.160886034348251444e-05,-1.468227833367364031e-05
2.762698412698412653e+00,-7.589537580841967989e-05,-8.022004243154707027e-06
2.763492063492063444e+00,-6.999359172830012645e-05,-5.786355294418870097e-07
2.764285714285714235e+00,-5.442869586593720050e-05,7.551055352417813653e-06
2.765079365079365026e+00,-3.133835888688002978e-05,1.572405897450230788e-05
2.765873015873015817e+00,-4.131779287235797791e-06,2.280594176446633392e-05
2.766666666666666607e+00,2.309769507075707726e-05,2.744711742977901174e-05
2.767460317460317398e+00,4.629764127273842316e-05,2.850563257980058928e-05
2.768253968253968189e+00,6.216922914738057541e-05,2.547368997332938792e-05
2.769047619047618980e+00,6.871176891278711965e-05,1.874889640595780088e-05
2.769841269841269771e+00,6.548593918450511025e-05,9.639239732049452003e-06
2.770634920634920562e+00,5.356195052312719216e-05,8.134972477520135237e-08
2.771428571428571352e+00,3.520254508215312612e-05,-7.855269545800347826e-06
2.772222222222222143e+00,1.338491526409516315e-05,-1.253870048548127128e-05
2.773015873015872934e+00,-8.722976657087980979e-06,-1.324959213231924418e-05
2.773809523809523725e+00,-2.823735171615024059e-05,-1.040048185450429739e-05
2.774603174603174516e+00,-4.292434900825516856e-05,-5.400051871154389313e-06
2.775396825396825307e+00,-5.142812661853078768e-05,-1.749601514734088763e-07
2.776190476190476097e+00,-5.335854418198092349e-05,3.504418474003669088e-06
2.776984126984126888e+00,-4.925380882325991846e-05,4.652176256291280611e-06
2.777777777777777679e+00,-4.044070306551314205e-05,3.405868748261266467e-06
2.778571428571428470e+00,-2.880992143826297252e-05,9.384189752290336813e-07
2.779365079365079261e+00,-1.651648412973475756e-05,-1.029698568632958031e-06
2.780158730158730052e+00,-5.622067954418725165e-06,-9.371565739242205368e-07
2.780952380952380842e+00,2.276995010130449716e-06,1.957013470562803855e-06
2.781746031746031633e+00,6.361353589516390121e-06,7.209306849248806947e-06
2.782539682539682424e+00,6.755705276924180329e-06,1.327323861000544844e-05
2.783333333333333215e+00,4.491942539738231962e-06,1.801492068403867569e-05
2.784126984126984006e+00,1.259737015169572926e-06,1.948799088991147934e-05
2.784920634920634797e+00,-1.007512695161793546e-06,1.668725264090660607e-05
2.785714285714285587e+00,-6.188466230340507690e-07,9.996187899004390536e-06
2.786507936507936378e+00,3.430694987977696841e-06,1.148372024345156439e-06
2.787301587301587169e+00,1.116922973463637014e-05,-7.298223265554300762e-06
2.788095238095237960e+00,2.158819083648537491e-05,-1.278803000812865225e-05
2.788888888888888751e+00,3.283659755803266649e-05,-1.358968895808663078e-05
2.789682539682539542e+00,4.262606383050276775e-05,-9.308826636733276617e-06
2.790476190476190332e+00,4.874662468801034895e-05,-9.184354462073683908e-07
2.791269841269841123e+00,4.956778041670237338e-05,9.664374462262778487e-06
2.792063492063491914e+00,4.441075016749094139e-05,2.025215604155518429e-05
2.792857142857142705e+00,3.371577751644112136e-05,2.904285029369689319e-05
2.793650793650793496e+00,1.897531641567744274e-05,3.504213363896012851e-05
2.794444444444444287e+00,2.449532630997509624e-06,3.815600713474830966e-05
2.795238095238095077e+00,-1.327738139361346010e-05,3.897759702508493777e-05
2.796031746031745868e+00,-2.580610637737106722e-05,3.837503583883054457e-05
2.796825396825396659e+00,-3.338408915449797034e-05,3.702438600188298726e-05
2.797619047619047450e+00,-3.521853000711882783e-05,3.503334998464829246e-05
2.798412698412698241e+00,-3.157709845634412401e-05,3.177722521704573461e-05
2.799206349206349032e+00,-2.366567112555103519e-05,2.601742131151854514e-05
2.799999999999999822e+00,-1.332196389805860431e-05,1.629761871187327259e-05
2.800793650793650613e+00,-2.600869909216860296e-06,1.529064578547995739e-06
2.801587301587301404e+00,6.650946160238659026e-06,-1.839487004176022892e-05
2.802380952380952195e+00,1.313146549226540861e-05,-4.215350719223149954e-05
2.803174603174602986e+00,1.625598664887583009e-05,-6.690689791475098829e-05
2.803968253968253777e+00,1.614262966116856142e-05,-8.866197984085486688e-05
2.804761904761904567e+00,1.344669792795283513e-05,-1.030720776034133924e-04
2.805555555555555358e+00,9.120434384165346931e-06,-1.064993064355887345e-04
2.806349206349206149e+00,4.178770854647701594e-06,-9.705320168450527209e-05
2.807142857142856940e+00,-4.779546633583342070e-07,-7.528073262498816609e-05
2.807936507936507731e+00,-4.175427968197143208e-06,-4.425772802957371970e-05
2.808730158730158522e+00,-6.529501951469240053e-06,-9.011451696086810012e-06
2.809523809523809312e+00,-7.480441147922703336e-06,2.457531915600071111e-05
2.810317460317460103e+00,-7.294410944723947927e-06,5.106001442120236674e-05
2.811111111111110894e+00,-6.513031687388170219e-06,6.657279621828131517e-05
2.811904761904761685e+00,-5.835690980629019141e-06,6.951135851003123814e-05
2.812698412698412920e+00,-5.942110933935704583e-06,6.068626085744151098e-05
2.813492063492063711e+00,-7.290226437502941237e-06,4.295948222816125178e-05
2.814285714285714501e+00,-9.942502229263118534e-06,2.051591091861711640e-05
2.815079365079365292e+00,-1.347623726430290523e-05,-2.050607101830747610e-06
2.815873015873016083e+00,-1.701912125987436878e-05,-2.064659533340320604e-05
2.816666666666666874e+00,-1.942022251073959076e-05,-3.240924288685209100e-05
2.817460317460317665e+00,-1.952418784758755695e-05,-3.612479076198830106e-05
2.818253968253968456e+00,-1.647824063668548817e-05,-3.226859882058311617e-05
2.819047619047619246e+00,-9.985823437227275416e-06,-2.268388240503114731e-05
2.819841269841270037e+00,-4.359350204903302327e-07,-1.000139598075688482e-05
2.820634920634920828e+00,1.112313231438217997e-05,3.033134676945862023e-06
2.821428571428571619e+00,2.315051682053842255e-05,1.413873755374503832e-05
2.822222222222222410e+00,3.387172401653621286e-05,2.184452421213208629e-05
2.823015873015873201e+00,4.157319115155336335e-05,2.555470173609775760e-05
2.823809523809523991e+00,4.488732628567280254e-05,2.539394606322992540e-05
2.824603174603174782e+00,4.303616605235724104e-05,2.195802153993678453e-05
2.825396825396825573e+00,3.600188601485226198e-05,1.608859427661270424e-05
2.826190476190476364e+00,2.458281180568874522e-05,8.733676823515509560e-06
2.826984126984127155e+00,1.029533840845941279e-05,8.909530400122382863e-07
2.827777777777777946e+00,-4.887074473553596401e-06,-6.407736082576474416e-06
2.828571428571428736e+00,-1.891289961142989990e-05,-1.212371534524586205e-05
2.829365079365079527e+00,-3.005512098487190726e-05,-1.529584407593370565e-05
2.830158730158730318e+00,-3.722533906001644920e-05,-1.520140830418913515e-05
2.830952380952381109e+00,-4.011213584161650440e-05,-1.156935200324798180e-05
2.831746031746031900e+00,-3.911477157239371625e-05,-4.773722809262246243e-06
2.832539682539682691e+00,-3.511267766533732990e-05,4.091599079844992099e-06
2.833333333333333481e+00,-2.916408879684690041e-05,1.333774927054190162e-05
2.834126984126984272e+00,-2.224220024077200390e-05,2.101759059594352782e-05
2.834920634920635063e+00,-1.508966647499928782e-05,2.539303652617449933e-05
2.835714285714285854e+00,-8.215563326100293687e-06,2.538335510491324522e-05
2.836507936507936645e+00,-1.997368733363989653e-06,2.084373001446657099e-05
2.837301587301587436e+00,3.191093995710832334e-06,1.259024762560773050e-05
2.838095238095238226e+00,6.909964251208943479e-06,2.181321278079234934e-06
2.838888888888889017e+00,8.693410603763578271e-06,-8.461893934845251267e-06
2.839682539682539808e+00,8.195023291083080582e-06,-1.748409489281432024e-05
2.840476190476190599e+00,5.379011430669297312e-06,-2.346810543647890698e-05
2.841269841269841390e+00,6.674846399708792609e-07,-2.567286746592464098e-05
2.842063492063492181e+00,-5.036385763753899866e-06,-2.409810001993249677e-05
2.842857142857142971e+00,-1.048306366215517237e-05,-1.938220261922308135e-05
2.843650793650793762e+00,-1.434104460762571946e-05,-1.258236312417344659e-05
2.844444444444444553e+00,-1.551389217406373119e-05,-4.908907747853897264e-06
2.845238095238095344e+00,-1.341577179310874125e-05,2.518965136528064157e-06
2.846031746031746135e+00,-8.127838446635063212e-06,8.851891351658754860e-06
2.846825396825396925e+00,-3.964058300908154331e-07,1.360206751844413991e-05
2.847619047619047716e+00,8.521827443368224709e-06,1.664168796705415624e-05
2.848412698412698507e+00,1.712552608205048077e-05,1.811628776420003590e-05
2.849206349206349298e+00,2.398143020907987717e-05,1.830360799328210438e-05
2.850000000000000089e+00,2.801413625613865190e-05,1.747365897343932997e-05
2.850793650793650880e+00,2.871172755942346441e-05,1.581158383205102119e-05
2.851587301587301670e+00,2.620612806781865816e-05,1.343333570141924362e-05
2.852380952380952461e+00,2.121471796441217288e-05,1.046689147600506409e-05
2.853174603174603252e+00,1.486019026036771423e-05,7.129363781143915656e-06
2.853968253968254043e+00,8.412436539901608769e-06,3.736932014581350944e-06
2.854761904761904834e+00,3.013041655375288755e-06,6.349747003228239267e-07
2.855555555555555625e+00,-5.538402786902825033e-07,-1.908576137215785003e-06
2.856349206349206415e+00,-1.991876055615264407e-06,-3.781082648165467725e-06
2.857142857142857206e+00,-1.497592176227418669e-06,-5.030606316141002395e-06
2.857936507936507997e+00,3.511647784125786282e-07,-5.804114760912609615e-06
2.858730158730158788e+00,2.781678321709371467e-06,-6.265480968683060051e-06
2.859523809523809579e+00,5.029612296956949674e-06,-6.545406483343288853e-06
2.860317460317460370e+00,6.506068862857454178e-06,-6.742226983895119594e-06
2.861111111111111160e+00,6.895552010597101345e-06,-6.949432159122074589e-06
2.861904761904761951e+00,6.175886910822926154e-06,-7.266260490282357409e-06
2.862698412698412742e+00,4.570907849936750391e-06,-7.764502761101683878e-06
2.863492063492063533e+00,2.459014033984833838e-06,-8.423160415252604883e-06
2.864285714285714324e+00,2.652240387537290110e-07,-9.074380879952736396e-06
2.865079365079365115e+00,-1.637632966475241963e-06,-9.407681057600796176e-06
2.865873015873015905e+00,-2.999492392000149682e-06,-9.053440460558650652e-06
2.866666666666666696e+00,-3.725286497926015143e-06,-7.725624441631960508e-06
2.867460317460317487e+00,-3.868208308416053839e-06,-5.367829670203165020e-06
2.868253968253968278e+00,-3.591609771397454145e-06,-2.235288162466615684e-06
2.869047619047619069e+00,-3.112766814981465311e-06,1.131701326906091520e-06
2.869841269841269860e+00,-2.643912939787164059e-06,4.041041594483181307e-06
2.870634920634920650e+00,-2.344236131372234373e-06,5.843995317133213856e-06
2.871428571428571441e+00,-2.291540758693178559e-06,6.128410374254204113e-06
2.872222222222222232e+00,-2.476039556822048029e-06,4.851024909827615833e-06
2.873015873015873023e+00,-2.813727308093373324e-06,2.368338651309888665e-06
2.873809523809523814e+00,-3.174121393081707571e-06,-6.484708571622976217e-07
2.874603174603174605e+00,-3.416127494192878077e-06,-3.397872576361594711e-06
2.875396825396825395e+00,-3.425059119314097260e-06,-5.183471702928988103e-06
2.876190476190476186e+00,-3.143012803953749128e-06,-5.630782172881678782e-06
2.876984126984126977e+00,-2.585060646843398966e-06,-4.813739460803872976e-06
2.877777777777777768e+00,-1.836703766373699109e-06,-3.242948327546296418e-06
2.878571428571428559e+00,-1.033518402454660796e-06,-1.710904258084340329e-06
2.879365079365079350e+00,-3.292447389156032127e-07,-1.037911174981537681e-06
2.880158730158730140e+00,1.388866731117040017e-07,-1.798332763020407724e-06
2.880952380952380931e+00,2.793125459005645279e-07,-4.114512458771837847e-06
2.881746031746031722e+00,6.388009354148062812e-08,-7.580067945782631910e-06
2.882539682539682513e+00,-4.685931357823429029e-07,-1.132845816271307945e-05
2.883333333333333304e+00,-1.222579151291516153e-06,-1.422102077084760347e-05
2.884126984126984095e+00,-2.066794313267932054e-06,-1.510641961012598397e-05
2.884920634920634885e+00,-2.860467548476523785e-06,-1.309723498272501848e-05
2.885714285714285676e+00,-3.478342068570924282e-06,-7.808535007386653077e-06
2.886507936507936467e+00,-3.828617915332217275e-06,4.947504605745632874e-07
2.887301587301587258e+00,-3.860924631198293638e-06,1.088289851211367873e-05
2.888095238095238049e+00,-3.565059940972043069e-06,2.189249670937260710e-05
2.888888888888888840e+00,-2.963855115553436961e-06,3.177810931392487537e-05
2.889682539682539630e+00,-2.104239153554615733e-06,3.882380190428499033e-05
2.890476190476190421e+00,-1.049572127500391788e-06,4.164140620127171875e-05
2.891269841269841212e+00,1.256408841749007191e-07,3.939960874711157050e-05
2.892063492063492003e+00,1.339336271089901748e-06,3.195919864594687674e-05
2.892857142857142794e+00,2.505076989394704878e-06,1.991263519718781201e-05
2.893650793650793585e+00,3.535698620416948533e-06,4.534366704710972006e-06
2.894444444444444375e+00,4.347692450240208627e-06,-1.235040924073175177e-05
2.895238095238095166e+00,4.866063053840169018e-06,-2.857119559729566209e-05
2.896031746031745957e+00,5.028680008681294994e-06,-4.188261723557560148e-05
2.896825396825396748e+00,4.789078482612913993e-06,-5.027968079914477850e-05
2.897619047619047539e+00,4.118504001283237701e-06,-5.231734747619266309e-05
2.898412698412698330e+00,3.011003864894714222e-06,-4.737598370749989719e-05
2.899206349206349120e+00,1.496064418454128724e-06,-3.581310204138294306e-05
2.899999999999999911e+00,-3.416381331938292337e-07,-1.896119620817868546e-05
2.900793650793650702e+00,-2.344699409506033628e-06,1.036937396697042997e-06
2.901587301587301493e+00,-4.282445775443174833e-06,2.153276534340460146e-05
2.902380952380952284e+00,-5.878071508212523190e-06,3.977001368071011604e-05
2.903174603174603075e+00,-6.862719700488608681e-06,5.331167662654941815e-05
2.903968253968253865e+00,-7.044730111160795795e-06,6.041739022098424969e-05
2.904761904761904656e+00,-6.376249729602228051e-06,6.028951012035186220e-05
2.905555555555555447e+00,-4.998167368959523220e-06,5.312816667808406492e-05
2.906349206349206238e+00,-3.247176146897283692e-06,3.998653017396623167e-05
2.907142857142857029e+00,-1.615781594013749031e-06,2.248165479400042390e-05
2.907936507936507819e+00,-6.658444685050358709e-07,2.463754816511749800e-06
2.908730158730158610e+00,-9.059744056476053894e-07,-1.824820517973290657e-05
2.909523809523809401e+00,-2.651619285749775483e-06,-3.799787050024548387e-05
2.910317460317460192e+00,-5.895596562355229479e-06,-5.528919498314390760e-05
2.911111111111110983e+00,-1.022647647396069115e-05,-6.871048043680590980e-05
2.911904761904761774e+00,-1.483616983240700630e-05,-7.687720568549684917e-05
2.912698412698412564e+00,-1.864427457590833880e-05,-7.847976083090018587e-05
2.913492063492063355e+00,-2.053011203351161307e-05,-7.247718226525044977e-05
2.914285714285714146e+00,-1.961761134782639222e-05,-5.840887715209589859e-05
2.915079365079364937e+00,-1.552946996129066774e-05,-3.673147746601838058e-05
2.915873015873015728e+00,-8.532368787108255255e-06,-9.053797786188601889e-06
2.916666666666666519e+00,4.708088304339432469e-07,2.184983141899840689e-05
2.917460317460317309e+00,1.010161857822001536e-05,5.231972126493801182e-05
2.918253968253968100e+00,1.878095638926503781e-05,7.837462833161520470e-05
2.919047619047618891e+00,2.505350860011588575e-05,9.645243326046055294e-05
2.919841269841269682e+00,2.788559967630222514e-05,1.041426011299913858e-04
2.920634920634920473e+00,2.686624448903570951e-05,1.007018817445319456e-04
2.921428571428571264e+00,2.226596924833964346e-05,8.719475608609014554e-05
2.922222222222222054e+00,1.494651360472594934e-05,6.621143007305463650e-05
2.923015873015872845e+00,6.154691494984713471e-06,4.124767404931935769e-05
2.923809523809523636e+00,-2.738095552621768822e-06,1.593122364469067812e-05
2.924603174603174427e+00,-1.048155363949716748e-05,-6.687945951469295520e-06
2.925396825396825218e+00,-1.612270644084242454e-05,-2.460792271356462626e-05
2.926190476190476009e+00,-1.908851930379020011e-05,-3.702344145804557600e-05
2.926984126984126799e+00,-1.918457792742403080e-05,-4.417669215230138064e-05
2.927777777777777590e+00,-1.654204349211542516e-05,-4.701627114587312727e-05
2.928571428571428381e+00,-1.155004224811428455e-05,-4.680363622177636525e-05
2.929365079365079172e+00,-4.800974187557231560e-06,-4.478631079592800294e-05
2.930158730158729963e+00,2.942254577501146255e-06,-4.199905733062955803e-05
2.930952380952380754e+00,1.076986496821645501e-05,-3.918772410204399365e-05
2.931746031746031544e+00,1.766874483629012269e-05,-3.680516813649690344e-05
2.932539682539682335e+00,2.261463906060616144e-05,-3.502174389384141916e-05
2.933333333333333126e+00,2.472138710118327408e-05,-3.372123171935724158e-05
2.934126984126983917e+00,2.342474254649989547e-05,-3.249521377005155969e-05
2.934920634920634708e+00,1.865297341291435732e-05,-3.067802102250843433e-05
2.935714285714285499e+00,1.092858376672021649e-05,-2.746344011847576694e-05
2.936507936507936289e+00,1.358025888876911456e-06,-2.211220691763356478e-05
2.937301587301587080e+00,-8.506072852187808336e-06,-1.421002137742152536e-05
2.938095238095238315e+00,-1.691304702979556715e-05,-3.894835999461859325e-06
2.938888888888889106e+00,-2.222809133214162237e-05,8.036062635665528297e-06
2.939682539682539897e+00,-2.325009302231110912e-05,2.019757611720301605e-05
2.940476190476190688e+00,-1.946540481048783877e-05,3.086910616804505720e-05
2.941269841269841478e+00,-1.117620355444775835e-05,3.836979359902547535e-05
2.942063492063492269e+00,5.342376508341571962e-07,4.145371249242856568e-05
2.942857142857143060e+00,1.399641868480121604e-05,3.960872685022411022e-05
2.943650793650793851e+00,2.726116649697367072e-05,3.317148780423738371e-05
2.944444444444444642e+00,3.843936535825100706e-05,2.323375899656715391e-05
2.945238095238095433e+00,4.599577360549422848e-05,1.138381454251230647e-05
2.946031746031746223e+00,4.894372341763279972e-05,-6.297080603740688034e-07
2.946825396825397014e+00,4.692406669736159583e-05,-1.121842436283771822e-05
2.947619047619047805e+00,4.018284573807424134e-05,-1.919000784339333483e-05
2.948412698412698596e+00,2.947908542538235440e-05,-2.386592056359133467e-05
2.949206349206349387e+00,1.595554605840833167e-05,-2.508276199555566473e-05
2.950000000000000178e+00,9.951984831485921517e-07,-2.310587710942427881e-05
2.950793650793650968e+00,-1.392772641744108910e-05,-1.849870116136638568e-05
2.951587301587301759e+00,-2.740185325545388569e-05,-1.199168205955378689e-05
2.952380952380952550e+00,-3.823486284647497431e-05,-4.381258657311689639e-06
2.953174603174603341e+00,-4.559629777091204204e-05,3.532703671732419593e-06
2.953968253968254132e+00,-4.911923398625317900e-05,1.098394853210285972e-05
2.954761904761904923e+00,-4.893139402832531780e-05,1.727438218961622560e-05
2.955555555555555713e+00,-4.559872825313906678e-05,2.182286067111516604e-05
2.956349206349206504e+00,-3.998714232435021020e-05,2.422612396860393506e-05
2.957142857142857295e+00,-3.307275398423247529e-05,2.431097206610398085e-05
2.957936507936508086e+00,-2.574772359893709228e-05,2.215161357497402026e-05
2.958730158730158877e+00,-1.866937521427686501e-05,1.803959172596213159e-05
2.959523809523809668e+00,-1.218543405183204491e-05,1.241885144381738335e-05
2.960317460317460458e+00,-6.346320038643888790e-06,5.820228942685369025e-06
2.961111111111111249e+00,-9.945250365594268721e-07,-1.167953761242367636e-06
2.961904761904762040e+00,4.096940440121227202e-06,-7.879181273349128374e-06
2.962698412698412831e+00,9.079264339655061363e-06,-1.352134792525506844e-05
2.963492063492063622e+00,1.392229712527641918e-05,-1.715812354082489610e-05
2.964285714285714413e+00,1.838306209472417521e-05,-1.778247113325026837e-05
2.965079365079365203e+00,2.205592557239673926e-05,-1.452048523758310241e-05
2.965873015873015994e+00,2.448344188680297599e-05,-6.948909147791386179e-06
2.966666666666666785e+00,2.528946786954237901e-05,4.559255696151329982e-06
2.967460317460317576e+00,2.429428498686563381e-05,1.860214573806434640e-05
2.968253968253968367e+00,2.158105775895943868e-05,3.277626805807668431e-05
2.969047619047619158e+00,1.749805505625834064e-05,4.404221502612630192e-05
2.969841269841269948e+00,1.259795418640493083e-05,4.938226888347796515e-05
2.970634920634920739e+00,7.531046627288482721e-06,4.657934843237000185e-05
2.971428571428571530e+00,2.919146674215413438e-06,3.488594981555753993e-05
2.972222222222222321e+00,-7.605367768698646782e-07,1.537904046468711216e-05
2.973015873015873112e+00,-3.255542682793326435e-06,-9.108384153033971436e-06
2.973809523809523903e+00,-4.563770741572062221e-06,-3.447159595712460793e-05
2.974603174603174693e+00,-4.899176230817504528e-06,-5.612941562521811799e-05
2.975396825396825484e+00,-4.609941663710611246e-06,-6.996553386725368011e-05
2.976190476190476275e+00,-4.076179299130729808e-06,-7.322276868294120373e-05
2.976984126984127066e+00,-3.617473964521204875e-06,-6.515303181966657575e-05
2.977777777777777857e+00,-3.432194171377801755e-06,-4.725472338517918271e-05
2.978571428571428648e+00,-3.577260892866222107e-06,-2.300774204105688790e-05
2.979365079365079438e+00,-3.985366824114047830e-06,2.860102062108429545e-06
2.980158730158730229e+00,-4.508983469701607142e-06,2.540767096550611265e-05
2.980952380952381020e+00,-4.976908747211727971e-06,4.055311475438398342e-05
2.981746031746031811e+00,-5.248904235010775166e-06,4.590561109155784429e-05
2.982539682539682602e+00,-5.256357991225505533e-06,4.115581649323693492e-05
2.983333333333333393e+00,-5.020959760885022810e-06,2.797069010690808288e-05
2.984126984126984183e+00,-4.647915397208612201e-06,9.487691639457255147e-06
2.984920634920634974e+00,-4.294647230956599143e-06,-1.040924116324566214e-05
2.985714285714285765e+00,-4.120826540173686360e-06,-2.784827625681590712e-05
2.986507936507936556e+00,-4.231237935258116670e-06,-3.963595857974670978e-05
2.987301587301587347e+00,-4.627548889622415005e-06,-4.376449770875192783e-05
2.988095238095238138e+00,-5.185626086121586422e-06,-3.971913152047111946e-05
2.988888888888888928e+00,-5.669936398225623978e-06,-2.854207246206655490e-05
2.989682539682539719e+00,-5.786301281417415156e-06,-1.261562029872930946e-05
2.990476190476190510e+00,-5.261513961693836528e-06,4.829948097016725936e-06
2.991269841269841301e+00,-3.927721314069122676e-06,2.040411841723863397e-05
2.992063492063492092e+00,-1.785945889638242334e-06,3.128902185243178166e-05
2.992857142857142883e+00,9.711347490284061595e-07,3.583662297161643211e-05
2.993650793650793673e+00,3.984315826263128811e-06,3.387874425428073251e-05
2.994444444444444464e+00,6.793880447830559201e-06,2.667920587513955091e-05
2.995238095238095255e+00,8.929275566175859166e-06,1.655727570759989915e-05
2.996031746031746046e+00,1.000152218349896888e-05,6.292417301877759137e-06
2.996825396825396837e+00,9.779493688130753195e-06,-1.538517038959860215e-06
2.997619047619047628e+00,8.236742506121339251e-06,-5.135971049411003201e-06
2.998412698412698418e+00,5.562398230403034400e-06,-3.833950598592399380e-06
2.999206349206349209e+00,2.136052826683415775e-06,1.835107416266008602e-06
3.000000000000000000e+00,-1.528826951144986328e-06,1.035711540487692462e-05
3.000793650793650791e+00,-4.865642100335365212e-06,1.964681792578725126e-05
3.001587301587301582e+00,-7.349468864830134032e-06,2.752501408373301156e-05
3.002380952380952372e+00,-8.591194669924358631e-06,3.214713228385567901e-05
3.003174603174603163e+00,-8.411196764700579838e-06,3.231372313157883483e-05
3.003968253968253954e+00,-6.872374941746121775e-06,2.764406377559453130e-05
3.004761904761904745e+00,-4.260889822797025680e-06,1.862300312533871031e-05
3.005555555555555536e+00,-1.019054431107113764e-06,6.530230548157859015e-06
3.006349206349206327e+00,2.349272123600396320e-06,-6.753577274012066361e-06
3.007142857142857117e+00,5.373613762604678446e-06,-1.906848965631455692e-05
3.007936507936507908e+00,7.690089786523846970e-06,-2.839580681328288204e-05
3.008730158730158699e+00,9.082921309373269636e-06,-3.329457492327031731e-05
3.009523809523809490e+00,9.495298454790647726e-06,-3.323458359249045497e-05
3.010317460317460281e+00,9.016225695279591915e-06,-2.871593579178538899e-05
3.011111111111111072e+00,7.850516120486222829e-06,-2.112355439766984904e-05
3.011904761904761862e+00,6.277575265149380399e-06,-1.234987114898885428e-05
3.012698412698412653e+00,4.603511007239738978e-06,-4.297288047971403507e-06
3.013492063492063444e+00,3.111547457784951652e-06,1.588716791347010718e-06
3.014285714285714235e+00,2.017312175216995393e-06,4.622326381784076026e-06
3.015079365079365026e+00,1.436528991176151254e-06,4.946871979271396256e-06
3.015873015873015817e+00,1.371122887077241148e-06,3.381767462046026379e-06
3.016666666666666607e+00,1.715733628243662954e-06,1.118881530739282854e-06
3.017460317460317398e+00,2.282208822129375774e-06,-6.355647272752322946e-07
3.018253968253968189e+00,2.836905328446504263e-06,-9.864918708178430753e-07
3.019047619047618980e+00,3.144835003319294966e-06,4.227672442337288700e-07
3.019841269841269771e+00,3.014524997227480060e-06,3.327538183827888762e-06
3.020634920634920562e+00,2.336799200561959215e-06,6.924732761048877718e-06
3.021428571428571352e+00,1.109888396792939093e-06,1.010155781455059476e-05
3.022222222222222143e+00,-5.560820156481946537e-07,1.174082346519498295e-05
3.023015873015872934e+00,-2.458599207942681431e-06,1.100606344581677251e-05
3.023809523809523725e+00,-4.343265374986822561e-06,7.524771685821383127e-06
3.024603174603174516e+00,-5.955780161244865512e-06,1.437329663689930056e-06
3.025396825396825307e+00,-7.092860687893092591e-06,-6.669251496600164408e-06
3.026190476190476097e+00,-7.641298145344542034e-06,-1.589675029708377199e-05
3.026984126984126888e+00,-7.598633245311138681e-06,-2.519487676015055792e-05
3.027777777777777679e+00,-7.072760053508559540e-06,-3.351286062924954776e-05
3.028571428571428470e+00,-6.260303384953353801e-06,-3.992612915114360683e-05
3.029365079365079261e+00,-5.405994960347485873e-06,-4.372821615933708512e-05
3.030158730158730052e+00,-4.748673684511325620e-06,-4.448019162754065267e-05
3.030952380952380842e+00,-4.463888612407427432e-06,-4.201258968493881506e-05
3.031746031746031633e+00,-4.616578247572094898e-06,-3.638472787166923729e-05
3.032539682539682424e+00,-5.136886501264966254e-06,-2.782479497552045437e-05
3.033333333333333215e+00,-5.826091244220463200e-06,-1.669123973422552664e-05
3.034126984126984006e+00,-6.390123443996342453e-06,-3.492881573708543076e-06
3.034920634920634797e+00,-6.490567071974634901e-06,1.103009788460667974e-05
3.035714285714285587e+00,-5.801379441891516063e-06,2.581659097198944866e-05
3.036507936507936378e+00,-4.063572383906215800e-06,3.947644405375761080e-05
3.037301587301587169e+00,-1.135972807568005834e-06,5.043989693481044342e-05
3.038095238095237960e+00,2.956499453300832233e-06,5.727015606555189905e-05
3.038888888888888751e+00,7.977620635418100614e-06,5.905328141657997234e-05
3.039682539682539542e+00,1.344596781205418069e-05,5.572206314162493043e-05
3.040476190476190332e+00,1.863144649260962032e-05,4.817979749593487770e-05
3.041269841269841123e+00,2.260942039723196260e-05,3.815714421064918743e-05
3.042063492063491914e+00,2.439615489975178268e-05,2.782577956354505990e-05
3.042857142857142705e+00,2.316777015326582093e-05,1.927005493358641727e-05
3.043650793650793496e+00,1.852807375733997710e-05,1.395984981747566525e-05
3.044444444444444287e+00,1.075287638264136157e-05,1.236990837597829291e-05
3.045238095238095077e+00,9.189850686035865214e-07,1.385724348111095934e-05
3.046031746031745868e+00,-9.162515564711665297e-06,1.684152410925498204e-05
3.046825396825396659e+00,-1.724683057051749088e-05,1.924519447408408671e-05
3.047619047619047450e+00,-2.116300381648045397e-05,1.907106914597248406e-05
3.048412698412698241e+00,-1.942635294579039178e-05,1.495842709149282232e-05
3.049206349206349032e+00,-1.178907443410783717e-05,6.573419767446306587e-06
3.049999999999999822e+00,4.618683669076879123e-07,-5.260701610455040500e-06
3.050793650793650613e+00,1.460895358671665954e-05,-1.872538748764333204e-05
3.051587301587301404e+00,2.705175620305834487e-05,-3.142836327324071718e-05
3.052380952380952195e+00,3.419544733883104435e-05,-4.099185305286537378e-05
3.053174603174602986e+00,3.344760518184012688e-05,-4.566618989546273011e-05
3.053968253968253777e+00,2.402464890107053048e-05,-4.480790566638107595e-05
3.054761904761904567e+00,7.299615756879836353e-06,-3.908331138501156449e-05
3.055555555555555358e+00,-1.344877456674066440e-05,-3.032386604068445254e-05
3.056349206349206149e+00,-3.383785145613880512e-05,-2.105566031065161998e-05
3.057142857142856940e+00,-4.950448553836476199e-05,-1.382624246854071298e-05
3.057936507936507731e+00,-5.721471238402954496e-05,-1.052305734603367565e-05
3.058730158730158522e+00,-5.563221110114469466e-05,-1.188563373256855746e-05
3.059523809523809312e+00,-4.553823743246910200e-05,-1.734686038253987461e-05
3.060317460317460103e+00,-2.948053699951723656e-05,-2.522504591545870784e-05
3.061111111111110894e+00,-1.100791885084474561e-05,-3.318213720320448802e-05
3.061904761904761685e+00,6.245030334223654449e-06,-3.880547439929846870e-05
3.062698412698412920e+00,1.935458259017472924e-05,-4.016488706252403860e-05
3.063492063492063711e+00,2.660362325049577090e-05,-3.622468801362947787e-05
3.064285714285714501e+00,2.762166754644697163e-05,-2.703448428742915471e-05
3.065079365079365292e+00,2.322507701136658519e-05,-1.367729617707161188e-05
3.065873015873016083e+00,1.506993462163314403e-05,1.987418172343026828e-06
3.066666666666666874e+00,5.229244326845746213e-06,1.769898388845719310e-05
3.067460317460317665e+00,-4.225930509644793756e-06,3.118344880699420969e-05
3.068253968253968456e+00,-1.159157244064782783e-05,4.047403834316584036e-05
3.069047619047619246e+00,-1.580314245099497401e-05,4.414175455496677024e-05
3.069841269841270037e+00,-1.657728008473880908e-05,4.146375180346906052e-05
3.070634920634920828e+00,-1.439469699055263468e-05,3.255932919454059584e-05
3.071428571428571619e+00,-1.032284009691819923e-05,1.847972970781320388e-05
3.072222222222222410e+00,-5.711886915829665776e-06,1.192967846274837088e-06
3.073015873015873201e+00,-1.828959883790437421e-06,-1.659911137328407419e-05
3.073809523809523991e+00,4.846753576003824209e-07,-3.183223579815845400e-05
3.074603174603174782e+00,1.046162936674021228e-06,-4.159713161654757772e-05
3.075396825396825573e+00,3.860031886855849860e-07,-4.370562631670463124e-05
3.076190476190476364e+00,-4.006487337561784338e-07,-3.717790666541731130e-05
3.076984126984127155e+00,2.008744403129499781e-08,-2.252267720377403051e-05
3.077777777777777946e+00,2.792566036642985031e-06,-1.714673316236183966e-06
3.078571428571428736e+00,8.448296831939256318e-06,2.215551499341392167e-05
3.079365079365079527e+00,1.660494064543392904e-05,4.548790872167790257e-05
3.080158730158730318e+00,2.588959441627214695e-05,6.487982408633945143e-05
3.080952380952381109e+00,3.414399332027466809e-05,7.774614115761070330e-05
3.081746031746031900e+00,3.889752908828605861e-05,8.270388989106506326e-05
3.082539682539682691e+00,3.801098799895526919e-05,7.965547495742878294e-05
3.083333333333333481e+00,3.032958725551977345e-05,6.959869175922281392e-05
3.084126984126984272e+00,1.616448464793634568e-05,5.426510498466994735e-05
3.084920634920635063e+00,-2.546426724604559436e-06,3.571923430377663833e-05
3.085714285714285854e+00,-2.247603197576091266e-05,1.602814814084248485e-05
3.086507936507936645e+00,-3.952659311818970840e-05,-2.951844843509245088e-06
3.087301587301587436e+00,-4.971378904248681505e-05,-1.968654812473000939e-05
3.088095238095238226e+00,-5.012116904988979236e-05,-3.301211962829729405e-05
3.088888888888889017e+00,-3.969000002801497214e-05,-4.214625595331558899e-05
3.089682539682539808e+00,-1.962344729938722849e-05,-4.667089660160196227e-05
3.090476190476190599e+00,6.739957522805653397e-06,-4.649711985994532524e-05
3.091269841269841390e+00,3.459653184982486746e-05,-4.183867768384534163e-05
3.092063492063492181e+00,5.874729487808824749e-05,-3.322246884181520560e-05
3.092857142857142971e+00,7.479465663460316608e-05,-2.153438508582761643e-05
3.093650793650793762e+00,8.014424714789520460e-05,-8.055565008945745869e-06
3.094444444444444553e+00,7.454282587798759924e-05,5.574198873150013314e-06
3.095238095238095344e+00,6.001835605046691502e-05,1.750467696021381796e-05
3.096031746031746135e+00,4.025824019921826264e-05,2.592450822568362527e-05
3.096825396825396925e+00,1.961229940955017004e-05,2.936049920685680794e-05
3.097619047619047716e+00,1.997046997329818765e-06,2.696598614533695295e-05
3.098412698412698507e+00,-1.001219942952791665e-05,1.874954663484219150e-05
3.099206349206349298e+00,-1.568134296035256570e-05,5.700103046777364592e-06
3.100000000000000089e+00,-1.610849238520750595e-05,-1.024618290856538230e-05
3.100793650793650880e+00,-1.373923502171844613e-05,-2.644558319237975930e-05
3.101587301587301670e+00,-1.155666985646226289e-05,-3.998962785619480931e-05
3.102380952380952461e+00,-1.217550597622565912e-05,-4.827078642969999075e-05
3.103174603174603252e+00,-1.709342271674478710e-05,-4.953718998187940040e-05
3.103968253968254043e+00,-2.630653394307371011e-05,-4.329781931566777597e-05
3.104761904761904834e+00,-3.838184687613127832e-05,-3.047521095579239770e-05
3.105555555555555625e+00,-5.093345119155133965e-05,-1.325991133822782320e-05
3.106349206349206415e+00,-6.132692164241690044e-05,5.315307334126177719e-06
3.107142857142857206e+00,-6.738399552921227743e-05,2.200267799112112121e-05
3.107936507936507997e+00,-6.788911530616895053e-05,3.403708458016443890e-05
3.108730158730158788e+00,-6.278759084229824418e-05,3.973915834281403303e-05
3.109523809523809579e+00,-5.307047912466498314e-05,3.886309532032728483e-05
3.110317460317460370e+00,-4.042644679074958885e-05,3.258653937376325974e-05
3.111111111111111160e+00,-2.678611786832635003e-05,2.314085733331403740e-05
3.111904761904761951e+00,-1.388822532615569486e-05,1.318577581286049903e-05
3.112698412698412742e+00,-2.968614657068840866e-06,5.102506166633205816e-06
3.113492063492063533e+00,5.374493643042522621e-06,3.959422753293018768e-07
3.114285714285714324e+00,1.113902367383865261e-05,-6.376017670037756454e-07
3.115079365079365115e+00,1.474675890309151989e-05,1.105458348365123018e-06
3.115873015873015905e+00,1.681195875700800820e-05,3.884360785757536265e-06
3.116666666666666696e+00,1.792573429052091662e-05,5.683313109061325486e-06
3.117460317460317487e+00,1.851383529584135900e-05,4.828803899177054552e-06
3.118253968253968278e+00,1.879380361824034703e-05,4.766501186557893996e-07
3.119047619047619069e+00,1.881919823251794932e-05,-7.159375199028585606e-06
3.119841269841269860e+00,1.856703242284174867e-05,-1.687892141182404716e-05
3.120634920634920650e+00,1.801579073511864508e-05,-2.681598478361268853e-05
3.121428571428571441e+00,1.718104469906680883e-05,-3.489660883398410906e-05
3.122222222222222232e+00,1.610927557597270393e-05,-3.931061831458196364e-05
3.123015873015873023e+00,1.485389632531838984e-05,-3.890914553025741042e-05
3.123809523809523814e+00,1.345820930282128423e-05,-3.348131790327891713e-05
3.124603174603174605e+00,1.195529926598448257e-05,-2.387543039312723595e-05
3.125396825396825395e+00,1.037975149761961799e-05,-1.191533247743126264e-05
3.126190476190476186e+00,8.779640040289897192e-06,-6.698361460368690847e-08
3.126984126984126977e+00,7.219613434494736390e-06,9.127184586317863758e-06
3.127777777777777768e+00,5.772884759122094413e-06,1.372134500347376343e-05
3.128571428571428559e+00,4.506701114814635631e-06,1.293500789331280797e-05
3.129365079365079350e+00,3.469049476780888630e-06,7.404602641616689916e-06
3.130158730158730140e+00,2.683059520865922098e-06,-9.939883541687433960e-07
3.130952380952380931e+00,2.151091930082879408e-06,-9.706860296449904246e-06
3.131746031746031722e+00,1.865310581174735176e-06,-1.626261939278731203e-05
3.132539682539682513e+00,1.818160115801624851e-06,-1.898002502990803162e-05
3.133333333333333304e+00,2.006089798325886392e-06,-1.739390007056399018e-05
3.134126984126984095e+00,2.422854673246910876e-06,-1.227018363658959697e-05
3.134920634920634885e+00,3.043106241842080570e-06,-5.225292320667952247e-06
3.135714285714285676e+00,3.800834198207317517e-06,1.890896082267216607e-06
3.136507936507936467e+00,4.569988529220636491e-06,7.600866473090278649e-06
3.137301587301587258e+00,5.156971596018743794e-06,1.116293521644380137e-05
3.138095238095238049e+00,5.315921442074592118e-06,1.258505688319846615e-05
3.138888888888888840e+00,4.794528667069181755e-06,1.234949798785365642e-05
3.139682539682539630e+00,3.407894231289687333e-06,1.102862353462882857e-05
3.140476190476190421e+00,1.122773285505998682e-06,8.988672539183117967e-06
3.141269841269841212e+00,-1.878213813753908341e-06,6.302811857272843873e-06
3.142063492063492003e+00,-5.184445444183612142e-06,2.880927710665724441e-06
3.142857142857142794e+00,-8.215401109964763583e-06,-1.271531835619792845e-06
3.143650793650793585e+00,-1.034205219366797882e-05,-5.798779260973271360e-06
3.144444444444444375e+00,-1.103974485279955168e-05,-9.871380289622174516e-06
3.145238095238095166e+00,-1.002785099008121229e-05,-1.227491630503910090e-05
3.146031746031745957e+00,-7.355118341095276421e-06,-1.171248582195982069e-05
3.146825396825396748e+00,-3.406260470195500148e-06,-7.232234133887971764e-06
3.147619047619047539e+00,1.172410012723616956e-06,1.374108407939331169e-06
3.148412698412698330e+00,5.608873510387780615e-06,1.335871344696239498e-05
3.149206349206349120e+00,9.167541853762205977e-06,2.708158141856317037e-05
3.149999999999999911e+00,1.129730754481653518e-05,4.033638333102884015e-05
3.150793650793650702e+00,1.173262333894930357e-05,5.083135167884542983e-05
3.151587301587301493e+00,1.052988717961460366e-05,5.667676684702025483e-05
3.152380952380952284e+00,8.036800596548403764e-06,5.674743689239798207e-05
3.153174603174603075e+00,4.804644512378947530e-06,5.084688071309084257e-05
3.153968253968253865e+00,1.463440195669168151e-06,3.967129098812851088e-05
3.154761904761904656e+00,-1.412220242210862242e-06,2.462659142562457706e-05
3.155555555555555447e+00,-3.415922463650051245e-06,7.572402763834134841e-06
3.156349206349206238e+00,-4.374660579553694487e-06,-9.446254119769537683e-06
3.157142857142857029e+00,-4.353018041612623553e-06,-2.444694940945071096e-05
3.157936507936507819e+00,-3.600146335199132893e-06,-3.572863627943177208e-05
3.158730158730158610e+00,-2.459645417747270707e-06,-4.206187851686192124e-05
3.159523809523809401e+00,-1.271415327615471955e-06,-4.284583257193039826e-05
3.160317460317460192e+00,-2.933611328565014567e-07,-3.821164145788010294e-05
3.161111111111110983e+00,3.389529387439458260e-07,-2.903741889431713183e-05
3.161904761904761774e+00,6.107524336673780774e-07,-1.684140868937102488e-05
3.162698412698412564e+00,5.940897054328187846e-07,-3.543416870920262998e-06
3.163492063492063355e+00,3.991110134309394472e-07,8.875659049912990126e-06
3.164285714285714146e+00,1.288498583922514619e-07,1.874278252515091032e-05
3.165079365079364937e+00,-1.498014906168678208e-07,2.498809541984019325e-05
3.165873015873015728e+00,-4.146366640840606427e-07,2.727533223482072179e-05
3.166666666666666519e+00,-6.792239196223535853e-07,2.593636799528575718e-05
3.167460317460317309e+00,-9.738318236676066209e-07,2.176028848237370606e-05
3.168253968253968100e+00,-1.324596857862524462e-06,1.573762906980764357e-05
3.169047619047618891e+00,-1.738114263144637966e-06,8.850447802349365063e-06
3.169841269841269682e+00,-2.195678261369413326e-06,1.947002777461704073e-06
3.170634920634920473e+00,-2.657343047212209638e-06,-4.310954436207770608e-06
3.171428571428571264e+00,-3.072390197126620333e-06,-9.460855570042332906e-06
3.172222222222222054e+00,-3.391595522462794997e-06,-1.323667744388332011e-05
3.173015873015872845e+00,-3.578104476197596934e-06,-1.555911608534794635e-05
3.173809523809523636e+00,-3.615693411578947322e-06,-1.651686523613522700e-05
3.174603174603174427e+00,-3.513775770831571754e-06,-1.633610307791323387e-05
3.175396825396825218e+00,-3.308129907950038398e-06,-1.533774213864905328e-05
3.176190476190476009e+00,-3.056592309440225509e-06,-1.388472480940577698e-05
3.176984126984126799e+00,-2.830104420845699463e-06,-1.232449614609118025e-05
3.177777777777777590e+00,-2.700386143014215159e-06,-1.093534006384447776e-05
3.178571428571428381e+00,-2.725649029060692111e-06,-9.888498595726143926e-06
3.179365079365079172e+00,-2.935881688678339332e-06,-9.237473043753294152e-06
3.180158730158729963e+00,-3.319972256380591518e-06,-8.938289352464234995e-06
3.180952380952380754e+00,-3.817932580774765292e-06,-8.891431300176325732e-06
3.181746031746031544e+00,-4.321858693455096455e-06,-8.985481391681763829e-06
3.182539682539682335e+00,-4.688325650986249745e-06,-9.122527087735166163e-06
3.183333333333333126e+00,-4.762555207758280599e-06,-9.216906911229192699e-06
3.184126984126983917e+00,-4.411341263394867155e-06,-9.174239838697144606e-06
3.184920634920634708e+00,-3.558281226201797729e-06,-8.868397196730823490e-06
3.185714285714285499e+00,-2.212619410054401221e-06,-8.137038351013323905e-06
3.186507936507936289e+00,-4.831242032323601964e-07,-6.810733596878718937e-06
3.187301587301587080e+00,1.428824661960945510e-06,-4.774746468950843402e-06
3.188095238095238315e+00,3.258221369501468815e-06,-2.039873077764106522e-06
3.188888888888889106e+00,4.723858037098144783e-06,1.216335593789148780e-06
3.189682539682539897e+00,5.586471974911566676e-06,4.668462426645451952e-06
3.190476190476190688e+00,5.707193358852142262e-06,7.920917813652007819e-06
3.191269841269841478e+00,5.094429251075580962e-06,1.060770414251964718e-05
3.192063492063492269e+00,3.927131559187613435e-06,1.246390869596401592e-05
3.192857142857143060e+00,2.544272881024260850e-06,1.333615226321154950e-05
3.193650793650793851e+00,1.395410370879192186e-06,1.313556914254348868e-05
3.194444444444444642e+00,9.554532381793884383e-07,1.176995553502580584e-05
3.195238095238095433e+00,1.616445581601172697e-06,9.103331020760843133e-06
3.196031746031746223e+00,3.577762211966331718e-06,4.975647665980589565e-06
3.196825396825397014e+00,6.761132650878280004e-06,-7.167121351746710373e-07
3.197619047619047805e+00,1.077598016735276168e-05,-7.908100850953225520e-06
3.198412698412698596e+00,1.495185158395541099e-05,-1.625964020643031358e-05
3.199206349206349387e+00,1.843916198915106713e-05,-2.510224621549750186e-05
3.200000000000000178e+00,2.036208699035259680e-05,-3.345252374474449796e-05
3.200793650793650968e+00,1.999444237685770210e-05,-4.010886357737502482e-05
3.201587301587301759e+00,1.692381865620141976e-05,-4.381249400032620050e-05
3.202380952380952550e+00,1.116995560363622231e-05,-4.344168688520425953e-05
3.203174603174603341e+00,3.228140087440803461e-06,-3.820754186923311347e-05
3.203968253968254132e+00,-5.982711839946259233e-06,-2.783121962707600487e-05
3.204761904761904923e+00,-1.527169527030866202e-05,-1.268500238882001035e-05
3.205555555555555713e+00,-2.340571176936058704e-05,6.136065093421347124e-06
3.206349206349206504e+00,-2.936369627018178258e-05,2.686020080032428515e-05
3.207142857142857295e+00,-3.253894758992755784e-05,4.723631277694529399e-05
3.207936507936508086e+00,-3.282057326181438909e-05,6.486685444012374186e-05
3.208730158730158877e+00,-3.052857499136139830e-05,7.760282614171739365e-05
3.209523809523809668e+00,-2.623748180735500221e-05,8.390047968000301367e-05
3.210317460317460458e+00,-2.056749170374313937e-05,8.305745078792147785e-05
3.211111111111111249e+00,-1.402714528358248843e-05,7.529237925282152694e-05
3.211904761904762040e+00,-6.959167809556411514e-06,6.167810326763779633e-05
3.212698412698412831e+00,4.086001730421420976e-07,4.396649804589351340e-05
3.213492063492063622e+00,7.848557937507492913e-06,2.434758158661339792e-05
3.214285714285714413e+00,1.501766593124735098e-05,5.171386056378291241e-06
3.215079365079365203e+00,2.139886255097640463e-05,-1.135495990225428283e-05
3.215873015873015994e+00,2.633249761866945707e-05,-2.348162329239863826e-05
3.216666666666666785e+00,2.913539002325100856e-05,-3.020710836801378872e-05
3.217460317460317576e+00,2.927237060664271567e-05,-3.148449866696438246e-05
3.218253968253968367e+00,2.652567456856366068e-05,-2.827318642476959855e-05
3.219047619047619158e+00,2.110622458356714739e-05,-2.239126934782858976e-05
3.219841269841269948e+00,1.366637729271490378e-05,-1.617571874944710901e-05
3.220634920634920739e+00,5.201223128914882299e-06,-1.201185042661663881e-05
3.221428571428571530e+00,-3.141181061221307162e-06,-1.182623066016859111e-05
3.222222222222222321e+00,-1.028982926498481513e-05,-1.664196705069092116e-05
3.223015873015873112e+00,-1.545454183210042521e-05,-2.628360932834490691e-05
3.223809523809523903e+00,-1.824593609261950818e-05,-3.930141987495938785e-05
3.224603174603174693e+00,-1.868609975060979073e-05,-5.315985757396898115e-05
3.225396825396825484e+00,-1.712449162769682216e-05,-6.469377021242873297e-05
3.226190476190476275e+00,-1.410202616221812842e-05,-7.077432004678083587e-05
3.226984126984127066e+00,-1.021248758741007663e-05,-6.905478742393788205e-05
3.227777777777777857e+00,-5.997504661106319189e-06,-5.860906021138703807e-05
3.228571428571428648e+00,-1.890094852700881731e-06,-4.026651353693949821e-05
3.229365079365079438e+00,1.797958466650761737e-06,-1.650993127936259676e-05
3.230158730158730229e+00,4.862046024986582764e-06,9.069562040777443156e-06
3.230952380952381020e+00,7.183307983898546270e-06,3.261859374891787572e-05
3.231746031746031811e+00,8.711918324924787556e-06,5.091856118114476253e-05
3.232539682539682602e+00,9.456009327675634376e-06,6.206341745975486662e-05
3.233333333333333393e+00,9.469019508252891353e-06,6.572804640810192144e-05
3.234126984126984183e+00,8.826978848650687186e-06,6.298403519475672817e-05
3.234920634920634974e+00,7.593322894146413071e-06,5.576999092276773752e-05
