Timestamp,Flexor carpi radialis,Extensor digitorum
2.000000000000000000e+00,2.325221096590298432e-05,-1.771139165798912534e-05
2.000793650793650791e+00,1.511483319664899520e-05,-1.515894633305417885e-05
2.001587301587301582e+00,3.453843783111823147e-06,-1.076655557105402064e-05
2.002380952380952372e+00,-1.082563301588995906e-05,-5.683767030892691993e-06
2.003174603174603163e+00,-2.622263746650816264e-05,-1.199602141013178727e-06
2.003968253968253954e+00,-4.080884562617618518e-05,1.609028475915887649e-06
2.004761904761904745e+00,-5.250530544918174193e-05,2.183515704476467614e-06
2.005555555555555536e+00,-5.942998048329683065e-05,6.448010223930605090e-07
2.006349206349206327e+00,-6.026256473088795505e-05,-2.249041111207881083e-06
2.007142857142857117e+00,-5.456069546641841516e-05,-5.339339863315184491e-06
2.007936507936507908e+00,-4.295309225220784652e-05,-7.418912772198979456e-06
2.008730158730158699e+00,-2.713843981448368109e-05,-7.582522321297877566e-06
2.009523809523809490e+00,-9.645488295841703221e-06,-5.465934274872299168e-06
2.010317460317460281e+00,6.637361654326841422e-06,-1.308930302037523870e-06
2.011111111111111072e+00,1.908569979224411167e-05,4.161086313368262468e-06
2.011904761904761862e+00,2.597078925016429833e-05,9.973012779473308393e-06
2.012698412698412653e+00,2.691233900965597553e-05,1.520006881147888956e-05
2.013492063492063444e+00,2.298358513943954322e-05,1.920750591184490548e-05
2.014285714285714235e+00,1.639792206263142657e-05,2.179744745226328543e-05
2.015079365079365026e+00,9.855554278112517823e-06,2.321987184409217260e-05
2.015873015873015817e+00,5.757014894318749646e-06,2.405298200852286824e-05
2.016666666666666607e+00,5.534546718308846394e-06,2.498943942979939641e-05
2.017460317460317398e+00,9.299578740958172390e-06,2.658886441011690743e-05
2.018253968253968189e+00,1.588779934312227387e-05,2.906275878073107815e-05
2.019047619047618980e+00,2.325222768568879477e-05,3.214649566970386309e-05
2.019841269841269771e+00,2.905545433996512412e-05,3.509404088007865954e-05
2.020634920634920562e+00,3.127666608122604006e-05,3.681138833792749936e-05
2.021428571428571352e+00,2.868024611162578238e-05,3.611958214824726902e-05
2.022222222222222143e+00,2.106068384583341982e-05,3.209887022808225225e-05
2.023015873015872934e+00,9.244912523402708260e-06,2.441937697922655332e-05
2.023809523809523725e+00,-5.117988131744663293e-06,1.354122300733487974e-05
2.024603174603174516e+00,-1.991396134920411432e-05,6.962294368395192888e-07
2.025396825396825307e+00,-3.297877254391350652e-05,-1.236231793601358900e-05
2.026190476190476097e+00,-4.248061468852266362e-05,-2.377332642127545078e-05
2.026984126984126888e+00,-4.720760824227365619e-05,-3.202212978827948155e-05
2.027777777777777679e+00,-4.673666483695500766e-05,-3.630007808241153674e-05
2.028571428571428470e+00,-4.148741684330111221e-05,-3.666423156312392751e-05
2.029365079365079261e+00,-3.266851702802406527e-05,-3.395745973893110180e-05
2.030158730158730052e+00,-2.211389827159523241e-05,-2.952938632386202815e-05
2.030952380952380842e+00,-1.200409121515248709e-05,-2.485819219406135708e-05
2.031746031746031633e+00,-4.488218326763822396e-06,-2.118453533009473919e-05
2.032539682539682424e+00,-1.264987569691297757e-06,-1.923455334731926186e-05
2.033333333333333215e+00,-3.220389532645355511e-06,-1.906083247739644919e-05
2.034126984126984006e+00,-1.021888529078124931e-05,-2.000289856538476062e-05
2.034920634920634797e+00,-2.109121375263711329e-05,-2.077137101911339642e-05
2.035714285714285587e+00,-3.378777887085908463e-05,-1.967000851451245228e-05
2.036507936507936378e+00,-4.562548055792943247e-05,-1.495678292022536368e-05
2.037301587301587169e+00,-5.357799408426728070e-05,-5.302059898457035717e-06
2.038095238095237960e+00,-5.462427816855733179e-05,9.747943313295401234e-06
2.038888888888888751e+00,-4.621603935018337583e-05,2.942380781055157048e-05
2.039682539682539542e+00,-2.689322776879685324e-05,5.162176406957686770e-05
2.040476190476190332e+00,3.039073362589326119e-06,7.311485871514134406e-05
2.041269841269841123e+00,4.099561126473840725e-05,9.010176402455390631e-05
2.042063492063491914e+00,8.203950661828559026e-05,9.900756093173279399e-05
2.042857142857142705e+00,1.194500887957430869e-04,9.735351757050372259e-05
2.043650793650793496e+00,1.459167741962495929e-04,8.446555631045845908e-05
2.044444444444444287e+00,1.551131958458409183e-04,6.181595893711764982e-05
2.045238095238095077e+00,1.432541332858505853e-04,3.287712062091590828e-05
2.046031746031745868e+00,1.102128054825524372e-04,2.485709777221098866e-06
2.046825396825396659e+00,5.986731831338667061e-05,-2.415342528028826402e-05
2.047619047619047450e+00,-4.735990876855445037e-07,-4.258979502974136953e-05
2.048412698412698241e+00,-6.147263467841484173e-05,-5.010890169889063207e-05
2.049206349206349032e+00,-1.136534362485466771e-04,-4.635371906196355857e-05
2.049999999999999822e+00,-1.492797748269921365e-04,-3.346046868884044556e-05
2.050793650793650613e+00,-1.637389560923205724e-04,-1.567756625997605570e-05
2.051587301587301404e+00,-1.561234760273452098e-04,1.483415887822719701e-06
2.052380952380952195e+00,-1.289616139698957582e-04,1.243734835215970422e-05
2.053174603174602986e+00,-8.727712280475280146e-05,1.283983194947851097e-05
2.053968253968253777e+00,-3.730058144956898580e-05,7.300686133930164814e-07
2.054761904761904567e+00,1.480615478390746090e-05,-2.281771746988033980e-05
2.055555555555555358e+00,6.391026446596512168e-05,-5.377409797722106674e-05
2.056349206349206149e+00,1.063828529333802952e-04,-8.601497382265790902e-05
2.057142857142856940e+00,1.400777264071483615e-04,-1.127705659380654331e-04
2.057936507936507731e+00,1.639453269327915247e-04,-1.282756951484325108e-04
2.058730158730158522e+00,1.775090789181923588e-04,-1.291634730369556718e-04
2.059523809523809312e+00,1.804592885770041181e-04,-1.152171550691687195e-04
2.060317460317460103e+00,1.725550323193433182e-04,-8.928283266673860911e-05
2.061111111111110894e+00,1.538681833426322389e-04,-5.639365200978007671e-05
2.061904761904761685e+00,1.252172343927381330e-04,-2.238852230543682246e-05
2.062698412698412920e+00,8.852487125919480330e-05,7.553415264726804947e-06
2.063492063492063711e+00,4.686610358899171547e-05,3.004213797019162870e-05
2.064285714285714501e+00,4.135967124204447965e-06,4.398210186001185997e-05
2.065079365079365292e+00,-3.554802463165521479e-05,5.037997323498274343e-05
2.065873015873016083e+00,-6.849992732715036708e-05,5.160078553921153293e-05
2.066666666666666874e+00,-9.200022237214690085e-05,5.036405108258891798e-05
2.067460317460317665e+00,-1.046301830431739538e-04,4.880152970041115400e-05
2.068253968253968456e+00,-1.063951642170840367e-04,4.783529930021902034e-05
2.069047619047619246e+00,-9.864956944778765396e-05,4.702511601144855342e-05
2.069841269841270037e+00,-8.384426378367229257e-05,4.490054493164995491e-05
2.070634920634920828e+00,-6.513744967089303355e-05,3.965003848056681803e-05
2.071428571428571619e+00,-4.593576621804460554e-05,2.992762900250414844e-05
2.072222222222222410e+00,-2.944170485036697800e-05,1.550696602130358277e-05
2.073015873015873201e+00,-1.826620881911239665e-05,-2.429387090542747746e-06
2.073809523809523991e+00,-1.413220036706205632e-05,-2.146183927806579375e-05
2.074603174603174782e+00,-1.767040190078600248e-05,-3.852440074060432807e-05
2.075396825396825573e+00,-2.831206015151766029e-05,-5.073480576146394540e-05
2.076190476190476364e+00,-4.430607257673914603e-05,-5.618990718720374235e-05
2.076984126984127155e+00,-6.290008049492462031e-05,-5.445505755455087355e-05
2.077777777777777946e+00,-8.070535345421349610e-05,-4.659969015557347726e-05
2.078571428571428736e+00,-9.422265670945338494e-05,-3.481817240997044647e-05
2.079365079365079527e+00,-1.004624880287074810e-04,-2.181818689989076333e-05
2.080158730158730318e+00,-9.755672904479707882e-05,-1.018928209513181184e-05
2.080952380952381109e+00,-8.522969161322280760e-05,-1.899842989996105651e-06
2.081746031746031900e+00,-6.498830732569475441e-05,2.019386524795382489e-06
2.082539682539682691e+00,-3.992976964339262709e-05,1.610237562672993877e-06
2.083333333333333481e+00,-1.415886020183716504e-05,-2.028412848075784406e-06
2.084126984126984272e+00,8.071449662715675364e-06,-6.876324730451251985e-06
2.084920634920635063e+00,2.328331964061317605e-05,-1.023690019409603813e-05
2.085714285714285854e+00,2.951502121629739008e-05,-9.105289427971513506e-06
2.086507936507936645e+00,2.668637235292221609e-05,-6.761206972560622777e-07
2.087301587301587436e+00,1.652043952366644949e-05,1.703041853911601476e-05
2.088095238095238226e+00,2.094704910515335540e-06,4.451037000853287900e-05
2.088888888888889017e+00,-1.281536738011679651e-05,8.023115194508997168e-05
2.089682539682539808e+00,-2.442873239295634442e-05,1.203777760865194476e-04
2.090476190476190599e+00,-2.956327829490449711e-05,1.590646754457414325e-04
2.091269841269841390e+00,-2.608856408828615371e-05,1.891281132183412735e-04
2.092063492063492181e+00,-1.320679635505999696e-05,2.034691963205598382e-04
2.092857142857142971e+00,8.436320008061739983e-06,1.967032508980538015e-04
2.093650793650793762e+00,3.680473392442094741e-05,1.666801022434371562e-04
2.094444444444444553e+00,6.868651354158951492e-05,1.153887773439930082e-04
2.095238095238095344e+00,1.000666740319907310e-04,4.890033066896024727e-05
2.096031746031746135e+00,1.266429363545279831e-04,-2.371729541780149869e-05
2.096825396825396925e+00,1.444462522982773822e-04,-9.226614982564646460e-05
2.097619047619047716e+00,1.505013098815062664e-04,-1.475778645259005750e-04
2.098412698412698507e+00,1.434316315981374679e-04,-1.833780606029655356e-04
2.099206349206349298e+00,1.238822411999433368e-04,-1.973567627978808079e-04
2.100000000000000089e+00,9.462105044597998152e-05,-1.912058192108431059e-04
2.100793650793650880e+00,6.021411818703986988e-05,-1.697131592432935118e-04
2.101587301587301670e+00,2.625535732140756842e-05,-1.392625161056967225e-04
2.102380952380952461e+00,-1.750557635684281255e-06,-1.061891640424839111e-04
2.103174603174603252e+00,-1.963305192501542458e-05,-7.539758606079391239e-05
2.103968253968254043e+00,-2.562403694310357231e-05,-4.952597244056242544e-05
2.104761904761904834e+00,-2.093574820154494540e-05,-2.879983502532075979e-05
2.105555555555555625e+00,-9.625376560504585028e-06,-1.155927134918280893e-05
2.106349206349206415e+00,2.296330115785665426e-06,4.728797743916383251e-06
2.107142857142857206e+00,8.342868543080159932e-06,2.230640726836101995e-05
2.107936507936507997e+00,3.272836535683897684e-06,4.218376048344651253e-05
2.108730158730158788e+00,-1.537564779486238643e-05,6.370271069077685245e-05
2.109523809523809579e+00,-4.635237849997992000e-05,8.469446670651336001e-05
2.110317460317460370e+00,-8.467119266956289704e-05,1.021219358289131350e-04
2.111111111111111160e+00,-1.226050343048649342e-04,1.129638112875984033e-04
2.111904761904761951e+00,-1.515432000743941409e-04,1.150598659522428523e-04
2.112698412698412742e+00,-1.642716980549370823e-04,1.076849531817815456e-04
2.113492063492063533e+00,-1.570379169357582864e-04,9.172084378838081021e-05
2.114285714285714324e+00,-1.307471973809689778e-04,6.941267398385562917e-05
2.115079365079365115e+00,-9.085749448024106969e-05,4.380390880899275626e-05
2.115873015873015905e+00,-4.593756090528230122e-05,1.802572410971192712e-05
2.116666666666666696e+00,-5.299376960035541390e-06,-5.344808862398674918e-06
2.117460317460317487e+00,2.355761453308724744e-05,-2.467058995147906598e-05
2.118253968253968278e+00,3.687853495477020087e-05,-3.929097672783263799e-05
2.119047619047619069e+00,3.537465978027894457e-05,-4.924231878910368337e-05
2.119841269841269860e+00,2.359279340565693947e-05,-5.480896335120101747e-05
2.120634920634920650e+00,8.263469632124154397e-06,-5.611257360362934427e-05
2.121428571428571441e+00,-3.745620568698422123e-06,-5.293305001797874831e-05
2.122222222222222232e+00,-7.222987028605782803e-06,-4.485751273189912133e-05
2.123015873015873023e+00,2.924768912632277512e-07,-3.170282508285281826e-05
2.123809523809523814e+00,1.826729309569858665e-05,-1.401866185958619757e-05
2.124603174603174605e+00,4.366933915041194218e-05,6.572893767580947013e-06
2.125396825396825395e+00,7.194536913040289661e-05,2.737681431099057942e-05
2.126190476190476186e+00,9.818982760486140990e-05,4.499076726340619885e-05
2.126984126984126977e+00,1.182469808129961209e-04,5.592015181244629451e-05
2.127777777777777768e+00,1.295330441506162224e-04,5.725830149091166283e-05
2.128571428571428559e+00,1.314178742586226010e-04,4.727386641070562391e-05
2.129365079365079350e+00,1.250918655761523919e-04,2.582363029035793066e-05
2.130158730158730140e+00,1.129682288608475433e-04,-5.437896918340355731e-06
2.130952380952380931e+00,9.780207875508400712e-05,-4.308932225328675225e-05
2.131746031746031722e+00,8.179698566012484986e-05,-8.228119310984042221e-05
2.132539682539682513e+00,6.597789593472507257e-05,-1.174242253280334867e-04
2.133333333333333304e+00,5.002562649194542148e-05,-1.431582108299377099e-04
2.134126984126984095e+00,3.261818189712232212e-05,-1.553941439567456634e-04
2.134920634920634885e+00,1.216133793853414841e-05,-1.521424558123223698e-04
2.135714285714285676e+00,-1.233149334548619893e-05,-1.338773563761062706e-04
2.136507936507936467e+00,-4.050254342383879832e-05,-1.033389756434589183e-04
2.137301587301587258e+00,-7.032167444253322743e-05,-6.487289318748154857e-05
2.138095238095238049e+00,-9.832350108891341862e-05,-2.354626299740978068e-05
2.138888888888888840e+00,-1.203867682689501080e-04,1.570560992589962811e-05
2.139682539682539630e+00,-1.328342315455716116e-04,4.873530211888762634e-05
2.140476190476190421e+00,-1.334950708358322849e-04,7.258532529898488960e-05
2.141269841269841212e+00,-1.223661242052689272e-04,8.565865607911692266e-05
2.142063492063492003e+00,-1.016451693972231706e-04,8.772062859263328796e-05
2.142857142857142794e+00,-7.513839165580785378e-05,7.980195023157383657e-05
2.143650793650793585e+00,-4.726952275807144732e-05,6.404303860063486492e-05
2.144444444444444375e+00,-2.203948526548755966e-05,4.346437513011739486e-05
2.145238095238095166e+00,-2.254063820698569025e-06,2.160801571685577887e-05
2.146031746031745957e+00,1.081164424419913315e-05,2.020464957176216109e-06
2.146825396825396748e+00,1.731954363643862865e-05,-1.235791728109223785e-05
2.147619047619047539e+00,1.847647951872226634e-05,-1.972645009627094738e-05
2.148412698412698330e+00,1.601616016314237574e-05,-1.968139415319233705e-05
2.149206349206349120e+00,1.170654798889343815e-05,-1.309179791910199921e-05
2.149999999999999911e+00,6.986129407920651508e-06,-1.664309185453199539e-06
2.150793650793650702e+00,2.779565089558501259e-06,1.258695244112213167e-05
2.151587301587301493e+00,-5.075427476588670821e-07,2.773270617532132162e-05
2.152380952380952284e+00,-2.858513051074916088e-06,4.206812827833552915e-05
2.153174603174603075e+00,-4.451012378560585927e-06,5.404990860324099592e-05
2.153968253968253865e+00,-5.473116792129956122e-06,6.219157836278211996e-05
2.154761904761904656e+00,-6.007118597077210507e-06,6.508631098039336651e-05
2.155555555555555447e+00,-6.005655014305366837e-06,6.164315128810508285e-05
2.156349206349206238e+00,-5.348213192496250653e-06,5.149428496440155479e-05
2.157142857142857029e+00,-3.937037652359133877e-06,3.541951476850819570e-05
2.157936507936507819e+00,-1.780419494290484571e-06,1.558989549067012415e-05
2.158730158730158610e+00,9.766022544576017351e-07,-4.532530897414818260e-06
2.159523809523809401e+00,4.084231323079110356e-06,-2.071103895603913786e-05
2.160317460317460192e+00,7.260182358276547068e-06,-2.882112411698009832e-05
2.161111111111110983e+00,1.026138073336992640e-05,-2.593737130547698504e-05
2.161904761904761774e+00,1.291829636970741853e-05,-1.134084660090164833e-05
2.162698412698412564e+00,1.511795041155028823e-05,1.288056325142634871e-05
2.163492063492063355e+00,1.675097130863549907e-05,4.190970221710050924e-05
2.164285714285714146e+00,1.765921033041955939e-05,6.905917256875033637e-05
2.165079365079364937e+00,1.762264061307291545e-05,8.728142123506127024e-05
2.165873015873015728e+00,1.640693051527874355e-05,9.097031406632728463e-05
2.166666666666666519e+00,1.386652055666067273e-05,7.754813117728700644e-05
2.167460317460317309e+00,1.007462975470670098e-05,4.833672164780654086e-05
2.168253968253968100e+00,5.435481993806537250e-06,8.396230239947098320e-06
2.169047619047618891e+00,7.239264100632814593e-07,-3.466728052367778546e-05
2.169841269841269682e+00,-3.000713924938540062e-06,-7.258948818676024201e-05
2.170634920634920473e+00,-4.633021807218265522e-06,-9.847444661656083828e-05
2.171428571428571264e+00,-3.381053723369908251e-06,-1.083761497776187139e-04
2.172222222222222054e+00,8.578040653248202943e-07,-1.020125967634415582e-04
2.173015873015872845e+00,7.263962540210038223e-06,-8.247134135489017236e-05
2.173809523809523636e+00,1.415575133329359731e-05,-5.506751573185316508e-05
2.174603174603174427e+00,1.939892899556003037e-05,-2.574316179008821420e-05
2.175396825396825218e+00,2.107406565731104468e-05,5.103560446428612883e-07
2.176190476190476009e+00,1.817792842211817553e-05,2.077576545301997572e-05
2.176984126984126799e+00,1.108686684909357429e-05,3.460694633414906462e-05
2.177777777777777590e+00,1.577654565010776997e-06,4.364094779171480377e-05
2.178571428571428381e+00,-7.637550555209549007e-06,5.058281264339887357e-05
2.179365079365079172e+00,-1.371879772681263945e-05,5.789421272490816883e-05
2.180158730158729963e+00,-1.457583324487419492e-05,6.660336497734404139e-05
2.180952380952380754e+00,-9.524270655861438839e-06,7.562479045017119850e-05
2.181746031746031544e+00,4.810238307553948601e-07,8.183295824786079268e-05
2.182539682539682335e+00,1.308795757972008076e-05,8.090162915445019403e-05
2.183333333333333126e+00,2.517311950498787339e-05,6.866012550684804782e-05
2.184126984126983917e+00,3.366743719999733692e-05,4.252563902244221069e-05
2.184920634920634708e+00,3.636748602819676667e-05,2.544428356350513344e-06
2.185714285714285499e+00,3.253116933626472751e-05,-4.826377528142177908e-05
2.186507936507936289e+00,2.309624230533359089e-05,-1.043019295065357086e-04
2.187301587301587080e+00,1.043918185683109536e-05,-1.583536240255536086e-04
2.188095238095238315e+00,-2.281035161154325822e-06,-2.028329637615866078e-04
2.188888888888889106e+00,-1.201047454382192024e-05,-2.310835397626145784e-04
2.189682539682539897e+00,-1.664611926083780087e-05,-2.385423822716850714e-04
2.190476190476190688e+00,-1.557167916413529460e-05,-2.236054257343974270e-04
2.191269841269841478e+00,-9.721988769259930343e-06,-1.880189847291481868e-04
2.192063492063492269e+00,-1.189602084884508597e-06,-1.366427903937896405e-04
2.192857142857143060e+00,7.449895222845803325e-06,-7.654601182523758883e-05
2.193650793650793851e+00,1.384770683682338402e-05,-1.559913678407868332e-05
2.194444444444444642e+00,1.642151909820193420e-05,3.908254978752562128e-05
2.195238095238095433e+00,1.461911936842490930e-05,8.241698076416658150e-05
2.196031746031746223e+00,8.896430940844020122e-06,1.120235281695200773e-04
2.196825396825397014e+00,4.689184184019749681e-07,1.281640338185989372e-04
2.197619047619047805e+00,-9.064006647539549007e-06,1.330723541815617130e-04
2.198412698412698596e+00,-1.810952036807653216e-05,1.299516266383099570e-04
2.199206349206349387e+00,-2.539293917341174623e-05,1.219687508674005864e-04
2.200000000000000178e+00,-3.013778485264978968e-05,1.115163340051897924e-04
2.200793650793650968e+00,-3.210868109440360524e-05,9.988256635983136479e-05
2.201587301587301759e+00,-3.154541005805396980e-05,8.732647109111225654e-05
2.202380952380952550e+00,-2.902956342018518060e-05,7.344951703316683058e-05
2.203174603174603341e+00,-2.532209940403858166e-05,5.770543019013553909e-05
2.203968253968254132e+00,-2.120171027881059616e-05,3.989010884544564955e-05
2.204761904761904923e+00,-1.732774709217196576e-05,2.048209218603922968e-05
2.205555555555555713e+00,-1.414716497249114977e-05,7.457144411433475030e-07
2.206349206349206504e+00,-1.185791156357370571e-05,-1.743607397327536464e-05
2.207142857142857295e+00,-1.042923576443594812e-05,-3.196038309482572467e-05
2.207936507936508086e+00,-9.665750606166065501e-06,-4.102188548221367493e-05
2.208730158730158877e+00,-9.292616535457391997e-06,-4.359208364242650008e-05
2.209523809523809668e+00,-9.037695392447782383e-06,-3.971058623656306875e-05
2.210317460317460458e+00,-8.692111908451610614e-06,-3.049847674726023216e-05
2.211111111111111249e+00,-8.139508209308697961e-06,-1.789726992904192243e-05
2.211904761904762040e+00,-7.353204434034846040e-06,-4.225913502249153595e-06
2.212698412698412831e+00,-6.368416495441105216e-06,8.307664883409719025e-06
2.213492063492063622e+00,-5.242965404244686537e-06,1.801648319736575744e-05
2.214285714285714413e+00,-4.022864600606169357e-06,2.398731182857208097e-05
2.215079365079365203e+00,-2.727236199916319856e-06,2.614547617536971833e-05
2.215873015873015994e+00,-1.359952859949276487e-06,2.513927109043546045e-05
2.216666666666666785e+00,5.607880484896438005e-08,2.208476636425125818e-05
2.217460317460317576e+00,1.439435477010931365e-06,1.824004821919039476e-05
2.218253968253968367e+00,2.631453361227979591e-06,1.469173416153422285e-05
2.219047619047619158e+00,3.419450349568023927e-06,1.212687558014190748e-05
2.219841269841269948e+00,3.603242125901218382e-06,1.073294657997856431e-05
2.220634920634920739e+00,3.081725788959154297e-06,1.023154007195537056e-05
2.221428571428571530e+00,1.923807075962880423e-06,1.002184447338665295e-05
2.222222222222222321e+00,3.964493871684566746e-07,9.391501432464801602e-06
2.223015873015873112e+00,-1.056728845594705967e-06,7.740229206947897933e-06
2.223809523809523903e+00,-1.878308515720475374e-06,4.756800150844662783e-06
2.224603174603174693e+00,-1.492330810035938175e-06,5.029199899924367068e-07
2.225396825396825484e+00,5.742101006175375726e-07,-4.610285442920517351e-06
2.226190476190476275e+00,4.555156983981746280e-06,-9.933192404625692235e-06
2.226984126984127066e+00,1.032048575195964619e-05,-1.473689948237875662e-05
2.227777777777777857e+00,1.730428047848650458e-05,-1.837832206224381977e-05
2.228571428571428648e+00,2.452890714750599767e-05,-2.043372763779703673e-05
2.229365079365079438e+00,3.074933102261964756e-05,-2.077372657752604219e-05
2.230158730158730229e+00,3.470217055354801738e-05,-1.956813086091856364e-05
2.230952380952381020e+00,3.540110814238065222e-05,-1.722507506556982714e-05
2.231746031746031811e+00,3.239608969312530193e-05,-1.428042899409377548e-05
2.232539682539682602e+00,2.592244315306387002e-05,-1.126169261878501087e-05
2.233333333333333393e+00,1.690173456343304603e-05,-8.558824089259304462e-06
2.234126984126984183e+00,6.796719313661209740e-06,-6.339640827025055464e-06
2.234920634920634974e+00,-2.650197160454150607e-06,-4.539758293630748527e-06
2.235714285714285765e+00,-9.751078745425277445e-06,-2.932448943208433481e-06
2.236507936507936556e+00,-1.322079414932207535e-05,-1.252192024628528439e-06
2.237301587301587347e+00,-1.246405026593030658e-05,6.757967977845779038e-07
2.238095238095238138e+00,-7.722351222576877129e-06,2.848100059111119071e-06
2.238888888888888928e+00,-3.245225598589189258e-08,5.067154993988547650e-06
2.239682539682539719e+00,8.993102061669356020e-06,7.000029361433186195e-06
2.240476190476190510e+00,1.749869709102958474e-05,8.291796386302580690e-06
2.241269841269841301e+00,2.374857459211530584e-05,8.698271391828434106e-06
2.242063492063492092e+00,2.645218894474978626e-05,8.198058937185739005e-06
2.242857142857142883e+00,2.500741985193578312e-05,7.050010052832601928e-06
2.243650793650793673e+00,1.962930922772552602e-05,5.776458730922601511e-06
2.244444444444444464e+00,1.133549236122251287e-05,5.068692359151016003e-06
2.245238095238095255e+00,1.769760307590789058e-06,5.624681334551473466e-06
2.246031746031746046e+00,-7.125323117864160898e-06,7.941795338855659720e-06
2.246825396825396837e+00,-1.353180501916183525e-05,1.210288797551287664e-05
2.247619047619047628e+00,-1.618300379833267168e-05,1.761160611353641042e-05
2.248412698412698418e+00,-1.468855274323629896e-05,2.334305826835627221e-05
2.249206349206349209e+00,-9.671332952410638338e-06,2.766477886533551622e-05
2.250000000000000000e+00,-2.672224425347150518e-06,2.874017684042359057e-05
2.250793650793650791e+00,4.166481060832781781e-06,2.496152754844069280e-05
2.251587301587301582e+00,8.574892156046546766e-06,1.540391346936576965e-05
2.252380952380952372e+00,8.684407855642156465e-06,1.768437968267803561e-07
2.253174603174603163e+00,3.495302429366769542e-06,-1.942120510802122408e-05
2.253968253968253954e+00,-6.822102602794136790e-06,-4.099415063539174788e-05
2.254761904761904745e+00,-2.086528792190042362e-05,-6.139367544776430251e-05
2.255555555555555536e+00,-3.620336024411403847e-05,-7.728771465104639646e-05
2.256349206349206327e+00,-4.982372018425738441e-05,-8.586597276750434376e-05
2.257142857142857117e+00,-5.875037179412581905e-05,-8.552687810675311663e-05
2.257936507936507908e+00,-6.071930177791807007e-05,-7.634584357520052603e-05
2.258730158730158699e+00,-5.476059479407766278e-05,-6.015429955424153320e-05
2.259523809523809490e+00,-4.152255813227138394e-05,-4.017023473116922475e-05
2.260317460317460281e+00,-2.320698304087065437e-05,-2.026422898712698051e-05
2.261111111111111072e+00,-3.084503172103761044e-06,-4.054818840062803538e-06
2.261904761904761862e+00,1.529759132841016021e-05,5.930268028806628903e-06
2.262698412698412653e+00,2.898064748004895708e-05,8.812738400748917612e-06
2.263492063492063444e+00,3.626559573128958826e-05,5.499955023808100635e-06
2.264285714285714235e+00,3.699861944908842585e-05,-1.636516748411998415e-06
2.265079365079365026e+00,3.242569082979147258e-05,-9.451930135508173844e-06
2.265873015873015817e+00,2.471356369430035939e-05,-1.489328086531714155e-05
2.266666666666666607e+00,1.632159472769329622e-05,-1.579224311322942499e-05
2.267460317460317398e+00,9.419414403395498975e-06,-1.137101306310200872e-05
2.268253968253968189e+00,5.490908698578896430e-06,-2.340673549821242453e-06
2.269047619047618980e+00,5.175429870391110442e-06,9.413136320331162103e-06
2.269841269841269771e+00,8.312870585587589278e-06,2.146139586995162647e-05
2.270634920634920562e+00,1.411392749813538476e-05,3.160981399936102726e-05
2.271428571428571352e+00,2.137794218086566347e-05,3.861260967046756216e-05
2.272222222222222143e+00,2.870844654305181325e-05,4.261132423992628572e-05
2.273015873015872934e+00,3.470544204886663484e-05,4.513969669239249332e-05
2.273809523809523725e+00,3.813024343718291034e-05,4.864081116415356926e-05
2.274603174603174516e+00,3.804278456137697838e-05,5.558916433454754927e-05
2.275396825396825307e+00,3.390752468786400374e-05,6.745920985973767993e-05
2.276190476190476097e+00,2.565859193455247134e-05,8.387124424071852157e-05
2.276984126984126888e+00,1.371293297629842814e-05,1.022227652225830510e-04
2.277777777777777679e+00,-1.074736317484015783e-06,1.179772233458780187e-04
2.278571428571428470e+00,-1.750993976647545176e-05,1.255897979821042837e-04
2.279365079365079261e+00,-3.419151859037222209e-05,1.198752885791895838e-04
2.280158730158730052e+00,-4.965577717476869112e-05,9.750326516296297567e-05
2.280952380952380842e+00,-6.251268299040759803e-05,5.823802095068096238e-05
2.281746031746031633e+00,-7.156747878665092487e-05,5.535754298318305269e-06
2.282539682539682424e+00,-7.592997662232043329e-05,-5.378226029996196529e-05
2.283333333333333215e+00,-7.511053821131917138e-05,-1.108127806237726087e-04
2.284126984126984006e+00,-6.908955256569521478e-05,-1.565161501230863427e-04
2.284920634920634797e+00,-5.833944365520407106e-05,-1.837781894444601475e-04
2.285714285714285587e+00,-4.378493721256309030e-05,-1.889935315908148087e-04
2.286507936507936378e+00,-2.670440193485683068e-05,-1.727466227197679925e-04
2.287301587301587169e+00,-8.587605938443037932e-06,-1.394629657703187796e-04
2.288095238095237960e+00,9.035204439935347166e-06,-9.619479003505248182e-05
2.288888888888888751e+00,2.477979039016397751e-05,-5.090496597365214062e-05
2.289682539682539542e+00,3.758326702390389271e-05,-1.069569146282723576e-05
2.290476190476190332e+00,4.682033738797179056e-05,1.959963024012448583e-05
2.291269841269841123e+00,5.231340231898947568e-05,3.816416459231342751e-05
2.292063492063491914e+00,5.422827198710770513e-05,4.616647185263407109e-05
2.292857142857142705e+00,5.290494862532902601e-05,4.702000299000069674e-05
2.293650793650793496e+00,4.871258698383753010e-05,4.516164608265737531e-05
2.294444444444444287e+00,4.200864724589284280e-05,4.467949816123191438e-05
2.295238095238095077e+00,3.322080339257882598e-05,4.814218311246276139e-05
2.296031746031745868e+00,2.299049965126138679e-05,5.591586407279812394e-05
2.296825396825396659e+00,1.227131420052644833e-05,6.612120669433544761e-05
2.297619047619047450e+00,2.292034375803458296e-06,7.522304570206589196e-05
2.298412698412698241e+00,-5.639975585646076129e-06,7.909638944813796675e-05
2.299206349206349032e+00,-1.044207887374840471e-05,7.429255412841973070e-05
2.299999999999999822e+00,-1.156006120737219820e-05,5.915922083844856214e-05
2.300793650793650613e+00,-9.158737372321345364e-06,3.448309947109733564e-05
2.301587301587301404e+00,-4.125143806563943936e-06,3.448551206817215833e-06
2.302380952380952195e+00,2.124328595347346404e-06,-2.908420739281993283e-05
2.303174603174602986e+00,7.975829648239661108e-06,-5.775867645402867474e-05
2.303968253968253777e+00,1.198905052726627996e-05,-7.799596326745159036e-05
2.304761904761904567e+00,1.320308657363329959e-05,-8.698771860141035002e-05
2.305555555555555358e+00,1.130717512606105975e-05,-8.415107667707147235e-05
2.306349206349206149e+00,6.656588823371919187e-06,-7.099126375327266590e-05
2.307142857142856940e+00,1.515364813363125645e-07,-5.051658097481595355e-05
2.307936507936507731e+00,-6.985293830820563717e-06,-2.645176626752234264e-05
2.308730158730158522e+00,-1.348413202268796493e-05,-2.470316199436927001e-06
2.309523809523809312e+00,-1.829362860908548551e-05,1.842453603218090400e-05
2.310317460317460103e+00,-2.077288961674731368e-05,3.431196127781831548e-05
2.311111111111110894e+00,-2.077127571969152552e-05,4.452552196449097551e-05
2.311904761904761685e+00,-1.859386737218375764e-05,4.956478337774857673e-05
2.312698412698412920e+00,-1.487741043946694589e-05,5.076486210693169761e-05
2.313492063492063711e+00,-1.041406093814839798e-05,4.980344624504176365e-05
2.314285714285714501e+00,-5.965148298770946878e-06,4.817552636957481778e-05
2.315079365079365292e+00,-2.106658267904734955e-06,4.677725743771552332e-05
2.315873015873016083e+00,8.602208819482282670e-07,4.570713457008549071e-05
2.316666666666666874e+00,2.916547224177332848e-06,4.433071012671133772e-05
2.317460317460317665e+00,4.255094560120432725e-06,4.158662734287681584e-05
2.318253968253968456e+00,5.155746171258474136e-06,3.645248762205750143e-05
2.319047619047619246e+00,5.843748657762328229e-06,2.844427095142681303e-05
2.319841269841270037e+00,6.370271416387343390e-06,1.799607531095805352e-05
2.320634920634920828e+00,6.546943905387544119e-06,6.570379749029209017e-06
2.321428571428571619e+00,5.953059431794210833e-06,-3.597916906636842588e-06
2.322222222222222410e+00,4.022069233266194172e-06,-1.011206423438734625e-05
2.323015873015873201e+00,2.023508434230748480e-07,-1.123128505456783367e-05
2.323809523809523991e+00,-5.830651424750951359e-06,-6.640155041954981619e-06
2.324603174603174782e+00,-1.395881298431979196e-05,2.118217464505705070e-06
2.325396825396825573e+00,-2.347101006369051821e-05,1.176682569019796722e-05
2.326190476190476364e+00,-3.304916249605168403e-05,1.803651516752882266e-05
2.326984126984127155e+00,-4.093775016227494762e-05,1.685985512283393758e-05
2.327777777777777946e+00,-4.529414498866582536e-05,5.651626153189093884e-06
2.328571428571428736e+00,-4.465076967309722318e-05,-1.575977862896385515e-05
2.329365079365079527e+00,-3.835834322506797650e-05,-4.487810284988247989e-05
2.330158730158730318e+00,-2.685304095790503484e-05,-7.705352790457081519e-05
2.330952380952381109e+00,-1.162755246460600528e-05,-1.065975928183927462e-04
2.331746031746031900e+00,5.109880868015485072e-06,-1.281514304535201997e-04
2.332539682539682691e+00,2.097669702383465372e-05,-1.379133039986298233e-04
2.333333333333333481e+00,3.396918736339925657e-05,-1.344063804833134487e-04
2.334126984126984272e+00,4.285648658071521133e-05,-1.186204641694351737e-04
2.334920634920635063e+00,4.732604008257963740e-05,-9.354951043412988124e-05
2.335714285714285854e+00,4.787886893432940870e-05,-6.332276855859897944e-05
2.336507936507936645e+00,4.553857038464220410e-05,-3.222844335741152427e-05
2.337301587301587436e+00,4.148105801529563635e-05,-3.909225535395814865e-06
2.338095238095238226e+00,3.670581817647984249e-05,1.911328671673342562e-05
2.338888888888889017e+00,3.184220114455307160e-05,3.557677053839907035e-05
2.339682539682539808e+00,2.712303926672438777e-05,4.536832287536656270e-05
2.340476190476190599e+00,2.249235284210197581e-05,4.927744334500367633e-05
2.341269841269841390e+00,1.777485536128953875e-05,4.869320018218887560e-05
2.342063492063492181e+00,1.283275641663519303e-05,4.528809354262007872e-05
2.342857142857142971e+00,7.659735682438277040e-06,4.071093295889204137e-05
2.343650793650793762e+00,2.396734152977158035e-06,3.631361210520701833e-05
2.344444444444444553e+00,-2.714336418992816391e-06,3.294879901257876043e-05
2.345238095238095344e+00,-7.405506146362030067e-06,3.087978038564819942e-05
2.346031746031746135e+00,-1.145358512145158083e-05,2.982903173706660010e-05
2.346825396825396925e+00,-1.472681004672407044e-05,2.915931094740782653e-05
2.347619047619047716e+00,-1.720092588749116933e-05,2.814191083132384344e-05
2.348412698412698507e+00,-1.894730445228319139e-05,2.623737569285816048e-05
2.349206349206349298e+00,-2.010001519440608083e-05,2.330725023476734421e-05
2.350000000000000089e+00,-2.081043935324340823e-05,1.969533964851499853e-05
2.350793650793650880e+00,-2.119870928605449049e-05,1.615678510752105435e-05
2.351587301587301670e+00,-2.131215134531271171e-05,1.365765147161462696e-05
2.352380952380952461e+00,-2.110204037552381890e-05,1.310063661487891741e-05
2.353174603174603252e+00,-2.042933623831651732e-05,1.504610541085189297e-05
2.353968253968254043e+00,-1.910478595468804582e-05,1.949435683925157461e-05
2.354761904761904834e+00,-1.695776129021608536e-05,2.578183250023713868e-05
2.355555555555555625e+00,-1.391415256895601518e-05,3.262497902232299368e-05
2.356349206349206415e+00,-1.005370088690000980e-05,3.831940261293343368e-05
2.357142857142857206e+00,-5.620927205480204312e-06,4.106735221568812535e-05
2.357936507936507997e+00,-9.850024975675486536e-07,3.936977302405177484e-05
2.358730158730158788e+00,3.429069822404417498e-06,3.239466846106038486e-05
2.359523809523809579e+00,7.203542550509562443e-06,2.023408515151158755e-05
2.360317460317460370e+00,9.963220883115750661e-06,3.988365450215112101e-06
2.361111111111111160e+00,1.138648549290505264e-05,-1.434406423341621905e-05
2.361904761904761951e+00,1.121555541284716198e-05,-3.215649743450433543e-05
2.362698412698412742e+00,9.292320607958733572e-06,-4.666248735534680834e-05
2.363492063492063533e+00,5.630550812999082784e-06,-5.540153222996668276e-05
2.364285714285714324e+00,5.085896095935898777e-07,-5.673772221962636390e-05
2.365079365079365115e+00,-5.458303963793662231e-06,-5.024908423851544786e-05
2.365873015873015905e+00,-1.131628303077321406e-05,-3.690885512623285784e-05
2.366666666666666696e+00,-1.587820763286533100e-05,-1.899334826117843973e-05
2.367460317460317487e+00,-1.793643481820594908e-05,2.934459474287488995e-07
2.368253968253968278e+00,-1.653800132946264595e-05,1.742277889322355302e-05
2.369047619047619069e+00,-1.124115163065906461e-05,2.925080308658908424e-05
2.369841269841269860e+00,-2.266384837003631196e-06,3.366990221645155805e-05
2.370634920634920650e+00,9.511138194621527087e-06,3.004032752366169216e-05
2.371428571428571441e+00,2.272071159563325096e-05,1.930063320502723844e-05
2.372222222222222232e+00,3.574451106491425352e-05,3.744650095963251623e-06
2.373015873015873023e+00,4.697303174822628681e-05,-1.346928183262975978e-05
2.373809523809523814e+00,5.500643977889973363e-05,-2.896461803042293628e-05
2.374603174603174605e+00,5.878391994325396903e-05,-3.981460776691503735e-05
2.375396825396825395e+00,5.765991653900788159e-05,-4.409266236611801939e-05
2.376190476190476186e+00,5.145794550616302718e-05,-4.118498432419963367e-05
2.376984126984126977e+00,4.051906922251573642e-05,-3.180179304416477749e-05
2.377777777777777768e+00,2.573680194598985496e-05,-1.770701143406664351e-05
2.378571428571428559e+00,8.548915901406751558e-06,-1.262410162856024405e-06
2.379365079365079350e+00,-9.151218691493885304e-06,1.508038592340394613e-05
2.380158730158730140e+00,-2.521176565823965305e-05,2.921477145774615335e-05
2.380952380952380931e+00,-3.752821595970118920e-05,3.965763852265418067e-05
2.381746031746031722e+00,-4.441630962064768630e-05,4.564715450196802802e-05
2.382539682539682513e+00,-4.497046611303494030e-05,4.709158192001017832e-05
2.383333333333333304e+00,-3.930866694054388597e-05,4.443276158872206343e-05
2.384126984126984095e+00,-2.862241116114149845e-05,3.848441052417310643e-05
2.384920634920634885e+00,-1.499894500078137207e-05,3.027514673285308558e-05
2.385714285714285676e+00,-1.044861314394762672e-06,2.089404782723225997e-05
2.386507936507936467e+00,1.060644351388181591e-05,1.132816667783865447e-05
2.387301587301587258e+00,1.779278606438107545e-05,2.303744251493021638e-06
2.388095238095238049e+00,1.921904002368058774e-05,-5.823560446965284159e-06
2.388888888888888840e+00,1.467261589907222576e-05,-1.307144512975442390e-05
2.389682539682539630e+00,5.024399322150242887e-06,-1.969771906793290782e-05
2.390476190476190421e+00,-7.973793411580653499e-06,-2.596570073213992557e-05
2.391269841269841212e+00,-2.204683154628689118e-05,-3.190628768713624832e-05
2.392063492063492003e+00,-3.483478065060965163e-05,-3.719267144753689942e-05
2.392857142857142794e+00,-4.432611303879559087e-05,-4.119534102221706495e-05
2.393650793650793585e+00,-4.920368381485999118e-05,-4.319644795141437644e-05
2.394444444444444375e+00,-4.904208781623579190e-05,-4.266821278263423033e-05
2.395238095238095166e+00,-4.432729980981799453e-05,-3.949935884375136721e-05
2.396031746031745957e+00,-3.630609213183661859e-05,-3.408751341147054438e-05
2.396825396825396748e+00,-2.670523448811592862e-05,-2.727641704957261520e-05
2.397619047619047539e+00,-1.738096083600590883e-05,-2.017085628328974222e-05
2.398412698412698330e+00,-9.963868514280819732e-06,-1.388852057849910399e-05
2.399206349206349120e+00,-5.557285392976936972e-06,-9.308145181464491026e-06
2.399999999999999911e+00,-4.536353399040280156e-06,-6.863594666192723445e-06
2.400793650793650702e+00,-6.483821003739110500e-06,-6.424517735729804992e-06
2.401587301587301493e+00,-1.028203198756486348e-05,-7.292956957983760077e-06
2.402380952380952284e+00,-1.435369467951930846e-05,-8.325534825754259724e-06
2.403174603174603075e+00,-1.700950296167083611e-05,-8.162509301727967172e-06
2.403968253968253865e+00,-1.682913636277335201e-05,-5.516378741435586792e-06
2.404761904761904656e+00,-1.298602639441916916e-05,5.430210140290375867e-07
2.405555555555555447e+00,-5.434301053445159130e-06,1.036507174757941139e-05
2.406349206349206238e+00,5.090142690763523374e-06,2.359491085879937403e-05
2.407142857142857029e+00,1.725147891406337615e-05,3.916649294881301905e-05
2.407936507936507819e+00,2.942339375038227083e-05,5.541212114288134109e-05
2.408730158730158610e+00,4.003611034870687790e-05,7.027593420137099266e-05
2.409523809523809401e+00,4.786758636499515427e-05,8.160777863802308300e-05
2.410317460317460192e+00,5.221388527190838142e-05,8.750240429838191303e-05
2.411111111111110983e+00,5.292005447673025728e-05,8.663560663151943135e-05
2.411904761904761774e+00,5.029697838199082862e-05,7.853746527461572078e-05
2.412698412698412564e+00,4.497609820820394334e-05,6.374350266135930278e-05
2.413492063492063355e+00,3.775687057006914065e-05,4.378364581545739719e-05
2.414285714285714146e+00,2.948513476827183225e-05,2.099973941383763301e-05
2.415079365079364937e+00,2.097512097558612107e-05,-1.786349697859373282e-06
2.415873015873015728e+00,1.296630430464009284e-05,-2.170511940627328694e-05
2.416666666666666519e+00,6.095686305807560062e-06,-3.630219319010168501e-05
2.417460317460317309e+00,8.659991766180932039e-07,-4.395093060886710477e-05
2.418253968253968100e+00,-2.401763895192018586e-06,-4.413956110327869339e-05
2.419047619047618891e+00,-3.628327784236727544e-06,-3.757627552753229537e-05
2.419841269841269682e+00,-3.026943992379088431e-06,-2.608479382299507942e-05
2.420634920634920473e+00,-1.111207461978373145e-06,-1.230407099405654632e-05
2.421428571428571264e+00,1.366490239801181170e-06,7.452802951034388945e-07
2.422222222222222054e+00,3.543476411780953916e-06,1.013244255930273770e-05
2.423015873015872845e+00,4.607405786965009127e-06,1.344148309281379796e-05
2.423809523809523636e+00,3.940821217576601394e-06,9.115379662964503843e-06
2.424603174603174427e+00,1.214248019253586177e-06,-3.275228583268542507e-06
2.425396825396825218e+00,-3.582011757638624248e-06,-2.284482433348632171e-05
2.426190476190476009e+00,-1.015664117239027397e-05,-4.734600270012369772e-05
2.426984126984126799e+00,-1.796779389820644463e-05,-7.335147230147608252e-05
2.427777777777777590e+00,-2.628749915423513083e-05,-9.670954494710970700e-05
2.428571428571428381e+00,-3.426833789568828808e-05,-1.132122222124218975e-04
2.429365079365079172e+00,-4.101078462948387144e-05,-1.193202218594327784e-04
2.430158730158729963e+00,-4.563859148864303017e-05,-1.127706686412190048e-04
2.430952380952380754e+00,-4.738989361484568445e-05,-9.295522858692019201e-05
2.431746031746031544e+00,-4.572286037422896763e-05,-6.104877471996334088e-05
2.432539682539682335e+00,-4.042397297799012402e-05,-1.993063588339900679e-05
2.433333333333333126e+00,-3.170010005092826078e-05,2.606005929095986544e-05
2.434126984126983917e+00,-2.023222973163827615e-05,7.153893642788791468e-05
2.434920634920634708e+00,-7.166459976444073529e-06,1.106956958894253582e-04
2.435714285714285499e+00,5.982530825123895732e-06,1.381172962501929621e-04
2.436507936507936289e+00,1.753190364714332815e-05,1.497171590371877464e-04
2.437301587301587080e+00,2.592575919172297641e-05,1.435710979092604228e-04
2.438095238095238315e+00,3.007419177341771991e-05,1.204154818557995153e-04
2.438888888888889106e+00,2.964625307778205552e-05,8.360714832761989514e-05
2.439682539682539897e+00,2.521683715371043883e-05,3.847955081670546102e-05
2.440476190476190688e+00,1.820117541603350278e-05,-8.774999891262275680e-06
2.441269841269841478e+00,1.057336524196701842e-05,-5.238217522549995687e-05
2.442063492063492269e+00,4.426218703810663734e-06,-8.802847014463033076e-05
2.442857142857143060e+00,1.470920788667987750e-06,-1.133681209089448734e-04
2.443650793650793851e+00,2.598523482898419507e-06,-1.279194479865269094e-04
2.444444444444444642e+00,7.629189116984544996e-06,-1.325184088670722053e-04
2.445238095238095433e+00,1.534175512069842361e-05,-1.286314632542443273e-04
2.446031746031746223e+00,2.379649321703184272e-05,-1.178093020999105813e-04
2.446825396825397014e+00,3.086236833976664353e-05,-1.014264381942182706e-04
2.447619047619047805e+00,3.478470588418660367e-05,-8.068594443048291960e-05
2.448412698412698596e+00,3.461731895997417302e-05,-5.676119745023238040e-05
2.449206349206349387e+00,3.039776623925905463e-05,-3.093629025336918763e-05
2.450000000000000178e+00,2.303780673842084110e-05,-4.662850474311609432e-06
2.450793650793650968e+00,1.399473335725169056e-05,2.048735179708235964e-05
2.451587301587301759e+00,4.849759267461208036e-06,4.295742998324142447e-05
2.452380952380952550e+00,-3.071308523080619994e-06,6.139113826587494114e-05
2.453174603174603341e+00,-8.937996990775756928e-06,7.482024944521805374e-05
2.453968253968254132e+00,-1.248021948027058457e-05,8.280514039759649344e-05
2.454761904761904923e+00,-1.390100202399890829e-05,8.549548943909978413e-05
2.455555555555555713e+00,-1.369658919937048519e-05,8.359774624670329940e-05
2.456349206349206504e+00,-1.245459957126822524e-05,7.825045260512731812e-05
2.457142857142857295e+00,-1.068953079141200221e-05,7.082051455437922416e-05
2.457936507936508086e+00,-8.750603876133684455e-06,6.265267595812233029e-05
2.458730158730158877e+00,-6.809780149662368217e-06,5.482900382181819392e-05
2.459523809523809668e+00,-4.915009984221471334e-06,4.800657353327223982e-05
2.460317460317460458e+00,-3.079018079205133716e-06,4.238164799848117393e-05
2.461111111111111249e+00,-1.368010756529410754e-06,3.778183222033015489e-05
2.461904761904762040e+00,4.303339662673693542e-08,3.384030190269907634e-05
2.462698412698412831e+00,8.720143566060012088e-07,3.018337701897645195e-05
2.463492063492063622e+00,7.951985266230708452e-07,2.657049766585762877e-05
2.464285714285714413e+00,-4.371817211377234781e-07,2.295483726274382354e-05
2.465079365079365203e+00,-2.867503502357063635e-06,1.946934738480843877e-05
2.465873015873015994e+00,-6.221953894573574854e-06,1.637181709205114073e-05
2.466666666666666785e+00,-9.868077607753148020e-06,1.399061128917446604e-05
2.467460317460317576e+00,-1.286940412066649602e-05,1.269661230520735936e-05
2.468253968253968367e+00,-1.414673677805347723e-05,1.289541215353711520e-05
2.469047619047619158e+00,-1.272539048546862210e-05,1.500356124469159926e-05
2.469841269841269948e+00,-8.015510364690278135e-06,1.936155510326289248e-05
2.470634920634920739e+00,-5.147954308227527310e-08,2.605719216389695516e-05
2.471428571428571530e+00,1.038346397053713762e-05,3.468469542023925212e-05
2.472222222222222321e+00,2.179869502641826798e-05,4.412616184932552436e-05
2.473015873015873112e+00,3.221637820076149119e-05,5.247880945161698921e-05
2.473809523809523903e+00,3.953823855270689177e-05,5.723601232548619123e-05
2.474603174603174693e+00,4.198754114530907426e-05,5.575594827610183822e-05
2.475396825396825484e+00,3.853112574693310364e-05,4.594109738505373555e-05
2.476190476190476275e+00,2.918249213641728736e-05,2.694770022241569973e-05
2.476984126984127066e+00,1.510289268058401437e-05,-3.088272403104601145e-07
2.477777777777777857e+00,-1.546890811465776410e-06,-3.305941059195706400e-05
2.478571428571428648e+00,-1.799756837444083587e-05,-6.709344432820791041e-05
2.479365079365079438e+00,-3.143651846812173570e-05,-9.760669278805156291e-05
2.480158730158730229e+00,-3.962587404005159892e-05,-1.202532480138568090e-04
2.480952380952381020e+00,-4.142603194368191130e-05,-1.320846429629823936e-04
2.481746031746031811e+00,-3.708652181462813199e-05,-1.320903260850084325e-04
2.482539682539682602e+00,-2.821334066967012564e-05,-1.211910342469171365e-04
2.483333333333333393e+00,-1.740090979191817627e-05,-1.017287963792752278e-04
2.484126984126984183e+00,-7.609491219879028944e-06,-7.667246081146065898e-05
2.484920634920634974e+00,-1.445465883498221795e-06,-4.884585541808580278e-05
2.485714285714285765e+00,-5.329209851640510216e-07,-2.044848991622216851e-05
2.486507936507936556e+00,-5.138150175077981653e-06,7.007142743115160000e-06
2.487301587301587347e+00,-1.413650973097921035e-05,3.240486378514906995e-05
2.488095238095238138e+00,-2.532091710519366202e-05,5.458995499434639493e-05
2.488888888888888928e+00,-3.596727886083413297e-05,7.204757891891378028e-05
2.489682539682539719e+00,-4.351015487967576381e-05,8.289027048774885850e-05
2.490476190476190510e+00,-4.615590959665315322e-05,8.520546524492276857e-05
2.491269841269841301e+00,-4.328039069246575755e-05,7.764142021569357872e-05
2.492063492063492092e+00,-3.551894059916089065e-05,5.998398142431375017e-05
2.492857142857142883e+00,-2.453833234177163396e-05,3.346215896057372737e-05
2.493650793650793673e+00,-1.256044448691649289e-05,6.319927073371873613e-07
2.494444444444444464e+00,-1.769153116933433177e-06,-3.512454342332172705e-05
2.495238095238095255e+00,6.238234562301798323e-06,-7.027623242201620616e-05
2.496031746031746046e+00,1.080635843782121061e-05,-1.017149076300943823e-04
2.496825396825396837e+00,1.229208156296183073e-05,-1.270175053844441399e-04
2.497619047619047628e+00,1.184354886257618208e-05,-1.443785526368291403e-04
2.498412698412698418e+00,1.096852347245143353e-05,-1.523872702948454011e-04
2.499206349206349209e+00,1.103142277923392392e-05,-1.499014803214121473e-04
2.500000000000000000e+00,1.283247189467388699e-05,-1.361769292152466369e-04
2.500793650793650791e+00,1.638955675489207244e-05,-1.112051775696306337e-04
2.501587301587301582e+00,2.097593964415750791e-05,-7.604262441747038125e-05
2.502380952380952372e+00,2.538665767750555169e-05,-3.290546724239324505e-05
2.503174603174603163e+00,2.833785213379863611e-05,1.504230431622209452e-05
2.503968253968253954e+00,2.886804411277178712e-05,6.410089435955345662e-05
2.504761904761904745e+00,2.661945665200752899e-05,1.104637338770596700e-04
2.505555555555555536e+00,2.192472345783772340e-05,1.505286519798369868e-04
2.506349206349206327e+00,1.568911260324025786e-05,1.810619670790824436e-04
2.507142857142857117e+00,9.118024828469981790e-06,1.992825701378917391e-04
2.507936507936507908e+00,3.379933853754684663e-06,2.029816788037194244e-04
2.508730158730158699e+00,-6.897929512571141999e-07,1.907709490312745103e-04
2.509523809523809490e+00,-2.753861120455584298e-06,1.624569919055054361e-04
2.510317460317460281e+00,-2.964362998809828057e-06,1.194228499473760398e-04
2.511111111111111072e+00,-1.803883342822855586e-06,6.483380808672170419e-05
2.511904761904761862e+00,1.484808528283503754e-07,3.517933215295116568e-06
2.512698412698412653e+00,2.437616954237954479e-06,-5.852374413252942829e-05
2.513492063492063444e+00,4.871961509547926270e-06,-1.149045393406905672e-04
2.514285714285714235e+00,7.549382992424976985e-06,-1.597778911912804114e-04
2.515079365079365026e+00,1.076825661185972249e-05,-1.887054512126578438e-04
2.515873015873015817e+00,1.484783299703425370e-05,-1.992816191032338938e-04
2.516666666666666607e+00,1.990470994218647774e-05,-1.913807949037641776e-04
2.517460317460317398e+00,2.565197856405961667e-05,-1.669828443649061002e-04
2.518253968253968189e+00,3.129531929275069748e-05,-1.296424475365886154e-04
2.519047619047618980e+00,3.558552039937850264e-05,-8.376289291338266641e-05
2.519841269841269771e+00,3.704708103138654949e-05,-3.387490173673814370e-05
2.520634920634920562e+00,3.434564773187215076e-05,1.590938984843248666e-05
2.521428571428571352e+00,2.670025264775429538e-05,6.218028507507258830e-05
2.522222222222222143e+00,1.421320316001705263e-05,1.022627942771623565e-04
2.523015873015872934e+00,-1.999429521365628668e-06,1.340832363331435765e-04
2.523809523809523725e+00,-1.993909293925546019e-05,1.559898091233222032e-04
2.524603174603174516e+00,-3.710137554132918360e-05,1.666386096834792524e-04
2.525396825396825307e+00,-5.100746701046072698e-05,1.650184238895882095e-04
2.526190476190476097e+00,-5.975134207487269798e-05,1.506349084370141658e-04
2.526984126984126888e+00,-6.241092548209511482e-05,1.238184767697239196e-04
2.527777777777777679e+00,-5.920196227839478234e-05,8.606592295761990080e-05
2.528571428571428470e+00,-5.132707806657396232e-05,4.028398061206640190e-05
2.529365079365079261e+00,-4.057048950022691187e-05,-9.206927605030720162e-06
2.530158730158730052e+00,-2.877305007598360951e-05,-5.701157113844043585e-05
2.530952380952380842e+00,-1.735675466532874425e-05,-9.735480722028749692e-05
2.531746031746031633e+00,-7.040636960676568635e-06,-1.250253722774544857e-04
2.532539682539682424e+00,2.182604324452640098e-06,-1.363525230979265859e-04
2.533333333333333215e+00,1.082671421377987660e-05,-1.299554964897139909e-04
2.534126984126984006e+00,1.953732179813907582e-05,-1.070575800635625467e-04
2.534920634920634797e+00,2.868855089567999586e-05,-7.128540479518246016e-05
2.535714285714285587e+00,3.807609670063464099e-05,-2.802034352773853911e-05
2.536507936507936378e+00,4.680128400784855125e-05,1.652816327635312949e-05
2.537301587301587169e+00,5.339141474363587602e-05,5.632414011074146133e-05
2.538095238095237960e+00,5.614245707695356900e-05,8.640189766482192545e-05
2.538888888888888751e+00,5.360671283003277482e-05,1.035306061666508025e-04
2.539682539682539542e+00,4.509334532202695828e-05,1.065753019922673360e-04
2.540476190476190332e+00,3.102595842022355769e-05,9.652966383911300340e-05
2.541269841269841123e+00,1.302865321325124849e-05,7.623205029135115955e-05
2.542063492063491914e+00,-6.309287104893204404e-06,4.981214917261010639e-05
2.542857142857142705e+00,-2.393626937498558036e-05,2.195660935928331616e-05
2.543650793650793496e+00,-3.697062813271156158e-05,-2.884638811739972379e-06
2.544444444444444287e+00,-4.329524190592240869e-05,-2.122188127114603312e-05
2.545238095238095077e+00,-4.197871557830226420e-05,-3.106688108720170345e-05
2.546031746031745868e+00,-3.345094103756266607e-05,-3.220693023251715119e-05
2.546825396825396659e+00,-1.942170027964612919e-05,-2.615677191918003633e-05
2.547619047619047450e+00,-2.571393495587772545e-06,-1.577706216793157423e-05
2.548412698412698241e+00,1.393158413061900954e-05,-4.614264406146539104e-06
2.549206349206349032e+00,2.700827478195977571e-05,3.906280229417411424e-06
2.549999999999999822e+00,3.423827273214435668e-05,7.246225685610062001e-06
2.550793650793650613e+00,3.430662399156265074e-05,4.287299071684910981e-06
2.551587301587301404e+00,2.723337651364676285e-05,-4.500737289821323816e-06
2.552380952380952195e+00,1.433832549213709243e-05,-1.728565430381629527e-05
2.553174603174602986e+00,-2.047625448254383983e-06,-3.141046987919717562e-05
2.553968253968253777e+00,-1.906241995314012516e-05,-4.408219905859695338e-05
2.554761904761904567e+00,-3.388653869546436227e-05,-5.301960278459666659e-05
2.555555555555555358e+00,-4.428982311846346010e-05,-5.689117253268569004e-05
2.556349206349206149e+00,-4.902524900789680026e-05,-5.544931439511958173e-05
2.557142857142856940e+00,-4.797240607566831080e-05,-4.937125368103121767e-05
2.557936507936507731e+00,-4.200327192705822013e-05,-3.990720746004448031e-05
2.558730158730158522e+00,-3.262886769244678994e-05,-2.847294162488886533e-05
2.559523809523809312e+00,-2.154784264449878962e-05,-1.630389245900695048e-05
2.560317460317460103e+00,-1.023488107268326928e-05,-4.238048421054743010e-06
2.561111111111110894e+00,3.188959202815766744e-07,7.356089601277558764e-06
2.561904761904761685e+00,9.656578662399927348e-06,1.852443318903848753e-05
2.562698412698412920e+00,1.770997090165065435e-05,2.957667928423828721e-05
2.563492063492063711e+00,2.453579255288769633e-05,4.087252460779388291e-05
2.564285714285714501e+00,3.005013792797561225e-05,5.257902802434202182e-05
2.565079365079365292e+00,3.387457608441954909e-05,6.444531215034936180e-05
2.565873015873016083e+00,3.536093055082778643e-05,7.565657946152120131e-05
2.566666666666666874e+00,3.378889283643980664e-05,8.482893811714961770e-05
2.567460317460317665e+00,2.866111384446570353e-05,9.017449113346242520e-05
2.568253968253968456e+00,1.998295581731639059e-05,8.981281585886462476e-05
2.569047619047619246e+00,8.420764498783054521e-06,8.215980130509740011e-05
2.569841269841270037e+00,-4.724034134247258603e-06,6.630841023792239774e-05
2.570634920634920828e+00,-1.772507049321497477e-05,4.232578417557770231e-05
2.571428571428571619e+00,-2.876425569738179052e-05,1.141204121911850317e-05
2.572222222222222410e+00,-3.628910079250509071e-05,-2.411399395880679567e-05
2.573015873015873201e+00,-3.929612359244027563e-05,-6.101996386364539178e-05
2.573809523809523991e+00,-3.747904593252733134e-05,-9.555330383964345245e-05
2.574603174603174782e+00,-3.123136087908313349e-05,-1.239870221435969780e-04
2.575396825396825573e+00,-2.153299917322940764e-05,-1.432345533817795051e-04
2.576190476190476364e+00,-9.766689490872847770e-06,-1.514008158420943149e-04
2.576984126984127155e+00,2.496769237532461078e-06,-1.481149735578623638e-04
2.577777777777777946e+00,1.371995581839220967e-05,-1.345268471863899620e-04
2.578571428571428736e+00,2.261022543904702347e-05,-1.129483072298977352e-04
2.579365079365079527e+00,2.829952639296963660e-05,-8.624933758888605215e-05
2.580158730158730318e+00,3.046317053469995757e-05,-5.721517553896030055e-05
2.580952380952381109e+00,2.934933880812724775e-05,-2.808200854563055229e-05
2.581746031746031900e+00,2.570515040119757122e-05,-3.824420924991943615e-07
2.582539682539682691e+00,2.060779839965495985e-05,2.490881871756851865e-05
2.583333333333333481e+00,1.523457770470656716e-05,4.706257641114641125e-05
2.584126984126984272e+00,1.062568949943175291e-05,6.530113565090204109e-05
2.584920634920635063e+00,7.497673264052374394e-06,7.867354711351829180e-05
2.585714285714285854e+00,6.146251354634534679e-06,8.615728742274732742e-05
2.586507936507936645e+00,6.441733112731972341e-06,8.693835100778901030e-05
2.587301587301587436e+00,7.887965876727715651e-06,8.074980351776151876e-05
2.588095238095238226e+00,9.707896552848058739e-06,6.813241682269008317e-05
2.588888888888889017e+00,1.093964895664610781e-05,5.051618140381947862e-05
2.589682539682539808e+00,1.055840193074859799e-05,3.008681987188015390e-05
2.590476190476190599e+00,7.652243266200473441e-06,9.468642766989507050e-06
2.591269841269841390e+00,1.657855884052426358e-06,-8.699224712786113000e-06
2.592063492063492181e+00,-7.385838696959126166e-06,-2.219986169885490148e-05
2.592857142857142971e+00,-1.865243604980143730e-05,-2.960118369485533043e-05
2.593650793650793762e+00,-3.051083667412290534e-05,-3.047592410980278478e-05
2.594444444444444553e+00,-4.074406207797017339e-05,-2.544123004003682323e-05
2.595238095238095344e+00,-4.700014023527773993e-05,-1.601600088065808220e-05
2.596031746031746135e+00,-4.738186201738869586e-05,-4.322873256475066173e-06
2.596825396825396925e+00,-4.101195677057630363e-05,7.320423263803512009e-06
2.597619047619047716e+00,-2.839367006374766928e-05,1.685822418293565341e-05
2.598412698412698507e+00,-1.143769956168009819e-05,2.291786883167360603e-05
2.599206349206349298e+00,6.872937796895722279e-06,2.509662923958276657e-05
2.600000000000000089e+00,2.310036246688840198e-05,2.403527353310063228e-05
2.600793650793650880e+00,3.409796527604492931e-05,2.125221066719983989e-05
2.601587301587301670e+00,3.770938191949080510e-05,1.877827675998644137e-05
2.602380952380952461e+00,3.326476906795573449e-05,1.868105928771907165e-05
2.603174603174603252e+00,2.176483144031107718e-05,2.258117382505799478e-05
2.603968253968254043e+00,5.705863789767583495e-06,3.124289031102685731e-05
2.604761904761904834e+00,-1.142637794415223048e-05,4.428947139046558420e-05
2.605555555555555625e+00,-2.589224815425571164e-05,6.007965116042128365e-05
2.606349206349206415e+00,-3.450732466372902023e-05,7.579498589658931543e-05
2.607142857142857206e+00,-3.534871507875768273e-05,8.779702415938509072e-05
2.607936507936507997e+00,-2.819728120732323319e-05,9.227412835624962449e-05
2.608730158730158788e+00,-1.460208892560784596e-05,8.610225550833878073e-05
2.609523809523809579e+00,2.466609327772772169e-06,6.773148471491705427e-05
2.610317460317460370e+00,1.930433218136503958e-05,3.783741145356164169e-05
2.611111111111111160e+00,3.232633940575721748e-05,-5.108518493768409172e-07
2.611904761904761951e+00,3.886091509653559988e-05,-4.229814799134628324e-05
2.612698412698412742e+00,3.767540045329038830e-05,-8.156465944991045706e-05
2.613492063492063533e+00,2.912161284893833972e-05,-1.127030141587883537e-04
2.614285714285714324e+00,1.491508496820057511e-05,-1.316819391160381643e-04
2.615079365079365115e+00,-2.330457723701015078e-06,-1.368516438828694208e-04
2.615873015873015905e+00,-1.964997944418247407e-05,-1.291300093680427781e-04
2.616666666666666696e+00,-3.422089289746586599e-05,-1.115671369952675582e-04
2.617460317460317487e+00,-4.373668410690415069e-05,-8.846245679874002287e-05
2.618253968253968278e+00,-4.665620468585888775e-05,-6.430775471174629706e-05
2.619047619047619069e+00,-4.235539807460876155e-05,-4.283282646564635969e-05
2.619841269841269860e+00,-3.120343295364969005e-05,-2.635734529960277251e-05
2.620634920634920650e+00,-1.455803980777288567e-05,-1.554487962289422285e-05
2.621428571428571441e+00,5.351590751579319446e-06,-9.553496445073609504e-06
2.622222222222222232e+00,2.568855784780365816e-05,-6.502781359628112682e-06
2.623015873015873023e+00,4.342187037220075421e-05,-4.128838424435146037e-06
2.623809523809523814e+00,5.583902773601811804e-05,-4.705051177473317342e-07
2.624603174603174605e+00,6.105339593484670308e-05,5.575166193509642017e-06
2.625396825396825395e+00,5.837659425436843557e-05,1.396089224039765766e-05
2.626190476190476186e+00,4.844712642746945797e-05,2.352622788141561956e-05
2.626984126984126977e+00,3.307307017630916067e-05,3.234098609031291872e-05
2.627777777777777768e+00,1.483312202109565423e-05,3.825374467680161508e-05
2.628571428571428559e+00,-3.449997610658492746e-06,3.950051575552458987e-05
2.629365079365079350e+00,-1.922349451224740672e-05,3.522546969920217617e-05
2.630158730158730140e+00,-3.058831926062774697e-05,2.579394765225550423e-05
2.630952380952380931e+00,-3.649360731724333399e-05,1.282460804935579097e-05
2.631746031746031722e+00,-3.675008743834530680e-05,-1.078631888402143487e-06
2.632539682539682513e+00,-3.191876461631496713e-05,-1.285647674852990593e-05
2.633333333333333304e+00,-2.314148513068861609e-05,-1.968421021898136554e-05
2.634126984126984095e+00,-1.195643386768823854e-05,-1.966068142087239016e-05
2.634920634920634885e+00,-1.066198565635689956e-07,-1.230956002454193644e-05
2.635714285714285676e+00,1.067127291070133311e-05,1.257426889012389175e-06
2.636507936507936467e+00,1.888313890079453783e-05,1.856979103626186844e-05
2.637301587301587258e+00,2.351558146843911364e-05,3.635766760236421659e-05
2.638095238095238049e+00,2.422402117023902423e-05,5.128734247853141358e-05
2.638888888888888840e+00,2.141066727557215533e-05,6.068091457302046747e-05
2.639682539682539630e+00,1.614894668426164766e-05,6.304725873363513789e-05
2.640476190476190421e+00,9.945011432447440535e-06,5.831587310097427717e-05
2.641269841269841212e+00,4.372406282308869268e-06,4.775247843041689234e-05
2.642063492063492003e+00,6.663903490071931318e-07,3.361565980780045320e-05
2.642857142857142794e+00,-6.010350757487110724e-07,1.866150290555399239e-05
2.643650793650793585e+00,3.462341810505261738e-07,5.610600952970156147e-06
2.644444444444444375e+00,2.598997826719895387e-06,-3.329099971314713847e-06
2.645238095238095166e+00,4.881063740536701167e-06,-6.821801865559529579e-06
2.646031746031745957e+00,5.967357221978945164e-06,-4.612910203235297468e-06
2.646825396825396748e+00,5.064050360748374641e-06,2.427757860251308635e-06
2.647619047619047539e+00,2.032735543197860022e-06,1.243961537265369656e-05
2.648412698412698330e+00,-2.601817701524785574e-06,2.288881724410277263e-05
2.649206349206349120e+00,-7.848437186312722132e-06,3.105253186735971126e-05
2.649999999999999911e+00,-1.257569991962906083e-05,3.459929964168041727e-05
2.650793650793650702e+00,-1.585582602807982593e-05,3.213033630466341067e-05
2.651587301587301493e+00,-1.721484202698507528e-05,2.351412828581596960e-05
2.652380952380952284e+00,-1.671587862130844850e-05,9.884784848339958247e-06
2.653174603174603075e+00,-1.486669890430106065e-05,-6.715239989154715435e-06
2.653968253968253865e+00,-1.240445145061186214e-05,-2.392925734630645633e-05
2.654761904761904656e+00,-1.004174042812537998e-05,-3.970039655910338815e-05
2.655555555555555447e+00,-8.252264058628124504e-06,-5.268634486262751269e-05
2.656349206349206238e+00,-7.149171935495050561e-06,-6.235481547023393454e-05
2.657142857142857029e+00,-6.483774724293030916e-06,-6.878639643652541399e-05
2.657936507936507819e+00,-5.767442209154613318e-06,-7.232717509734738846e-05
2.658730158730158610e+00,-4.486460374480504626e-06,-7.326921307298563948e-05
2.659523809523809401e+00,-2.341289756816475848e-06,-7.169089082510689053e-05
2.660317460317460192e+00,5.809469632011950135e-07,-6.749277810384350694e-05
2.661111111111110983e+00,3.777420426178936785e-06,-6.056731226968353169e-05
2.661904761904761774e+00,6.467260568436853860e-06,-5.099160162904981539e-05
2.662698412698412564e+00,7.849455456776093269e-06,-3.915088173188341190e-05
2.663492063492063355e+00,7.383203830509013029e-06,-2.575831227712849225e-05
2.664285714285714146e+00,4.985537092406595548e-06,-1.178772868096174882e-05
2.665079365079364937e+00,1.077909851909050513e-06,1.646766720738144991e-06
2.665873015873015728e+00,-3.526567611382344501e-06,1.344005864652554794e-05
2.666666666666666519e+00,-7.847119795454334632e-06,2.266404317176036473e-05
2.667460317460317309e+00,-1.098976466667038227e-05,2.874530867611752033e-05
2.668253968253968100e+00,-1.235195042341842571e-05,3.162651483458872999e-05
2.669047619047618891e+00,-1.172520945808887090e-05,3.186364331320011751e-05
2.669841269841269682e+00,-9.282767826921567878e-06,3.060604388564720980e-05
2.670634920634920473e+00,-5.473503855843778956e-06,2.942763794257633635e-05
2.671428571428571264e+00,-8.663277363842037643e-07,3.001761318136730549e-05
2.672222222222222054e+00,4.002303933187514848e-06,3.378361811665613084e-05
2.673015873015872845e+00,8.731393650994586511e-06,4.145700676290656607e-05
2.673809523809523636e+00,1.308165972710472860e-05,5.280429182079218568e-05
2.674603174603174427e+00,1.692309760433049871e-05,6.653264207513381683e-05
2.675396825396825218e+00,2.012649665843804295e-05,8.043333406813083170e-05
2.676190476190476009e+00,2.244086766110860577e-05,9.174872659310877581e-05
2.676984126984126799e+00,2.340914173968139560e-05,9.769260067682301863e-05
2.677777777777777590e+00,2.237127550824146463e-05,9.601607307212388300e-05
2.678571428571428381e+00,1.858246656147483788e-05,8.549822868927198748e-05
2.679365079365079172e+00,1.143472348045535350e-05,6.624996922772781601e-05
2.680158730158729963e+00,7.232813169439554447e-07,3.975263708213732435e-05
2.680952380952380754e+00,-1.313280552604609786e-05,8.614647221275845333e-06
2.681746031746031544e+00,-2.900305789815182868e-05,-2.389189049721205348e-05
2.682539682539682335e+00,-4.513646487286414408e-05,-5.439044897489906044e-05
2.683333333333333126e+00,-5.941727821053511204e-05,-7.991637216469734664e-05
2.684126984126983917e+00,-6.972416726877389006e-05,-9.828748130011273664e-05
2.684920634920634708e+00,-7.431087073219011106e-05,-1.082896909681853439e-04
2.685714285714285499e+00,-7.213108525724592904e-05,-1.096934840588639776e-04
2.686507936507936289e+00,-6.304748080298001151e-05,-1.031409814097072772e-04
2.687301587301587080e+00,-4.788782193829684074e-05,-8.994224438916710693e-05
2.688095238095238315e+00,-2.834329564288814055e-05,-7.181661499884067670e-05
2.688888888888889106e+00,-6.742114285359962154e-06,-5.062248578444332892e-05
2.689682539682539897e+00,1.424767901261689290e-05,-2.813021524657296281e-05
2.690476190476190688e+00,3.195031975201546447e-05,-5.892937472281931026e-06
2.691269841269841478e+00,4.405269135085525787e-05,1.475689626132682343e-05
2.692063492063492269e+00,4.902326765996605808e-05,3.261334515849033855e-05
2.692857142857143060e+00,4.653328426804836704e-05,4.648923117628641483e-05
2.693650793650793851e+00,3.774824200107969638e-05,5.519301587806675651e-05
2.694444444444444642e+00,2.531884986890403552e-05,5.764925995944737713e-05
2.695238095238095433e+00,1.295848085258140437e-05,5.315289254203112341e-05
2.696031746031746223e+00,4.634250367039844314e-06,4.167839195227921617e-05
2.696825396825397014e+00,3.555451756680524906e-06,2.411876413914519060e-05
2.697619047619047805e+00,1.124655181736991882e-05,2.330358195087469103e-06
2.698412698412698596e+00,2.700012771243234742e-05,-2.107885160507404042e-05
2.699206349206349387e+00,4.790796216426219798e-05,-4.318062145308415969e-05
2.700000000000000178e+00,6.949194079930302078e-05,-6.125726165182942098e-05
2.700793650793650968e+00,8.676546905742977894e-05,-7.328534099785817893e-05
2.701587301587301759e+00,9.542675316679161981e-05,-7.825056846879019324e-05
2.702380952380952550e+00,9.285937168545941494e-05,-7.621953743632949919e-05
2.703174603174603341e+00,7.868854726558642077e-05,-6.815522126515676426e-05
2.703968253968254132e+00,5.478275167184955854e-05,-5.554182374935251178e-05
2.704761904761904923e+00,2.475536576113038375e-05,-3.995606331739048303e-05
2.705555555555555713e+00,-6.848629115094984377e-06,-2.273872682603694947e-05
2.706349206349206504e+00,-3.545105005400350713e-05,-4.864961895839673456e-06
2.707142857142857295e+00,-5.723351926195879516e-05,1.298139786557046918e-05
2.707936507936508086e+00,-6.970422880976720329e-05,3.020477403846349654e-05
2.708730158730158877e+00,-7.197097954912363494e-05,4.608095396281904386e-05
2.709523809523809668e+00,-6.469634245940179774e-05,5.963577257158477092e-05
2.710317460317460458e+00,-4.977249765334028001e-05,6.968699586758343538e-05
2.711111111111111249e+00,-2.982730548060273873e-05,7.505655711106529583e-05
2.711904761904762040e+00,-7.715431062772694037e-06,7.489996095394272355e-05
2.712698412698412831e+00,1.387393321978838837e-05,6.905173508647966917e-05
2.713492063492063622e+00,3.263345889509496918e-05,5.826159260901462515e-05
2.714285714285714413e+00,4.669727450773433021e-05,4.420931813705021509e-05
2.715079365079365203e+00,5.461793840997491886e-05,2.924225884156870516e-05
2.715873015873015994e+00,5.536320358029683792e-05,1.586680889158054836e-05
2.716666666666666785e+00,4.842850832306102996e-05,6.118664423493030537e-06
2.717460317460317576e+00,3.409398694978345550e-05,9.965843117655321405e-07
2.718253968253968367e+00,1.372641974567100292e-05,1.389569683741650067e-07
2.719047619047619158e+00,-1.009071086081487006e-05,1.856669679417573229e-06
2.719841269841269948e+00,-3.381157474093438855e-05,3.541166510807292633e-06
2.720634920634920739e+00,-5.361198874074793897e-05,2.366413826279443244e-06
2.721428571428571530e+00,-6.631022974140681403e-05,-3.887273335397460444e-06
2.722222222222222321e+00,-7.018623838815334233e-05,-1.611359088002022559e-05
2.723015873015873112e+00,-6.540300494451315263e-05,-3.347841452570903307e-05
2.723809523809523903e+00,-5.391563501491583517e-05,-5.346717291569180356e-05
2.724603174603174693e+00,-3.894471549122954210e-05,-7.238861646886706879e-05
2.725396825396825484e+00,-2.419948938747404354e-05,-8.621623206134502342e-05
2.726190476190476275e+00,-1.305638846314364940e-05,-9.155504412569279160e-05
2.726984126984127066e+00,-7.865347896192477221e-06,-8.648095528893350026e-05
2.727777777777777857e+00,-9.501013767000044715e-06,-7.102172296209017404e-05
2.728571428571428648e+00,-1.721666028729327869e-05,-4.713694960219573602e-05
2.729365079365079438e+00,-2.880657135290607611e-05,-1.819854097780146957e-05
2.730158730158730229e+00,-4.104267506732811214e-05,1.186929383416301095e-05
2.730952380952381020e+00,-5.032086954724060754e-05,3.952574206477783560e-05
2.731746031746031811e+00,-5.342271414756886468e-05,6.235195351736922862e-05
2.732539682539682602e+00,-4.826160894270720999e-05,7.940266268938684171e-05
2.733333333333333393e+00,-3.444912847705184782e-05,9.110954609308736054e-05
2.734126984126984183e+00,-1.351774785317445070e-05,9.880047551044027069e-05
2.734920634920634974e+00,1.130101846652979937e-05,1.039925285829089322e-04
2.735714285714285765e+00,3.572647898706827357e-05,1.076694308834179504e-04
2.736507936507936556e+00,5.536309456161576530e-05,1.097632618814120900e-04
2.737301587301587347e+00,6.668866364772360394e-05,1.090180313215267173e-04
2.738095238095238138e+00,6.784408066287771352e-05,1.033125545910833871e-04
2.738888888888888928e+00,5.902129834704823453e-05,9.037592958736942971e-05
2.739682539682539719e+00,4.235607892279953521e-05,6.868428532058539035e-05
2.740476190476190510e+00,2.137153350310037970e-05,3.824066432562642378e-05
2.741269841269841301e+00,1.390487717069062285e-07,9.567197756440185631e-07
2.742063492063492092e+00,-1.761485594888641276e-05,-3.951762009075343823e-05
2.742857142857142883e+00,-2.923665682036375620e-05,-7.847821933550839059e-05
2.743650793650793673e+00,-3.355906946837505100e-05,-1.111530536198688780e-04
2.744444444444444464e+00,-3.095268428988212064e-05,-1.336990152133359436e-04
2.745238095238095255e+00,-2.306825290146396484e-05,-1.439496459300172238e-04
2.746031746031746046e+00,-1.237499559455240101e-05,-1.417599228420952310e-04
2.746825396825396837e+00,-1.596687932109327127e-06,-1.289131362259310115e-04
2.747619047619047628e+00,6.872905843902112112e-06,-1.086509219926697095e-04
2.748412698412698418e+00,1.148528344396318672e-05,-8.495620766494111514e-05
2.749206349206349209e+00,1.186893492627419456e-05,-6.175665450734911196e-05
2.750000000000000000e+00,8.879258729815874367e-06,-4.221044623550329855e-05
2.750793650793650791e+00,4.346552337628674022e-06,-2.819343041021635775e-05
2.751587301587301582e+00,5.975766460906035056e-07,-2.005731817947845608e-05
2.752380952380952372e+00,-1.218096705431054267e-07,-1.668919130651741668e-05
2.753174603174603163e+00,3.798419782666953212e-06,-1.585627772023655321e-05
2.753968253968253954e+00,1.289030231641328389e-05,-1.475395774058725908e-05
2.754761904761904745e+00,2.634887534950324905e-05,-1.061813064874998609e-05
2.755555555555555536e+00,4.202367439776008318e-05,-1.261725318981516652e-06
2.756349206349206327e+00,5.671806367459617578e-05,1.454611438816038447e-05
2.757142857142857117e+00,6.680504602578472720e-05,3.686754444003177228e-05
2.757936507936507908e+00,6.907369471227934232e-05,6.452110388779548915e-05
2.758730158730158699e+00,6.161439641001846817e-05,9.511890188129706750e-05
2.759523809523809490e+00,4.449045108244562290e-05,1.252178322741518898e-04
2.760317460317460281e+00,1.996944861912289013e-05,1.506156506746543413e-04
2.761111111111111072e+00,-7.799791999176051288e-06,1.668315559819951322e-04
2.761904761904761862e+00,-3.362268730294987532e-05,1.697800871594799550e-04
2.762698412698412653e+00,-5.242228918375115791e-05,1.565740965865927638e-04
2.763492063492063444e+00,-6.045297836092702572e-05,1.263036957174577921e-04
2.764285714285714235e+00,-5.625297246310206547e-05,8.057784101194660526e-05
2.765079365079365026e+00,-4.106045456865079711e-05,2.362196669665581235e-05
2.765873015873015817e+00,-1.853738791359663926e-05,-3.818420373919808496e-05
2.766666666666666607e+00,6.164226860534159114e-06,-9.728448092458987786e-05
2.767460317460317398e+00,2.774570900823543601e-05,-1.462242006227704595e-04
2.768253968253968189e+00,4.211001001951571605e-05,-1.789127790659822556e-04
2.769047619047618980e+00,4.729270677758680143e-05,-1.915743351162627213e-04
2.769841269841269771e+00,4.370418479853158692e-05,-1.832076460720182952e-04
2.770634920634920562e+00,3.366359424422462780e-05,-1.555304234247210091e-04
2.771428571428571352e+00,2.043567201314130445e-05,-1.125105959159101424e-04
2.772222222222222143e+00,7.105254585619923379e-06,-5.965033827658380047e-05
2.773015873015872934e+00,-4.364795869384128024e-06,-3.182065931597585313e-06
2.773809523809523725e+00,-1.361577960689414838e-05,5.071270502356720793e-05
2.774603174603174516e+00,-2.176851446545557020e-05,9.660009086975057039e-05
2.775396825396825307e+00,-3.072598649544194290e-05,1.303671348114018088e-04
2.776190476190476097e+00,-4.213529804668337126e-05,1.496270713605849173e-04
2.776984126984126888e+00,-5.638362590124950866e-05,1.538999335749626819e-04
2.777777777777777679e+00,-7.201730337491447594e-05,1.445207596431084319e-04
2.778571428571428470e+00,-8.583562471514573735e-05,1.242717170159225097e-04
2.779365079365079261e+00,-9.367185482094808071e-05,9.680463218259509469e-05
2.780158730158730052e+00,-9.163143690947504728e-05,6.598372552512228866e-05
2.780952380952380842e+00,-7.739830423977015665e-05,3.529188297177719442e-05
2.781746031746031633e+00,-5.118650085749062805e-05,7.390813374006417176e-06
2.782539682539682424e+00,-1.601457424017777072e-05,-1.615455350493015757e-05
2.783333333333333215e+00,2.280787168538017833e-05,-3.501218044536100806e-05
2.784126984126984006e+00,5.884043155377191082e-05,-5.006122613203123914e-05
2.784920634920634797e+00,8.598582694447455066e-05,-6.312782476865123687e-05
2.785714285714285587e+00,9.987319777779769011e-05,-7.640790200708909947e-05
2.786507936507936378e+00,9.879517263471882210e-05,-9.164017970539869767e-05
2.787301587301587169e+00,8.398244873305892684e-05,-1.092569555065497222e-04
2.788095238095237960e+00,5.919183744189896482e-05,-1.278096043239048784e-04
2.788888888888888751e+00,2.976947034626249632e-05,-1.439074980313547662e-04
2.789682539682539542e+00,1.463212070939636918e-06,-1.527789031682281464e-04
2.790476190476190332e+00,-2.072886344884960902e-05,-1.494019051167613950e-04
2.791269841269841123e+00,-3.344603885943042156e-05,-1.299676179436728052e-04
2.792063492063491914e+00,-3.544793731060374043e-05,-9.327172821426336728e-05
2.792857142857142705e+00,-2.764292644748739120e-05,-4.158809548531470536e-05
2.793650793650793496e+00,-1.270200857765616486e-05,1.927872389820087115e-05
2.794444444444444287e+00,5.614822736707969096e-06,8.080588425442036024e-05
2.795238095238095077e+00,2.323551074642420548e-05,1.332391941187411580e-04
2.796031746031745868e+00,3.648346844624812376e-05,1.674348975006953954e-04
2.796825396825396659e+00,4.262062083004498106e-05,1.766903763727323143e-04
2.797619047619047450e+00,4.021319776731173255e-05,1.581883249948657874e-04
2.798412698412698241e+00,2.933613209000405681e-05,1.137145818432072300e-04
2.799206349206349032e+00,1.160617762227277963e-05,4.944317338850272758e-05
2.799999999999999822e+00,-1.000177949694927051e-05,-2.517547650749177144e-05
2.800793650793650613e+00,-3.159888398978981356e-05,-9.912570196112800204e-05
2.801587301587301404e+00,-4.907235606063087681e-05,-1.616981085271853354e-04
2.802380952380952195e+00,-5.891403778357669468e-05,-2.041278099529700014e-04
2.803174603174602986e+00,-5.899915335107333092e-05,-2.207770091036972515e-04
2.803968253968253777e+00,-4.910011200545279887e-05,-2.098060350571857955e-04
2.804761904761904567e+00,-3.097083835663238274e-05,-1.733401219332430881e-04
2.805555555555555358e+00,-7.959493564269240999e-06,-1.171073937649850166e-04
2.806349206349206149e+00,1.574363455442240274e-05,-4.950720084970541000e-05
2.807142857142856940e+00,3.600647884922644553e-05,1.983372565189942059e-05
2.807936507936507731e+00,4.956313708266061826e-05,8.177933849527200454e-05
2.808730158730158522e+00,5.455343539339016891e-05,1.293068811941244897e-04
2.809523809523809312e+00,5.072739094366926672e-05,1.586636896735745656e-04
2.810317460317460103e+00,3.933683108328253316e-05,1.697942793508131734e-04
2.811111111111110894e+00,2.277470311264763895e-05,1.659340809248623929e-04
2.811904761904761685e+00,4.037325421394860576e-06,1.524559285238996577e-04
2.812698412698412920e+00,-1.388748106222387222e-05,1.352506864601400142e-04
2.813492063492063711e+00,-2.857096002786768750e-05,1.190699431248034548e-04
2.814285714285714501e+00,-3.850118031143617473e-05,1.062920527442324348e-04
2.815079365079365292e+00,-4.317746357352864793e-05,9.646093263124073047e-05
2.815873015873016083e+00,-4.296262731185597060e-05,8.671874598522458038e-05
2.816666666666666874e+00,-3.878746608945763769e-05,7.298979142750370750e-05
2.817460317460317665e+00,-3.182562471317827675e-05,5.156424984005870575e-05
2.818253968253968456e+00,-2.323353677224880023e-05,2.063537491456171168e-05
2.819047619047619246e+00,-1.400183536571844804e-05,-1.863095713848266749e-05
2.819841269841270037e+00,-4.915382805319751308e-06,-6.180410897610265743e-05
2.820634920634920828e+00,3.415062921527199014e-06,-1.018228895913479752e-04
2.821428571428571619e+00,1.049859163431771072e-05,-1.305036557436299084e-04
2.822222222222222410e+00,1.592807158695595468e-05,-1.406303109689027958e-04
2.823015873015873201e+00,1.938291913944426500e-05,-1.281018639859413154e-04
2.823809523809523991e+00,2.066987921519266672e-05,-9.348941665948386432e-05
2.824603174603174782e+00,1.978491058968132393e-05,-4.244000722479651948e-05
2.825396825396825573e+00,1.696965305325555935e-05,1.532344782483602698e-05
2.826190476190476364e+00,1.273204466554879937e-05,6.821800399175449411e-05
2.826984126984127155e+00,7.804956301862442600e-06,1.056440219623013557e-04
2.827777777777777946e+00,3.033604824529235273e-06,1.206497056692002281e-04
2.828571428571428736e+00,-7.899481987635112412e-07,1.116418688404828736e-04
2.829365079365079527e+00,-3.101164669215217208e-06,8.264156392744491267e-05
2.830158730158730318e+00,-3.692955256384769321e-06,4.202591299678110114e-05
2.830952380952381109e+00,-2.759726827351107049e-06,1.644385512859743572e-07
2.831746031746031900e+00,-8.400928633271515039e-07,-3.332510531116640720e-05
2.832539682539682691e+00,1.327626001900261751e-06,-5.191970236135478130e-05
2.833333333333333481e+00,2.997667102957561004e-06,-5.354366928600499335e-05
2.834126984126984272e+00,3.602157781734497904e-06,-4.067986235055147599e-05
2.834920634920635063e+00,2.875047477119523296e-06,-1.933985027481705893e-05
2.835714285714285854e+00,8.793390989103230852e-07,2.747698703275664359e-06
2.836507936507936645e+00,-2.062904218888953485e-06,1.824715081054674922e-05
2.837301587301587436e+00,-5.501584687983008009e-06,2.213008073188184915e-05
2.838095238095238226e+00,-8.994996814274512309e-06,1.295976258567113481e-05
2.838888888888889017e+00,-1.220444872876031471e-05,-6.762801489768319521e-06
2.839682539682539808e+00,-1.492711878475573142e-05,-3.129365983036005517e-05
2.840476190476190599e+00,-1.707167700379338789e-05,-5.321304428419629858e-05
2.841269841269841390e+00,-1.859008053584005796e-05,-6.544043755708043599e-05
2.842063492063492181e+00,-1.938081130256932952e-05,-6.313285917326922345e-05
2.842857142857142971e+00,-1.919155311997199748e-05,-4.494052251130490082e-05
2.843650793650793762e+00,-1.757363423656132013e-05,-1.330495072806744466e-05
2.844444444444444553e+00,-1.394944109623586798e-05,2.621249416773615960e-05
2.845238095238095344e+00,-7.816521680334069281e-06,6.630713385839233441e-05
2.846031746031746135e+00,9.677785365188937972e-07,9.958976299487169519e-05
2.846825396825396925e+00,1.194930274122698173e-05,1.200894364830743969e-04
2.847619047619047716e+00,2.401821534984351390e-05,1.242616884832808521e-04
2.848412698412698507e+00,3.557413435202802634e-05,1.113358148237787390e-04
2.849206349206349298e+00,4.484308324113185320e-05,8.303389598653262375e-05
2.850000000000000089e+00,5.021000722083145167e-05,4.286530782573119708e-05
2.850793650793650880e+00,5.046434293257033110e-05,-4.712672305603067569e-06
2.851587301587301670e+00,4.494832271692842036e-05,-5.500265866560565198e-05
2.852380952380952461e+00,3.366500655898201934e-05,-1.034903220239239248e-04
2.853174603174603252e+00,1.739081252598446067e-05,-1.459706839231057166e-04
2.853968253968254043e+00,-2.240804162601445761e-06,-1.784882566552089156e-04
2.854761904761904834e+00,-2.279258360317769060e-05,-1.972875868996318499e-04
2.855555555555555625e+00,-4.131838188676191162e-05,-1.989918071359615616e-04
2.856349206349206415e+00,-5.490279062772750955e-05,-1.811386789216304350e-04
2.857142857142857206e+00,-6.130798333809844912e-05,-1.430068920104521216e-04
2.857936507936507997e+00,-5.951138712272381045e-05,-8.645593884592508646e-05
2.858730158730158788e+00,-4.995530397764237244e-05,-1.641550563977875661e-05
2.859523809523809579e+00,-3.444555745987857150e-05,5.925378244781997241e-05
2.860317460317460370e+00,-1.574933745367776140e-05,1.306198939590480133e-04
2.861111111111111160e+00,2.990824701032180842e-06,1.871653547617703494e-04
2.861904761904761951e+00,1.888499845687955725e-05,2.196574789020266786e-04
2.862698412698412742e+00,2.983042138209000545e-05,2.220437246330636788e-04
2.863492063492063533e+00,3.485156632654357175e-05,1.929479630809892063e-04
2.864285714285714324e+00,3.419010681703642018e-05,1.363739765362094708e-04
2.865079365079365115e+00,2.912951250321971493e-05,6.136093349308650922e-05
2.865873015873015905e+00,2.158434885019126610e-05,-1.945428858993791728e-05
2.866666666666666696e+00,1.355266384476879293e-05,-9.217929883139658494e-05
2.867460317460317487e+00,6.598538694417699454e-06,-1.444976881891094273e-04
2.868253968253968278e+00,1.541673902012152150e-06,-1.683885077454254310e-04
2.869047619047619069e+00,-1.549495320804177436e-06,-1.620501204914933378e-04
2.869841269841269860e+00,-3.096883966266618458e-06,-1.304361312953010161e-04
2.870634920634920650e+00,-3.628209844991897999e-06,-8.410133926372444061e-05
2.871428571428571441e+00,-3.446156868181269243e-06,-3.650639623534071392e-05
2.872222222222222232e+00,-2.484867260715350190e-06,-4.362697838182404795e-07
2.873015873015873023e+00,-3.972645321892871149e-07,1.543111984664961132e-05
2.873809523809523814e+00,3.182463568647887881e-06,8.721685564068344134e-06
2.874603174603174605e+00,8.330710817088191677e-06,-1.637424072302015376e-05
2.875396825396825395e+00,1.462943968617589934e-05,-5.079006873528695942e-05
2.876190476190476186e+00,2.116497244676778032e-05,-8.354396171234988906e-05
2.876984126984126977e+00,2.673508309384940509e-05,-1.049207119343763115e-04
2.877777777777777768e+00,3.017484217612881848e-05,-1.088886884292988698e-04
2.878571428571428559e+00,3.066944297090257421e-05,-9.416978960418261524e-05
2.879365079365079350e+00,2.794648309615652628e-05,-6.389334611539900248e-05
2.880158730158730140e+00,2.230539603863790661e-05,-2.418630578342688460e-05
2.880952380952380931e+00,1.450657935715236738e-05,1.772556722028607802e-05
2.881746031746031722e+00,5.578990759802628421e-06,5.532473764595296708e-05
2.882539682539682513e+00,-3.390725035709229863e-06,8.409110310832739615e-05
2.883333333333333304e+00,-1.143957224280359331e-05,1.020705764425312173e-04
2.884126984126984095e+00,-1.785291126872890361e-05,1.097368652771441868e-04
2.884920634920634885e+00,-2.222443318308674800e-05,1.093298919788405306e-04
2.885714285714285676e+00,-2.445738857782490865e-05,1.039500465128950362e-04
2.886507936507936467e+00,-2.472150185643707951e-05,9.668690330764033263e-05
2.887301587301587258e+00,-2.338291067392174745e-05,8.997091885316870353e-05
2.888095238095238049e+00,-2.092326072017609972e-05,8.521038203103284501e-05
2.888888888888888840e+00,-1.786102657099661071e-05,8.268422248112485516e-05
2.889682539682539630e+00,-1.468443517906561307e-05,8.163670433636909733e-05
2.890476190476190421e+00,-1.180124827417334632e-05,8.053652128259490550e-05
2.891269841269841212e+00,-9.506860743152917385e-06,7.747278108979285414e-05
2.892063492063492003e+00,-7.969621341895448627e-06,7.064207740855473730e-05
2.892857142857142794e+00,-7.230959215390584531e-06,5.884649968204558318e-05
2.893650793650793585e+00,-7.217493584254624406e-06,4.189503762407641895e-05
2.894444444444444375e+00,-7.762920997906067408e-06,2.079803711429624842e-05
2.895238095238095166e+00,-8.638500940531481818e-06,-2.321912158005507419e-06
2.896031746031745957e+00,-9.590429531269882679e-06,-2.460856175944923583e-05
2.896825396825396748e+00,-1.037910468303799156e-05,-4.306010611491451476e-05
2.897619047619047539e+00,-1.081124934832400853e-05,-5.517991835024592065e-05
2.898412698412698330e+00,-1.075530791762333408e-05,-5.951744264698032152e-05
2.899206349206349120e+00,-1.013610895627256516e-05,-5.595075608410175159e-05
2.899999999999999911e+00,-8.914809402918835699e-06,-4.563846684028802442e-05
2.900793650793650702e+00,-7.069191691338765368e-06,-3.067920910103341290e-05
2.901587301587301493e+00,-4.591502875795869987e-06,-1.361296237598626095e-05
2.902380952380952284e+00,-1.513455230486160922e-06,3.068625766031057962e-06
2.903174603174603075e+00,2.046817702792966076e-06,1.727387412366855141e-05
2.903968253968253865e+00,5.836960909808786603e-06,2.747454463676817825e-05
2.904761904761904656e+00,9.452835770613358046e-06,3.271064343794373084e-05
2.905555555555555447e+00,1.237998585453087174e-05,3.251675044276968498e-05
2.906349206349206238e+00,1.410414411560717633e-05,2.685847640062533854e-05
2.907142857142857029e+00,1.426811318298883599e-05,1.613502091935944930e-05
2.907936507936507819e+00,1.282016787901621956e-05,1.245173693041128030e-06
2.908730158730158610e+00,1.008872940426961822e-05,-1.634323655018846683e-05
2.909523809523809401e+00,6.740544996164104425e-06,-3.460735637805021465e-05
2.910317460317460192e+00,3.624049818061752121e-06,-5.113662848294952721e-05
2.911111111111110983e+00,1.542146010713953543e-06,-6.347026478405796122e-05
2.911904761904761774e+00,1.021384701133809988e-06,-6.955288773444926549e-05
2.912698412698412564e+00,2.143085387830427187e-06,-6.819646042004072538e-05
2.913492063492063355e+00,4.481512020740896518e-06,-5.941175185613385403e-05
2.914285714285714146e+00,7.165295095260196160e-06,-4.449694826251571254e-05
2.915079365079364937e+00,9.051856758447829440e-06,-2.583456597280866889e-05
2.915873015873015728e+00,8.985811036665757116e-06,-6.425819321667810572e-06
2.916666666666666519e+00,6.098986430069364033e-06,1.073403667476017555e-05
2.917460317460317309e+00,9.770260389020727599e-08,2.327558678024208147e-05
2.918253968253968100e+00,-8.528415998267195868e-06,2.988466655155828941e-05
2.919047619047618891e+00,-1.844718643863018436e-05,3.040952603751001577e-05
2.919841269841269682e+00,-2.763391034573688094e-05,2.564732600427663075e-05
2.920634920634920473e+00,-3.375178225787374799e-05,1.695544938791593740e-05
2.921428571428571264e+00,-3.471671242140901364e-05,5.884734302129679774e-06
2.922222222222222054e+00,-2.932044687247187134e-05,-6.048089723660715183e-06
2.923015873015872845e+00,-1.772428646711358882e-05,-1.746824991288248858e-05
2.923809523809523636e+00,-1.631343664910382487e-06,-2.722619918659516909e-05
2.924603174603174427e+00,1.597835375601259342e-05,-3.452162343009653850e-05
2.925396825396825218e+00,3.152379966485485116e-05,-3.905258852914656430e-05
2.926190476190476009e+00,4.173239031028336748e-05,-4.111512758470307855e-05
2.926984126984126799e+00,4.450992660089474423e-05,-4.156724680112707161e-05
2.927777777777777590e+00,3.949957540995992342e-05,-4.160118364091182065e-05
2.928571428571428381e+00,2.815720088030672437e-05,-4.233475730566558365e-05
2.929365079365079172e+00,1.333181993636199424e-05,-4.432835575154437952e-05
2.930158730158729963e+00,-1.502153279222767783e-06,-4.721757873778398604e-05
2.930952380952380754e+00,-1.312386099700709529e-05,-4.965738546804997851e-05
2.931746031746031544e+00,-1.931776726726300446e-05,-4.966556951701439913e-05
2.932539682539682335e+00,-1.932391773909246534e-05,-4.527220824388802461e-05
2.933333333333333126e+00,-1.390646113183887888e-05,-3.523049856150113119e-05
2.934126984126983917e+00,-5.058231249059423890e-06,-1.951416636354840506e-05
2.934920634920634708e+00,4.558126366949107789e-06,5.716249550319861418e-07
2.935714285714285499e+00,1.228164057676187658e-05,2.267466071565268107e-05
2.936507936507936289e+00,1.607772759132251717e-05,4.394768351100966403e-05
2.937301587301587080e+00,1.498469856029179495e-05,6.168276524138358952e-05
2.938095238095238315e+00,9.298676647919051184e-06,7.385989626747257748e-05
2.938888888888889106e+00,4.678179205294073330e-07,7.949946304889881786e-05
2.939682539682539897e+00,-9.277135791867631518e-06,7.877420444702333167e-05
2.940476190476190688e+00,-1.747248544484923707e-05,7.289057388999870284e-05
2.941269841269841478e+00,-2.202052215753587045e-05,6.378386726035552637e-05
2.942063492063492269e+00,-2.168750398073271391e-05,5.368880587791276021e-05
2.942857142857143060e+00,-1.637423732501607716e-05,4.465917401505726066e-05
2.943650793650793851e+00,-7.097381131856224383e-06,3.812527890199510477e-05
2.944444444444444642e+00,4.295947308324974255e-06,3.458916603687374073e-05
2.945238095238095433e+00,1.558303965452069464e-05,3.354380051679044304e-05
2.946031746031746223e+00,2.465591754370701535e-05,3.365039881851529280e-05
2.946825396825397014e+00,2.992556980631512018e-05,3.313246735138791635e-05
2.947619047619047805e+00,3.056549955524740479e-05,3.028174195641429340e-05
2.948412698412698596e+00,2.657338072770659536e-05,2.394579437602053490e-05
2.949206349206349387e+00,1.867207055960672796e-05,1.387757117282222753e-05
2.950000000000000178e+00,8.099834670039241048e-06,8.605044628832668418e-07
2.950793650793650968e+00,-3.647067129541647362e-06,-1.342386863601316508e-05
2.951587301587301759e+00,-1.506162887644126527e-05,-2.674820700937632095e-05
2.952380952380952550e+00,-2.482603911410814429e-05,-3.681106716398194011e-05
2.953174603174603341e+00,-3.195135270993198682e-05,-4.170786066859581920e-05
2.953968253968254132e+00,-3.585904347887398089e-05,-4.031102757765597994e-05
2.954761904761904923e+00,-3.640770523161916119e-05,-3.251617188861757527e-05
2.955555555555555713e+00,-3.386127318313352408e-05,-1.933629288438558705e-05
2.956349206349206504e+00,-2.879288938887082706e-05,-2.822383060398777852e-06
2.957142857142857295e+00,-2.193163708318689205e-05,1.421860882565576174e-05
2.957936507936508086e+00,-1.398775318523349484e-05,2.871214634710251261e-05
2.958730158730158877e+00,-5.518996784291385469e-06,3.794289776209164034e-05
2.959523809523809668e+00,3.100133483442502071e-06,4.016462426284508148e-05
2.960317460317460458e+00,1.158858094568851932e-05,3.499909923132405988e-05
2.961111111111111249e+00,1.960055690472093892e-05,2.348691588500248804e-05
2.961904761904762040e+00,2.660244926776350843e-05,7.781436020745651101e-06
2.962698412698412831e+00,3.187827092296508094e-05,-9.403392855902141398e-06
2.963492063492063622e+00,3.468379502863593543e-05,-2.542777140109110835e-05
2.964285714285714413e+00,3.448170194887291955e-05,-3.828641707324346045e-05
2.965079365079365203e+00,3.114925441068985124e-05,-4.697078964035588918e-05
2.965873015873015994e+00,2.507437458717051392e-05,-5.155616834138788658e-05
2.966666666666666785e+00,1.711176883249698115e-05,-5.300166633984890175e-05
2.967460317460317576e+00,8.418689329656933458e-06,-5.273098210580154160e-05
2.968253968253968367e+00,2.192004784823946777e-07,-5.213036410665937095e-05
2.969047619047619158e+00,-6.439481945992631105e-06,-5.212143674853786623e-05
2.969841269841269948e+00,-1.087650273847756940e-05,-5.292357436465190354e-05
2.970634920634920739e+00,-1.287118241799489331e-05,-5.403789908241933852e-05
2.971428571428571530e+00,-1.265133446365909463e-05,-5.441336856296821278e-05
2.972222222222222321e+00,-1.079401191632179622e-05,-5.272940914783762217e-05
2.973015873015873112e+00,-8.071121332626093284e-06,-4.773710864409932595e-05
2.973809523809523903e+00,-5.275709707174670800e-06,-3.860183051592861082e-05
2.974603174603174693e+00,-3.062789720770008967e-06,-2.517055984770529868e-05
2.975396825396825484e+00,-1.833663685226565216e-06,-8.080994424897196252e-06
2.976190476190476275e+00,-1.684428171228195479e-06,1.132901062281946548e-05
2.976984126984127066e+00,-2.427355363161111397e-06,3.127686673656041559e-05
2.977777777777777857e+00,-3.678625218854272985e-06,4.986029261661824644e-05
2.978571428571428648e+00,-4.989806455947238086e-06,6.535019667259348345e-05
2.979365079365079438e+00,-5.988766189709000680e-06,7.639099128369293979e-05
2.980158730158730229e+00,-6.493460498757798264e-06,8.209896226241621847e-05
2.980952380952381020e+00,-6.569834853924867105e-06,8.208073126258923268e-05
2.981746031746031811e+00,-6.518702729829733145e-06,7.640640683409107383e-05
2.982539682539682602e+00,-6.791503331461416559e-06,6.557515905645308889e-05
2.983333333333333393e+00,-7.849426820466606796e-06,5.049856360641079230e-05
2.984126984126984183e+00,-9.994535891737250328e-06,3.249140139612070546e-05
2.984920634920634974e+00,-1.321447472660417365e-05,1.321991582338355151e-05
2.985714285714285765e+00,-1.709022411231554908e-05,-5.447919625158700416e-06
2.986507936507936556e+00,-2.081128526460328484e-05,-2.170019485195519423e-05
2.987301587301587347e+00,-2.331714421918639163e-05,-3.408747038583326505e-05
2.988095238095238138e+00,-2.354134866732609060e-05,-4.177527739901809551e-05
2.988888888888888928e+00,-2.069520847007389695e-05,-4.465757863825027345e-05
2.989682539682539719e+00,-1.451307783081684750e-05,-4.330915314636980736e-05
2.990476190476190510e+00,-5.389555391291368849e-06,-3.881095602760030217e-05
2.991269841269841301e+00,5.641818614188409667e-06,-3.249734674893871609e-05
2.992063492063492092e+00,1.710316196979883889e-05,-2.566788086683147906e-05
2.992857142857142883e+00,2.739319351537305452e-05,-1.931606740357597228e-05
2.993650793650793673e+00,3.512833163700716240e-05,-1.394762540173574320e-05
2.994444444444444464e+00,3.939116367426280556e-05,-9.550301260692195939e-06
2.995238095238095255e+00,3.982702404572160081e-05,-5.721051835757444006e-06
2.996031746031746046e+00,3.659917922784259567e-05,-1.890737951643736656e-06
2.996825396825396837e+00,3.025683985697708839e-05,2.441983253876524730e-06
2.997619047619047628e+00,2.157932098591978080e-05,7.537947698632129979e-06
2.998412698412698418e+00,1.144609190945554762e-05,1.333859905699308815e-05
2.999206349206349209e+00,7.579713201607671984e-07,1.948246490244819073e-05
3.000000000000000000e+00,-9.593252323645599269e-06,2.539866884030886809e-05
3.000793650793650791e+00,-1.873232744832144459e-05,3.044316574671825028e-05
3.001587301587301582e+00,-2.581952912358822093e-05,3.403130901654567584e-05
3.002380952380952372e+00,-3.010854250898863002e-05,3.572350992156013964e-05
3.003174603174603163e+00,-3.105290416697244009e-05,3.524625591496771898e-05
3.003968253968253954e+00,-2.844623363515282486e-05,3.246690043447649632e-05
3.004761904761904745e+00,-2.255356829340806195e-05,2.736510082539652733e-05
3.005555555555555536e+00,-1.416993888538682129e-05,2.004357340332148883e-05
3.006349206349206327e+00,-4.546988294817707753e-06,1.079636534835568582e-05
3.007142857142857117e+00,4.827409427401427693e-06,2.117573634482836920e-07
3.007936507936507908e+00,1.254184003827940282e-05,-1.075315365629371994e-05
3.008730158730158699e+00,1.756015891287667746e-05,-2.080193915849540734e-05
3.009523809523809490e+00,1.940663314846647990e-05,-2.847846297440020856e-05
3.010317460317460281e+00,1.819684058348729672e-05,-3.248208799195797012e-05
3.011111111111111072e+00,1.453886422098845193e-05,-3.204075025401379318e-05
3.011904761904761862e+00,9.359186105630602475e-06,-2.722356247405245902e-05
3.012698412698412653e+00,3.702120138743924140e-06,-1.907095217907975269e-05
3.013492063492063444e+00,-1.463389302124358822e-06,-9.459227689882505801e-06
3.014285714285714235e+00,-5.403229993288068340e-06,-6.919888693658222716e-07
3.015079365079365026e+00,-7.720353303316148622e-06,5.095877899662869531e-06
3.015873015873015817e+00,-8.383992090790603195e-06,6.552918190637089580e-06
3.016666666666666607e+00,-7.685157535326419745e-06,3.539597428680513839e-06
3.017460317460317398e+00,-6.134486114040006756e-06,-2.790591068483855937e-06
3.018253968253968189e+00,-4.329630607884287763e-06,-1.029645675107424999e-05
3.019047619047618980e+00,-2.821722926309008595e-06,-1.643402086170554359e-05
3.019841269841269771e+00,-2.005612278867242494e-06,-1.892091538423041274e-05
3.020634920634920562e+00,-2.050195732019642328e-06,-1.628274573488929742e-05
3.021428571428571352e+00,-2.876366758209644055e-06,-8.162513987625135100e-06
3.022222222222222143e+00,-4.182413612065389892e-06,4.630984414730902829e-06
3.023015873015872934e+00,-5.509964446097678743e-06,2.029626270394344805e-05
3.023809523809523725e+00,-6.337398508874557042e-06,3.636837947493461073e-05
3.024603174603174516e+00,-6.182817435426424495e-06,5.013477439460487629e-05
3.025396825396825307e+00,-4.697031354730905691e-06,5.907373855054054359e-05
3.026190476190476097e+00,-1.729799832393396582e-06,6.126088516552279485e-05
3.026984126984126888e+00,2.640802472426786289e-06,5.569519202701039644e-05
3.027777777777777679e+00,8.117619373317261141e-06,4.249772345905624912e-05
3.028571428571428470e+00,1.422629086297482793e-05,2.294244430895841453e-05
3.029365079365079261e+00,2.037899242448314556e-05,-7.001535211834078788e-07
3.030158730158730052e+00,2.594819932078500820e-05,-2.549113062075703261e-05
3.030952380952380842e+00,3.034029855539873040e-05,-4.827141794438766822e-05
3.031746031746031633e+00,3.306072099070604030e-05,-6.615426347816652096e-05
3.032539682539682424e+00,3.376266214208224563e-05,-7.697757336432496341e-05
3.033333333333333215e+00,3.227185684060410078e-05,-7.963811395386930230e-05
3.034126984126984006e+00,2.858382711475997037e-05,-7.424660448758878934e-05
3.034920634920634797e+00,2.283881583584107379e-05,-6.207076263693132878e-05
3.035714285714285587e+00,1.528922106830494018e-05,-4.527290750829771976e-05
3.036507936507936378e+00,6.278011799626125901e-06,-2.649334162953039193e-05
3.037301587301587169e+00,-3.759428376283949558e-06,-8.366326844350025586e-06
3.038095238095237960e+00,-1.427133847772890380e-05,6.931056102441357332e-06
3.038888888888888751e+00,-2.456018239599255120e-05,1.800949247858845087e-05
3.039682539682539542e+00,-3.377419732055573381e-05,2.442329475602092811e-05
3.040476190476190332e+00,-4.094459633117986368e-05,2.664115744496003496e-05
3.041269841269841123e+00,-4.507937658410723404e-05,2.586122575450987897e-05
3.042063492063491914e+00,-4.530499101140287557e-05,2.372114629788122121e-05
3.042857142857142705e+00,-4.103087634012565456e-05,2.195237391709324755e-05
3.043650793650793496e+00,-3.210438373663317059e-05,2.201853939515820632e-05
3.044444444444444287e+00,-1.892386543859611762e-05,2.478110295350578944e-05
3.045238095238095077e+00,-2.482082716710822751e-06,3.025456708332145505e-05
3.046031746031745868e+00,1.568071693116240519e-05,3.752629103125845891e-05
3.046825396825396659e+00,3.362379606720186328e-05,4.489663329833231900e-05
3.047619047619047450e+00,4.924611307643743721e-05,5.023874190775828706e-05
3.048412698412698241e+00,6.059008374525860606e-05,5.150531795046932039e-05
3.049206349206349032e+00,6.615545373311406167e-05,4.725500404696842245e-05
3.049999999999999822e+00,6.515525311275058935e-05,3.705685349127722458e-05
3.050793650793650613e+00,5.765044708973480060e-05,2.166097638346320186e-05
3.051587301587301404e+00,4.452676484694854567e-05,2.885119278504310676e-06
3.052380952380952195e+00,2.731985778382948476e-05,-1.675814145565409646e-05
3.053174603174602986e+00,7.938097173405272316e-06,-3.460157086806118609e-05
3.053968253968253777e+00,-1.164303784988500006e-05,-4.839637231948817615e-05
3.054761904761904567e+00,-2.964612277674076699e-05,-5.677464785319074676e-05
3.055555555555555358e+00,-4.467640734171731998e-05,-5.948301109673031855e-05
3.056349206349206149e+00,-5.581901044447061462e-05,-5.732702961174064658e-05
3.057142857142856940e+00,-6.266242650898527886e-05,-5.184785113856017844e-05
3.057936507936507731e+00,-6.526653379198825325e-05,-4.483631052257769882e-05
3.058730158730158522e+00,-6.408924552863114752e-05,-3.784494892814623728e-05
3.059523809523809312e+00,-5.988245944710564583e-05,-3.185765273991392199e-05
3.060317460317460103e+00,-5.356876604872358634e-05,-2.721288680525670630e-05
3.061111111111110894e+00,-4.611344373716078912e-05,-2.376986430231140440e-05
3.061904761904761685e+00,-3.840703396411017698e-05,-2.120103664021231717e-05
3.062698412698412920e+00,-3.116970509922388678e-05,-1.924274933198913789e-05
3.063492063492063711e+00,-2.488275275743244045e-05,-1.777358402898638389e-05
3.064285714285714501e+00,-1.975126604545484956e-05,-1.670051787260766742e-05
3.065079365079365292e+00,-1.570592395549019450e-05,-1.575366994551796930e-05
3.065873015873016083e+00,-1.245257821738708397e-05,-1.435323449559648690e-05
3.066666666666666874e+00,-9.568147201627567918e-06,-1.167888509299062094e-05
3.067460317460317665e+00,-6.624316119417416107e-06,-6.951412662344019502e-06
3.068253968253968456e+00,-3.307649025073649686e-06,2.025733374818594430e-07
3.069047619047619246e+00,4.969235865012436749e-07,9.491542229791965081e-06
3.069841269841270037e+00,4.682196515012616552e-06,1.993264610298250159e-05
3.070634920634920828e+00,8.958628906481494727e-06,3.006030144881094782e-05
3.071428571428571619e+00,1.294112834323969727e-05,3.827569364151163527e-05
3.072222222222222410e+00,1.625046437565766660e-05,4.321512043841455703e-05
3.073015873015873201e+00,1.859545558927365753e-05,4.403839899082325756e-05
3.073809523809523991e+00,1.981542717095455630e-05,4.058501469293652932e-05
3.074603174603174782e+00,1.988405087193695068e-05,3.339580798485859985e-05
3.075396825396825573e+00,1.889358406944625376e-05,2.363436313850750248e-05
3.076190476190476364e+00,1.704220001667196068e-05,1.295088626454692081e-05
3.076984126984127155e+00,1.463393029641457983e-05,3.312710887343594955e-06
3.077777777777777946e+00,1.207822123272218006e-05,-3.202235094984346362e-06
3.078571428571428736e+00,9.858368469180527494e-06,-4.665774499751375192e-06
3.079365079365079527e+00,8.438953876228544719e-06,3.825108458989987859e-07
3.080158730158730318e+00,8.108906805335796471e-06,1.258762703537183678e-05
3.080952380952381109e+00,8.803724317028149550e-06,3.146584939394302322e-05
3.081746031746031900e+00,9.995752030216742100e-06,5.521625048584052610e-05
3.082539682539682691e+00,1.075120319729294479e-05,8.075185828803795854e-05
3.083333333333333481e+00,1.000157371291810115e-05,1.040162943096755089e-04
3.084126984126984272e+00,6.975051194486223298e-06,1.205887295876874158e-04
3.084920634920635063e+00,1.632234749464340888e-06,1.264973591554383189e-04
3.085714285714285854e+00,-5.085548849786627971e-06,1.190830817006818083e-04
3.086507936507936645e+00,-1.133196065705313014e-05,9.770382655574040619e-05
3.087301587301587436e+00,-1.477774537722310652e-05,6.406748575242140846e-05
3.088095238095238226e+00,-1.327999311848546988e-05,2.204773162756548121e-05
3.088888888888889017e+00,-5.604154006558383474e-06,-2.302558219748237334e-05
3.089682539682539808e+00,8.041119174439928866e-06,-6.543978933253787066e-05
3.090476190476190599e+00,2.586436010118736546e-05,-1.002461474381385908e-04
3.091269841269841390e+00,4.483463420412249126e-05,-1.241649043254995611e-04
3.092063492063492181e+00,6.142177242832078902e-05,-1.360223257944432012e-04
3.092857142857142971e+00,7.249524345327369756e-05,-1.366544083559402317e-04
3.093650793650793762e+00,7.608685818749020419e-05,-1.283822536210020939e-04
3.094444444444444553e+00,7.178891908381022219e-05,-1.142764107796656012e-04
3.095238095238095344e+00,6.070907596447419022e-05,-9.743906784661904286e-05
3.096031746031746135e+00,4.505630526882412507e-05,-8.045938366468053423e-05
3.096825396825396925e+00,2.752722520777788469e-05,-6.509969264626688833e-05
3.097619047619047716e+00,1.068370844830505979e-05,-5.219997034756179553e-05
3.098412698412698507e+00,-3.523555397514169235e-06,-4.175573265723444438e-05
3.099206349206349298e+00,-1.400175241041555128e-05,-3.311694019216617239e-05
3.100000000000000089e+00,-2.052679085060940228e-05,-2.525753514618118905e-05
3.100793650793650880e+00,-2.357134051864670179e-05,-1.706737865344800401e-05
3.101587301587301670e+00,-2.403193107429099404e-05,-7.618198635970736593e-06
3.102380952380952461e+00,-2.293844684714210910e-05,3.639887651207893087e-06
3.103174603174603252e+00,-2.121251997192956392e-05,1.677611764205655769e-05
3.103968253968254043e+00,-1.951456857122248244e-05,3.136923784698616291e-05
3.104761904761904834e+00,-1.818934425183799190e-05,4.656950490247729082e-05
3.105555555555555625e+00,-1.729355137549150719e-05,6.120854379954043280e-05
3.106349206349206415e+00,-1.667305576239808083e-05,7.393832453328291982e-05
3.107142857142857206e+00,-1.605524250531072849e-05,8.338614196145390834e-05
3.107936507936507997e+00,-1.513216764574421076e-05,8.831538233024023197e-05
3.108730158730158788e+00,-1.362514587813434449e-05,8.778145332649039229e-05
3.109523809523809579e+00,-1.133352819485989640e-05,8.126968396724644386e-05
3.110317460317460370e+00,-8.175025686092452670e-06,6.880087253838436390e-05
3.111111111111111160e+00,-4.221637756430958196e-06,5.099240835311175753e-05
3.111904761904761951e+00,2.725009110702898189e-07,2.906509875726672837e-05
3.112698412698412742e+00,4.861512765247473797e-06,4.784287182242255198e-06
3.113492063492063533e+00,8.927518903396787644e-06,-1.967748424875407669e-05
3.114285714285714324e+00,1.173662113858313964e-05,-4.196080328471665539e-05
3.115079365079365115e+00,1.253202380117917529e-05,-5.980722933346817560e-05
3.115873015873015905e+00,1.065965939784431966e-05,-7.137741439714641724e-05
3.116666666666666696e+00,5.715943529076841578e-06,-7.554868679914014478e-05
3.117460317460317487e+00,-2.301170961639133895e-06,-7.213383997721802552e-05
3.118253968253968278e+00,-1.286964465113998984e-05,-6.195907479114438183e-05
3.119047619047619069e+00,-2.489480226234575802e-05,-4.675260128096756385e-05
3.119841269841269860e+00,-3.678248321925182458e-05,-2.884160307804691680e-05
3.120634920634920650e+00,-4.665913576038241623e-05,-1.072019326638912122e-05
3.121428571428571441e+00,-5.271724403485158165e-05,5.403835515293741725e-06
3.122222222222222232e+00,-5.361259919222424036e-05,1.797433484175186083e-05
3.123015873015873023e+00,-4.880953596891846410e-05,2.628829096473333168e-05
3.123809523809523814e+00,-3.877588570172373517e-05,3.050248988071817499e-05
3.124603174603174605e+00,-2.496601510860034612e-05,3.145774141360866913e-05
3.125396825396825395e+00,-9.582299308864225347e-06,3.037161975898572673e-05
3.126190476190476186e+00,4.841174103099381627e-06,2.847981379484027480e-05
3.126984126984126977e+00,1.594351433370554214e-05,2.671672983888099089e-05
3.127777777777777768e+00,2.201456373535959804e-05,2.551207126508103429e-05
3.128571428571428559e+00,2.233252623510574236e-05,2.474601472389993868e-05
3.129365079365079350e+00,1.728568069264273897e-05,2.386283207531661332e-05
3.130158730158730140e+00,8.257736214438237923e-06,2.210253981226018198e-05
3.130952380952380931e+00,-2.689779251147799915e-06,1.878073686468881008e-05
3.131746031746031722e+00,-1.326323005560443063e-05,1.353557854246571304e-05
3.132539682539682513e+00,-2.140815021841624037e-05,6.473057353288808273e-06
3.133333333333333304e+00,-2.569586423212010987e-05,-1.824145558477052046e-06
3.134126984126984095e+00,-2.553776794401396193e-05,-1.041390891567177821e-05
3.134920634920634885e+00,-2.119030128370923922e-05,-1.818891116558906757e-05
3.135714285714285676e+00,-1.357301055413440662e-05,-2.408206157661489145e-05
3.136507936507936467e+00,-3.968031718678861360e-06,-2.722811408074650842e-05
3.137301587301587258e+00,6.308655887388368856e-06,-2.705631671302028432e-05
3.138095238095238049e+00,1.617599242200722058e-05,-2.332149757832022391e-05
3.138888888888888840e+00,2.493225439739398021e-05,-1.610144555273016842e-05
3.139682539682539630e+00,3.225211414103034948e-05,-5.789436886590654046e-06
3.140476190476190421e+00,3.806162172922541526e-05,6.905790422691578898e-06
3.141269841269841212e+00,4.235433405047805608e-05,2.096360036892974061e-05
3.142063492063492003e+00,4.502416733716697178e-05,3.508508936270531914e-05
3.142857142857142794e+00,4.577503026431056988e-05,4.778172791664873269e-05
3.143650793650793585e+00,4.413563768430124097e-05,5.752568662183652479e-05
3.144444444444444375e+00,3.957529390174227801e-05,6.294183005413693489e-05
3.145238095238095166e+00,3.169082486947116567e-05,6.299886872341721304e-05
3.146031746031745957e+00,2.041664184013372750e-05,5.715198117268442300e-05
3.146825396825396748e+00,6.199279336572452489e-06,4.540748822782511254e-05
3.147619047619047539e+00,-9.921262265875998939e-06,2.831409775589520975e-05
3.148412698412698330e+00,-2.636368926798961297e-05,6.915030376424551484e-06
3.149206349206349120e+00,-4.119843770872596834e-05,-1.729966365537743674e-05
3.149999999999999911e+00,-5.244959903880141110e-05,-4.242818511607136464e-05
3.150793650793650702e+00,-5.844294959255403774e-05,-6.621130265561069039e-05
3.151587301587301493e+00,-5.812615453129432827e-05,-8.616968040867836862e-05
3.152380952380952284e+00,-5.129609593003425940e-05,-9.988010705072682984e-05
3.153174603174603075e+00,-3.868817581848758960e-05,-1.053900318254055301e-04
3.153968253968253865e+00,-2.190513733204081092e-05,-1.016845069874718586e-04
3.154761904761904656e+00,-3.188022909284859086e-06,-8.904945104017675923e-05
3.155555555555555447e+00,1.493781203639526155e-05,-6.916442149295623683e-05
3.156349206349206238e+00,3.007712588654418021e-05,-4.482563716631447309e-05
3.157142857142857029e+00,4.035505289816447528e-05,-1.933061203405401474e-05
3.157936507936507819e+00,4.470209685273765575e-05,4.296959840254655069e-06
3.158730158730158610e+00,4.297993334781939075e-05,2.396751570395643950e-05
3.159523809523809401e+00,3.593259515772460427e-05,3.881226445874143911e-05
3.160317460317460192e+00,2.498438484462257313e-05,4.897709351195771448e-05
3.161111111111110983e+00,1.193573564918252794e-05,5.501839710214289682e-05
3.161904761904761774e+00,-1.371387814196713619e-06,5.719067891924950009e-05
3.162698412698412564e+00,-1.334375305857099403e-05,5.499454995972118473e-05
3.163492063492063355e+00,-2.282891370553921030e-05,4.725677500929335704e-05
3.164285714285714146e+00,-2.919329610651049292e-05,3.276514441573142374e-05
3.165079365079364937e+00,-3.230521577610822703e-05,1.119543558055812726e-05
3.165873015873015728e+00,-3.245622729996972846e-05,-1.610548770326964465e-05
3.166666666666666519e+00,-3.024898780160636261e-05,-4.588397312263587220e-05
3.167460317460317309e+00,-2.646654871787256188e-05,-7.347039196671429392e-05
3.168253968253968100e+00,-2.192822433138695665e-05,-9.386616338691096027e-05
3.169047619047618891e+00,-1.733792839182390113e-05,-1.030460512405552041e-04
3.169841269841269682e+00,-1.314222972551807698e-05,-9.901334655985243906e-05
3.170634920634920473e+00,-9.428956890550474810e-06,-8.225839097350916697e-05
3.171428571428571264e+00,-5.901549760067850977e-06,-5.551381239266937325e-05
3.172222222222222054e+00,-1.952966283404900768e-06,-2.295849474918020201e-05
3.173015873015872845e+00,3.163331042655512457e-06,1.081317010426505614e-05
3.173809523809523636e+00,1.010029234721553767e-05,4.172416234191246446e-05
3.174603174603174427e+00,1.918152360479317831e-05,6.682547650225281440e-05
3.175396825396825218e+00,3.022909148178058733e-05,8.451675666060426504e-05
3.176190476190476009e+00,4.251142576221298829e-05,9.444060887531030221e-05
3.176984126984126799e+00,5.484236078273742657e-05,9.718328303203523522e-05
3.177777777777777590e+00,6.581659771990112961e-05,9.392045482418796441e-05
3.178571428571428381e+00,7.411152878029303947e-05,8.611113308642100964e-05
3.179365079365079172e+00,7.875489305529572836e-05,7.529143255483490831e-05
3.180158730158729963e+00,7.927686793376139231e-05,6.297133899282227466e-05
3.180952380952380754e+00,7.571853675230159084e-05,5.059957982680800113e-05
3.181746031746031544e+00,6.852046925397909977e-05,3.953954486355989854e-05
3.182539682539682335e+00,5.834629859665263919e-05,3.100065117762516257e-05
3.183333333333333126e+00,4.590713853977565918e-05,2.589854610803986418e-05
3.184126984126983917e+00,3.184416909720176494e-05,2.466415068602699002e-05
3.184920634920634708e+00,1.669750503885507602e-05,2.706302249425673355e-05
3.185714285714285499e+00,9.495746381320986940e-07,3.210204467976827269e-05
3.186507936507936289e+00,-1.489914967462822039e-05,3.808554907963818733e-05
3.187301587301587080e+00,-3.027153594912004368e-05,4.284777815525338696e-05
3.188095238095238315e+00,-4.450707984597449695e-05,4.414310367345025747e-05
3.188888888888889106e+00,-5.691497571563156537e-05,4.012408144610881994e-05
3.189682539682539897e+00,-6.686791400996989175e-05,2.979125270385576222e-05
3.190476190476190688e+00,-7.390184870268164227e-05,1.328214678225193210e-05
3.191269841269841478e+00,-7.778783134597652194e-05,-8.098714376597913479e-06
3.192063492063492269e+00,-7.855596680444822187e-05,-3.212775402315162809e-05
3.192857142857143060e+00,-7.647005442049476735e-05,-5.611773546462833122e-05
3.193650793650793851e+00,-7.196631005456685496e-05,-7.745083091003973283e-05
3.194444444444444642e+00,-6.557611534045884691e-05,-9.404920427077259940e-05
3.195238095238095433e+00,-5.785153133739503377e-05,-1.046725184030265098e-04
3.196031746031746223e+00,-4.930717237447366364e-05,-1.089826707561593637e-04
3.196825396825397014e+00,-4.038567096196947015e-05,-1.073780544543266282e-04
3.197619047619047805e+00,-3.144663144999842633e-05,-1.006665364078102612e-04
3.198412698412698596e+00,-2.277146398653869688e-05,-8.970142033790018865e-05
3.199206349206349387e+00,-1.457209645639483811e-05,-7.512276950964958061e-05
3.200000000000000178e+00,-6.993700915481234663e-06,-5.731081562882811337e-05
3.200793650793650968e+00,-1.097812916267169965e-07,-3.657226765062255973e-05
3.201587301587301759e+00,6.082774003924171657e-06,-1.347249071788991258e-05
3.202380952380952550e+00,1.165640117904322583e-05,1.085352295667666686e-05
3.203174603174603341e+00,1.672358389642460776e-05,3.458337138210350710e-05
3.203968253968254132e+00,2.138555268360729409e-05,5.537426729964241040e-05
3.204761904761904923e+00,2.567358326923953023e-05,7.078138442072920249e-05
3.205555555555555713e+00,2.951010085104015230e-05,7.879240905924990651e-05
3.206349206349206504e+00,3.271653494609337988e-05,7.831558072878710519e-05
3.207142857142857295e+00,3.507640355146751220e-05,6.950126931292474174e-05
3.207936507936508086e+00,3.643335628843681812e-05,5.383922120143624105e-05
3.208730158730158877e+00,3.678144273191846748e-05,3.400781794928273589e-05
3.209523809523809668e+00,3.630166185727986232e-05,1.346099219564975571e-05
3.210317460317460458e+00,3.531749544214702588e-05,-4.232219927543573099e-06
3.211111111111111249e+00,3.417564811544929291e-05,-1.619942771809449524e-05
3.211904761904762040e+00,3.309273241453756186e-05,-2.102546255800347583e-05
3.212698412698412831e+00,3.202854435374368679e-05,-1.920053924635705623e-05
3.213492063492063622e+00,3.064308281933108251e-05,-1.304684873275783818e-05
3.214285714285714413e+00,2.836965827114747645e-05,-6.079933950211430147e-06
3.215079365079365203e+00,2.459805552874685399e-05,-1.972866642461867695e-06
3.215873015873015994e+00,1.891792014196860236e-05,-3.448717214989204131e-06
3.216666666666666785e+00,1.133592679822297568e-05,-1.145657205955320749e-05
3.217460317460317576e+00,2.372092721323917977e-06,-2.488227411976580970e-05
3.218253968253968367e+00,-7.021771801706759988e-06,-4.086121881611333456e-05
3.219047619047619158e+00,-1.570435899961557184e-05,-5.557314678411129187e-05
3.219841269841269948e+00,-2.265954954608897446e-05,-6.526984199390897725e-05
3.220634920634920739e+00,-2.726750844466512241e-05,-6.724353132685715196e-05
3.221428571428571530e+00,-2.944211697693261323e-05,-6.048269577661149110e-05
3.222222222222222321e+00,-2.960140656425524716e-05,-4.586442827855073266e-05
3.223015873015873112e+00,-2.849440401092022361e-05,-2.586958500536248030e-05
3.223809523809523903e+00,-2.694625133294804406e-05,-3.935118136947752321e-06
3.224603174603174693e+00,-2.559958441938837138e-05,1.636473065743455408e-05
3.225396825396825484e+00,-2.472594500267667796e-05,3.210280149202487422e-05
3.226190476190476275e+00,-2.415914176897165390e-05,4.157610103595439985e-05
3.226984126984127066e+00,-2.336714172434903138e-05,4.456193392112616631e-05
3.227777777777777857e+00,-2.163857969375655431e-05,4.221645668288305552e-05
3.228571428571428648e+00,-1.832653486878525932e-05,3.666562260219870771e-05
3.229365079365079438e+00,-1.307792973084057922e-05,3.041271476727420669e-05
3.230158730158730229e+00,-5.987053880142048503e-06,2.572154249204446723e-05
3.230952380952381020e+00,2.360674039046945175e-06,2.411906768786801334e-05
3.231746031746031811e+00,1.095896516267162774e-05,2.610833739213056217e-05
3.232539682539682602e+00,1.854796771485566051e-05,3.111814927958533194e-05
3.233333333333333393e+00,2.384717027771329301e-05,3.766534685405499187e-05
3.234126984126984183e+00,2.581112179681556394e-05,4.368065920888314737e-05
3.234920634920634974e+00,2.386126014568201514e-05,4.694048756454375954e-05
3.235714285714285765e+00,1.805392555786843018e-05,4.553704648278863451e-05
