Timestamp,Flexor carpi radialis,Extensor digitorum
2.000000000000000000e+00,1.599593479918534367e-05,7.464481012533150919e-05
2.000793650793650791e+00,5.277299836787136813e-06,5.716973826464578120e-05
2.001587301587301582e+00,-4.620345125326664763e-06,3.669539341620836338e-05
2.002380952380952372e+00,-1.252883919374683105e-05,1.512937471746337956e-05
2.003174603174603163e+00,-1.768240456436138272e-05,-5.710156068957529524e-06
2.003968253968253954e+00,-1.982754100300370586e-05,-2.421736796950108665e-05
2.004761904761904745e+00,-1.921769484620735195e-05,-3.913618366324139372e-05
2.005555555555555536e+00,-1.650729911574437656e-05,-4.969490412825176758e-05
2.006349206349206327e+00,-1.257732390415119130e-05,-5.567486468637062387e-05
2.007142857142857117e+00,-8.334610990092506218e-06,-5.737150612884314477e-05
2.007936507936507908e+00,-4.532383576966188182e-06,-5.546119725901999388e-05
2.008730158730158699e+00,-1.654340073936284150e-06,-5.082028218792174987e-05
2.009523809523809490e+00,1.151916473280526246e-07,-4.434071607592699420e-05
2.010317460317460281e+00,8.425970081656082161e-07,-3.677203675530638544e-05
2.011111111111111072e+00,7.513629078897933241e-07,-2.861226232990044058e-05
2.011904761904761862e+00,1.252316117748329286e-07,-2.006796413991166877e-05
2.012698412698412653e+00,-7.624659424091975085e-07,-1.109271558749945087e-05
2.013492063492063444e+00,-1.685479526715576243e-06,-1.491534413153854254e-06
2.014285714285714235e+00,-2.474848507275186916e-06,8.939098478204737477e-06
2.015079365079365026e+00,-3.013057418803189582e-06,2.026830596227309169e-05
2.015873015873015817e+00,-3.219147921041309690e-06,3.230806216281745165e-05
2.016666666666666607e+00,-3.031108806312480670e-06,4.452616157228489593e-05
2.017460317460317398e+00,-2.395566446379441990e-06,5.601216306943224371e-05
2.018253968253968189e+00,-1.276927087150359050e-06,6.551847829119068886e-05
2.019047619047618980e+00,3.078191876231467092e-07,7.159510604633078257e-05
2.019841269841269771e+00,2.236792527982760675e-06,7.281788646772301599e-05
2.020634920634920562e+00,4.237361392967662298e-06,6.808051137523180420e-05
2.021428571428571352e+00,5.877900378131340479e-06,5.689182107027773456e-05
2.022222222222222143e+00,6.620677865237436518e-06,3.960543514633020786e-05
2.023015873015872934e+00,5.938402726906644280e-06,1.751591869640248839e-05
2.023809523809523725e+00,3.471647619531244222e-06,-7.217874914847359284e-06
2.024603174603174516e+00,-8.138219559772950360e-07,-3.182578728603160207e-05
2.025396825396825307e+00,-6.514778605147177133e-06,-5.332363910111972722e-05
2.026190476190476097e+00,-1.275964144814865872e-05,-6.899152597322911324e-05
2.026984126984126888e+00,-1.828146031558524338e-05,-7.684474384265335049e-05
2.027777777777777679e+00,-2.160330678558147950e-05,-7.599742022781451193e-05
2.028571428571428470e+00,-2.132733722200014532e-05,-6.683205045960624688e-05
2.029365079365079261e+00,-1.649166535323818482e-05,-5.092993209130897527e-05
2.030158730158730052e+00,-6.923984711483787343e-06,-3.077765971471250578e-05
2.030952380952380842e+00,6.507225538698879503e-06,-9.322407063660329723e-06
2.031746031746031633e+00,2.184477125565173009e-05,1.051744373731728079e-05
2.032539682539682424e+00,3.626491223586417634e-05,2.628070553608551007e-05
2.033333333333333215e+00,4.657235289650966318e-05,3.625747767534538631e-05
2.034126984126984006e+00,4.989179146091926424e-05,3.962433083674947410e-05
2.034920634920634797e+00,4.440537276102516436e-05,3.644174480444199016e-05
2.035714285714285587e+00,2.993918928861344551e-05,2.755986696892506480e-05
2.036507936507936378e+00,8.208112810869568166e-06,1.447281143948668336e-05
2.037301587301587169e+00,-1.740022942715209068e-05,-8.680456202698998364e-07
2.038095238095237960e+00,-4.249454277559005431e-05,-1.629741672351589369e-05
2.038888888888888751e+00,-6.264877036641005464e-05,-2.974270700351987743e-05
2.039682539682539542e+00,-7.440889976096063958e-05,-3.955419373640575758e-05
2.040476190476190332e+00,-7.605347176816421896e-05,-4.477286217127299158e-05
2.041269841269841123e+00,-6.790316442949651150e-05,-4.524546339749559219e-05
2.042063492063491914e+00,-5.212454524101221560e-05,-4.154170898532142081e-05
2.042857142857142705e+00,-3.212742605438885073e-05,-3.470169078245425356e-05
2.043650793650793496e+00,-1.175119431839424912e-05,-2.591135211093374279e-05
2.044444444444444287e+00,5.550474427509990208e-06,-1.623470794628075118e-05
2.045238095238095077e+00,1.736246588313374842e-05,-6.495369942637483047e-06
2.046031746031745868e+00,2.269815798211971121e-05,2.690893700811335119e-06
2.046825396825396659e+00,2.207959569751234086e-05,1.081547417994928557e-05
2.047619047619047450e+00,1.730200544725988291e-05,1.741004915664195375e-05
2.048412698412698241e+00,1.092044395025448010e-05,2.206650233022990439e-05
2.049206349206349032e+00,5.556314900356324641e-06,2.452787538860783117e-05
2.049999999999999822e+00,3.187309254647213922e-06,2.479248017971056450e-05
2.050793650793650613e+00,4.619662942053259354e-06,2.317058256690793567e-05
2.051587301587301404e+00,9.309783221216762732e-06,2.025744817731100421e-05
2.052380952380952195e+00,1.559837072602603475e-05,1.682092005993311202e-05
2.053174603174602986e+00,2.128180266559654744e-05,1.363379163365970849e-05
2.053968253968253777e+00,2.433324191563303253e-05,1.130217577386438619e-05
2.054761904761904567e+00,2.354602708310912627e-05,1.014321568633823304e-05
2.055555555555555358e+00,1.891126566026767516e-05,1.014697653450382982e-05
2.056349206349206149e+00,1.163344975859459653e-05,1.102694172214737503e-05
2.057142857142856940e+00,3.795395340850621133e-06,1.233558393983989709e-05
2.057936507936507731e+00,-2.223736579962467243e-06,1.360555712740067012e-05
2.058730158730158522e+00,-4.416101013036569086e-06,1.447412700640273533e-05
2.059523809523809312e+00,-1.724287202939284687e-06,1.475619469079640522e-05
2.060317460317460103e+00,5.612205609782916516e-06,1.444899149787588207e-05
2.061111111111110894e+00,1.602655836462239320e-05,1.367651875499167854e-05
2.061904761904761685e+00,2.692165429265034839e-05,1.260395266344935761e-05
2.062698412698412920e+00,3.523840949501249443e-05,1.135942789117006102e-05
2.063492063492063711e+00,3.818280129706407602e-05,9.990064450285028147e-06
2.064285714285714501e+00,3.395473935407772434e-05,8.459354584521837790e-06
2.065079365079365292e+00,2.229662750475018906e-05,6.675898500902541520e-06
2.065873015873016083e+00,4.691028159358403182e-06,4.536429327520650471e-06
2.066666666666666874e+00,-1.589402784208583216e-05,1.969464532150305186e-06
2.067460317460317665e+00,-3.568528509356441909e-05,-1.026167468738056398e-06
2.068253968253968456e+00,-5.103283559520845904e-05,-4.349131085040235335e-06
2.069047619047619246e+00,-5.930605551825770660e-05,-7.773125048056292512e-06
2.069841269841270037e+00,-5.947973757098181329e-05,-1.094291997774199474e-05
2.070634920634920828e+00,-5.225043887836477150e-05,-1.340014596959788162e-05
2.071428571428571619e+00,-3.969470398554564929e-05,-1.464695862587349919e-05
2.072222222222222410e+00,-2.462458045580008406e-05,-1.424764774503731821e-05
2.073015873015873201e+00,-9.859372469211161050e-06,-1.195648259429889756e-05
2.073809523809523991e+00,2.387067821458317706e-06,-7.845983577473388042e-06
2.074603174603174782e+00,1.087658306195760933e-05,-2.397022992584232142e-06
2.075396825396825573e+00,1.543411059270300309e-05,3.492581965561116908e-06
2.076190476190476364e+00,1.678412850971593419e-05,8.614130513260871190e-06
2.076984126984127155e+00,1.621439002233630738e-05,1.167488491532929871e-05
2.077777777777777946e+00,1.516647366449360733e-05,1.161380798168510876e-05
2.078571428571428736e+00,1.485343200737674894e-05,7.936504665209261644e-06
2.079365079365079527e+00,1.598806552973576169e-05,9.746624753917028677e-07
2.080158730158730318e+00,1.867285254318961922e-05,-8.025370664036976962e-06
2.080952380952381109e+00,2.245853724575366334e-05,-1.704848629836061959e-05
2.081746031746031900e+00,2.653294635086817605e-05,-2.369270089066836217e-05
2.082539682539682691e+00,2.996932785029436127e-05,-2.571381664831722699e-05
2.083333333333333481e+00,3.195613915107031554e-05,-2.160095362825276339e-05
2.084126984126984272e+00,3.194957566892440358e-05,-1.103284265852113703e-05
2.084920634920635063e+00,2.972695397172479947e-05,4.906598549592574390e-06
2.085714285714285854e+00,2.535770368561823329e-05,2.381397038968719468e-05
2.086507936507936645e+00,1.913380249987255187e-05,4.234568390862061490e-05
2.087301587301587436e+00,1.150415183295948809e-05,5.682565484681417685e-05
2.088095238095238226e+00,3.039802198465414775e-06,6.397195740104292682e-05
2.088888888888889017e+00,-5.569077804778339553e-06,6.159848419880666200e-05
2.089682539682539808e+00,-1.350490265666187109e-05,4.913078107378916201e-05
2.090476190476190599e+00,-1.983340442426114754e-05,2.779711310458614034e-05
2.091269841269841390e+00,-2.356255974843731425e-05,4.291367661905616721e-07
2.092063492063492181e+00,-2.376894649686107810e-05,-2.908748819853536753e-05
2.092857142857142971e+00,-1.979284807926472243e-05,-5.657741882583676159e-05
2.093650793650793762e+00,-1.147630792520213804e-05,-7.837295671821947285e-05
2.094444444444444553e+00,6.160279600999846189e-07,-9.197116404994275609e-05
2.095238095238095344e+00,1.508207484369014666e-05,-9.642346570379343518e-05
2.096031746031746135e+00,2.976124860794257700e-05,-9.238837894772017833e-05
2.096825396825396925e+00,4.204702890113692167e-05,-8.183818934520951276e-05
2.097619047619047716e+00,4.939034139629343702e-05,-6.748324356667518805e-05
2.098412698412698507e+00,4.987381550856148632e-05,-5.206415606699193235e-05
2.099206349206349298e+00,4.270303223907588467e-05,-3.772352045217481048e-05
2.100000000000000089e+00,2.847806239417736011e-05,-2.564634184891570251e-05
2.100793650793650880e+00,9.160296391986983463e-06,-1.603867258475410404e-05
2.101587301587301670e+00,-1.228035986749743067e-05,-8.363290518366566797e-06
2.102380952380952461e+00,-3.247142087724095791e-05,-1.670455628796452917e-06
2.103174603174603252e+00,-4.835232535223050223e-05,5.106225527541648219e-06
2.103968253968254043e+00,-5.781017120457565989e-05,1.292602279008184146e-05
2.104761904761904834e+00,-6.006941069963922476e-05,2.245924231261611166e-05
2.105555555555555625e+00,-5.574687654910213968e-05,3.391502333345172389e-05
2.106349206349206415e+00,-4.658608737192508137e-05,4.688863801420090131e-05
2.107142857142857206e+00,-3.497126664920481310e-05,6.028226714530437558e-05
2.107936507936507997e+00,-2.336631442759071753e-05,7.236861690637992519e-05
2.108730158730158788e+00,-1.381998233613584218e-05,8.104185897146799528e-05
2.109523809523809579e+00,-7.635095792552666074e-06,8.424098539753709319e-05
2.110317460317460370e+00,-5.239217263305045579e-06,8.046033893783482841e-05
2.111111111111111160e+00,-6.241622727180372756e-06,6.921493079875146181e-05
2.111904761904761951e+00,-9.630645389485624282e-06,5.132686787397827948e-05
2.112698412698412742e+00,-1.405448243841694509e-05,2.893950437364859870e-05
2.113492063492063533e+00,-1.812760500231327008e-05,5.228607204419502055e-06
2.114285714285714324e+00,-2.070679251072647542e-05,-1.614845096556457579e-05
2.115079365079365115e+00,-2.108693418750167908e-05,-3.175196011597285851e-05
2.115873015873015905e+00,-1.908376794535251840e-05,-3.903913155486174105e-05
2.116666666666666696e+00,-1.499979786284676615e-05,-3.684554877433371823e-05
2.117460317460317487e+00,-9.500263304726904397e-06,-2.554438451860387236e-05
2.118253968253968278e+00,-3.443662279281132163e-06,-6.862181145247431690e-06
2.119047619047619069e+00,2.290371966579185749e-06,1.655741213570534185e-05
2.119841269841269860e+00,6.948548351193719188e-06,4.167557760182786792e-05
2.120634920634920650e+00,1.001699934247274722e-05,6.549261452139651309e-05
2.121428571428571441e+00,1.129941762098242581e-05,8.528460002707958230e-05
2.122222222222222232e+00,1.095694087643440902e-05,9.864124519560056484e-05
2.123015873015873023e+00,9.497021301298323267e-06,1.034131819022817648e-04
2.123809523809523814e+00,7.694191358795577550e-06,9.773435821067693729e-05
2.124603174603174605e+00,6.437115943083306199e-06,8.025207824707971749e-05
2.125396825396825395e+00,6.523291644513318533e-06,5.057774502570296917e-05
2.126190476190476186e+00,8.450887274279158398e-06,9.823030960389190764e-06
2.126984126984126977e+00,1.226797666650730154e-05,-3.901345383153062465e-05
2.127777777777777768e+00,1.752518598717983910e-05,-9.104705242328130319e-05
2.128571428571428559e+00,2.334684131371028378e-05,-1.400350585694043416e-04
2.129365079365079350e+00,2.860313309372334271e-05,-1.793943419007527830e-04
2.130158730158730140e+00,3.214245240478355532e-05,-2.034726164439008681e-04
2.130952380952380931e+00,3.303231945099147548e-05,-2.087113961317373448e-04
2.131746031746031722e+00,3.075773273754594232e-05,-1.943604288833260729e-04
2.132539682539682513e+00,2.533469947534837849e-05,-1.625600367296626484e-04
2.133333333333333304e+00,1.731331134860988319e-05,-1.178127165358497407e-04
2.134126984126984095e+00,7.668725884026230313e-06,-6.603399776458285177e-05
2.134920634920634885e+00,-2.394488891153616357e-06,-1.345932778799137005e-05
2.135714285714285676e+00,-1.167765258659757896e-05,3.432642388477285947e-05
2.136507936507936467e+00,-1.920686357696534807e-05,7.306012210280717610e-05
2.137301587301587258e+00,-2.438431113991741154e-05,1.001144786646112949e-04
2.138095238095238049e+00,-2.703882958375382846e-05,1.144938029740574608e-04
2.138888888888888840e+00,-2.737189313973177149e-05,1.166035593967114966e-04
2.139682539682539630e+00,-2.582796924706682817e-05,1.079027622505210825e-04
2.140476190476190421e+00,-2.293902031115883369e-05,9.053828271842787143e-05
2.141269841269841212e+00,-1.919142939058522169e-05,6.702985941779041697e-05
2.142063492063492003e+00,-1.494466177286502908e-05,4.003414191446763451e-05
2.142857142857142794e+00,-1.040902497347999457e-05,1.217985867806623234e-05
2.143650793650793585e+00,-5.674080592602497421e-06,-1.405478776246122803e-05
2.144444444444444375e+00,-7.692497796283414564e-07,-3.645409250149688000e-05
2.145238095238095166e+00,4.267603373542267818e-06,-5.318585881795677976e-05
2.146031746031745957e+00,9.336925963459803124e-06,-6.293195894158904271e-05
2.146825396825396748e+00,1.425348283792904976e-05,-6.501041546186738570e-05
2.147619047619047539e+00,1.875145520799051079e-05,-5.945896446828975696e-05
2.148412698412698330e+00,2.250771919782420939e-05,-4.704858496869575725e-05
2.149206349206349120e+00,2.517138845999334249e-05,-2.920714529142509738e-05
2.149999999999999911e+00,2.639625880675297489e-05,-7.856751534975214919e-06
2.150793650793650702e+00,2.588350068288032405e-05,1.480540352683419874e-05
2.151587301587301493e+00,2.344538938868041147e-05,3.653781036350261900e-05
2.152380952380952284e+00,1.909244777727990832e-05,5.525694942953959972e-05
2.153174603174603075e+00,1.312826259556104762e-05,6.919226086124810029e-05
2.153968253968253865e+00,6.215005571988719310e-06,7.700023171656526192e-05
2.154761904761904656e+00,-6.408463042873164452e-07,7.786031626194048118e-05
2.155555555555555447e+00,-6.224160060691072175e-06,7.157395444725906156e-05
2.156349206349206238e+00,-9.369481514897546074e-06,5.866814965743636083e-05
2.157142857142857029e+00,-9.283590204497160035e-06,4.047507094615732966e-05
2.157936507936507819e+00,-5.826445395893908864e-06,1.913201695819672071e-05
2.158730158730158610e+00,3.592793165383661263e-07,-2.564319131344734151e-06
2.159523809523809401e+00,7.933251928184117886e-06,-2.149506791283106288e-05
2.160317460317460192e+00,1.514464356555468310e-05,-3.473416955243307093e-05
2.161111111111110983e+00,2.023971611579630464e-05,-4.014166440793613986e-05
2.161904761904761774e+00,2.187305837542573162e-05,-3.686738934122984048e-05
2.162698412698412564e+00,1.941239932572669735e-05,-2.559728319010950434e-05
2.163492063492063355e+00,1.306627692895287469e-05,-8.457419378873439522e-06
2.164285714285714146e+00,3.818013967041277680e-06,1.138745651923542704e-05
2.165079365079364937e+00,-6.801452200942188046e-06,3.031579299493167623e-05
2.165873015873015728e+00,-1.703907453729526500e-05,4.487267290848679177e-05
2.166666666666666519e+00,-2.527038100908144598e-05,5.233527754115490022e-05
2.167460317460317309e+00,-3.030490501179778203e-05,5.115720524275600288e-05
2.168253968253968100e+00,-3.158787125193985716e-05,4.123232842182100320e-05
2.169047619047618891e+00,-2.926222464052408002e-05,2.391479155413603073e-05
2.169841269841269682e+00,-2.408739117352761601e-05,1.763875488383455819e-06
2.170634920634920473e+00,-1.724475782839615938e-05,-2.194199084184886197e-05
2.171428571428571264e+00,-1.008266385191582588e-05,-4.380268028146166076e-05
2.172222222222222054e+00,-3.858551122969992629e-06,-6.086302761934437585e-05
2.173015873015872845e+00,4.745662946008177777e-07,-7.104250794502829842e-05
2.173809523809523636e+00,2.407184420472379507e-06,-7.337526491176688816e-05
2.174603174603174427e+00,1.923972281872497568e-06,-6.804119535866356679e-05
2.175396825396825218e+00,-5.348401916867748908e-07,-5.619024830024382583e-05
2.176190476190476009e+00,-4.190447514072343311e-06,-3.960217980258346453e-05
2.176984126984126799e+00,-8.097785399312118802e-06,-2.028062658990518435e-05
2.177777777777777590e+00,-1.133917483902171506e-05,-1.107319847624189715e-07
2.178571428571428381e+00,-1.320011607955943607e-05,1.932098593213921195e-05
2.179365079365079172e+00,-1.329233271397684346e-05,3.672576397817026161e-05
2.180158730158729963e+00,-1.160235499395202160e-05,5.099754483933790491e-05
2.180952380952380754e+00,-8.461528445931289813e-06,6.110028388664765018e-05
2.181746031746031544e+00,-4.449458178991601184e-06,6.606656894058614499e-05
2.182539682539682335e+00,-2.537484011396691443e-07,6.515446833547874916e-05
2.183333333333333126e+00,3.485182750254790476e-06,5.811943406364700188e-05
2.184126984126983917e+00,6.311885368037182994e-06,4.548127310332790994e-05
2.184920634920634708e+00,8.042750581279977087e-06,2.864264307087404203e-05
2.185714285714285499e+00,8.774852275777439274e-06,9.763348097809880876e-06
2.186507936507936289e+00,8.809927711398442992e-06,-8.607246325325384060e-06
2.187301587301587080e+00,8.518579341107446529e-06,-2.404168740982802648e-05
2.188095238095238315e+00,8.197183857989977639e-06,-3.474374356059870190e-05
2.188888888888889106e+00,7.973094979002083327e-06,-3.991732768466282855e-05
2.189682539682539897e+00,7.788399971483287189e-06,-3.990290684980701082e-05
2.190476190476190688e+00,7.456695396570674825e-06,-3.605342400788525510e-05
2.191269841269841478e+00,6.764007304447156506e-06,-3.038505303497802186e-05
2.192063492063492269e+00,5.580385461664262357e-06,-2.508340897807854919e-05
2.192857142857143060e+00,3.952433345536020865e-06,-2.196912281982735653e-05
2.193650793650793851e+00,2.150276478219713138e-06,-2.203698763838159039e-05
2.194444444444444642e+00,6.482543322765107714e-07,-2.518315402564110750e-05
2.195238095238095433e+00,3.356628535449370342e-08,-3.021225267023829327e-05
2.196031746031746223e+00,8.600199097234287463e-07,-3.515619338064565077e-05
2.196825396825397014e+00,3.484905481609930381e-06,-3.784228745353404019e-05
2.197619047619047805e+00,7.934218304452499929e-06,-3.655148960546578520e-05
2.198412698412698596e+00,1.383055442170825160e-05,-3.055658243553701183e-05
2.199206349206349387e+00,2.039684862862739127e-05,-2.035802612564492533e-05
2.200000000000000178e+00,2.653303505453698946e-05,-7.532348033942160609e-06
2.200793650793650968e+00,3.096031982634632338e-05,5.765532504761859830e-06
2.201587301587301759e+00,3.243057906513804325e-05,1.748904782147396185e-05
2.202380952380952550e+00,2.998858217292729570e-05,2.634670600400083418e-05
2.203174603174603341e+00,2.324557021400145223e-05,3.217880439664012014e-05
2.203968253968254132e+00,1.258943166503479621e-05,3.591524998213069622e-05
2.204761904761904923e+00,-7.542397187366551232e-07,3.910786471016204554e-05
2.205555555555555713e+00,-1.486778086337526939e-05,4.318529964487550902e-05
2.206349206349206504e+00,-2.748936337727246276e-05,4.868965184753307787e-05
2.207142857142857295e+00,-3.648718779815931867e-05,5.478080166034086679e-05
2.207936507936508086e+00,-4.033399971523975809e-05,5.922804126719900461e-05
2.208730158730158877e+00,-3.845014582112551906e-05,5.896511851796174995e-05
2.209523809523809668e+00,-3.132310997070716701e-05,5.109185291135918380e-05
2.210317460317460458e+00,-2.037714596839188233e-05,3.401033367461758723e-05
2.211111111111111249e+00,-7.633306305665752374e-06,8.273306273306800672e-06
2.211904761904762040e+00,4.748889429574105434e-06,-2.321291446470536592e-05
2.212698412698412831e+00,1.493129385118292388e-05,-5.574610981790032924e-05
2.213492063492063622e+00,2.174768645194228968e-05,-8.396026732939813615e-05
2.214285714285714413e+00,2.486867592031338220e-05,-1.031419933892973830e-04
2.215079365079365203e+00,2.474963303345182944e-05,-1.103149149286234923e-04
2.215873015873015994e+00,2.236933670279130814e-05,-1.048039397855506555e-04
2.216666666666666785e+00,1.880559414230970587e-05,-8.819300070802050281e-05
2.217460317460317576e+00,1.474968905667661807e-05,-6.378077640595507366e-05
2.218253968253968367e+00,1.012487067148300556e-05,-3.575887787152588532e-05
2.219047619047619158e+00,3.995939510207860723e-06,-8.361452762148970086e-06
2.219841269841269948e+00,-5.112984998634958774e-06,1.482235983451075276e-05
2.220634920634920739e+00,-1.853441528904421071e-05,3.128103452646351687e-05
2.221428571428571530e+00,-3.662848374136694595e-05,3.976444841472978034e-05
2.222222222222222321e+00,-5.813809916617249113e-05,4.029018269599220729e-05
2.223015873015873112e+00,-8.003282067100600105e-05,3.405538168116899580e-05
2.223809523809523903e+00,-9.798625151732060878e-05,2.329315505947654555e-05
2.224603174603174693e+00,-1.073948689615485726e-04,1.104135426264120158e-05
2.225396825396825484e+00,-1.046334114436349124e-04,7.491489029237116592e-07
2.226190476190476275e+00,-8.814861370134481231e-05,-4.316722525512243147e-06
2.226984126984127066e+00,-5.905466209659123778e-05,-1.791313434880834995e-06
2.227777777777777857e+00,-2.107125490896099326e-05,9.138596312279211086e-06
2.228571428571428648e+00,2.014793421149987856e-05,2.739070485749547056e-05
2.229365079365079438e+00,5.809946327213860821e-05,5.011222158807298140e-05
2.230158730158730229e+00,8.667739953696302691e-05,7.327690489558632658e-05
2.230952380952381020e+00,1.013507878507659195e-04,9.258426764428013124e-05
2.231746031746031811e+00,1.000713031817824524e-04,1.043828962756451366e-04
2.232539682539682602e+00,8.373899866968343873e-05,1.063430965038436344e-04
2.233333333333333393e+00,5.610058452838311569e-05,9.771169100835523159e-05
2.234126984126984183e+00,2.304888702592917940e-05,7.914682863811723355e-05
2.234920634920634974e+00,-8.570053100045727103e-06,5.229024256913330701e-05
2.235714285714285765e+00,-3.239458146499028096e-05,1.932003065091062702e-05
2.236507936507936556e+00,-4.389158360695839074e-05,-1.731172658797553354e-05
2.237301587301587347e+00,-4.127168728111654480e-05,-5.490454571367265702e-05
2.238095238095238138e+00,-2.574724702323116774e-05,-9.042649634528551490e-05
2.238888888888888928e+00,-1.087677990039056660e-06,-1.205453938628025260e-04
2.239682539682539719e+00,2.737843730556885675e-05,-1.419434939450496904e-04
2.240476190476190510e+00,5.402773424324335688e-05,-1.519159669586262590e-04
2.241269841269841301e+00,7.414435327717490225e-05,-1.490709051578897296e-04
2.242063492063492092e+00,8.478055147129690287e-05,-1.338490703412229844e-04
2.242857142857142883e+00,8.510979923922565196e-05,-1.086034560235547776e-04
2.243650793650793673e+00,7.625297631469024054e-05,-7.710915950748283422e-05
2.244444444444444464e+00,6.069751953373173477e-05,-4.357791727535713795e-05
2.245238095238095255e+00,4.151979306003690518e-05,-1.147030497449696243e-05
2.246031746031746046e+00,2.163928211120896014e-05,1.746100018055599031e-05
2.246825396825396837e+00,3.284715984879247342e-06,4.349145709531990162e-05
2.247619047619047628e+00,-1.223790222659530534e-05,6.841737086915119115e-05
2.248412698412698418e+00,-2.448571594676561113e-05,9.435237892378698136e-05
2.249206349206349209e+00,-3.361900243290542385e-05,1.222566352326786632e-04
2.250000000000000000e+00,-4.007006708788634036e-05,1.507769552210520044e-04
2.250793650793650791e+00,-4.425833911980605050e-05,1.759092838702976016e-04
2.251587301587301582e+00,-4.642079392184407825e-05,1.917251873347877765e-04
2.252380952380952372e+00,-4.657197647280473976e-05,1.920256090680879486e-04
2.253174603174603163e+00,-4.457144550007262731e-05,1.724355147223118360e-04
2.253968253968253954e+00,-4.026286484009113131e-05,1.322564389549811168e-04
2.254761904761904745e+00,-3.364490885831092218e-05,7.541769560462125311e-05
2.255555555555555536e+00,-2.502661039243696039e-05,1.011075117754573662e-05
2.256349206349206327e+00,-1.511050255798337842e-05,-5.290679111623913274e-05
2.257142857142857117e+00,-4.950887278205689368e-06,-1.029098128298909601e-04
2.257936507936507908e+00,4.233797458951107790e-06,-1.319534627634260781e-04
2.258730158730158699e+00,1.135783204978000513e-05,-1.369374491804816894e-04
2.259523809523809490e+00,1.577714064950733850e-05,-1.203593261840728117e-04
2.260317460317460281e+00,1.748419322276678717e-05,-8.954215536034763792e-05
2.261111111111111072e+00,1.708926141017498896e-05,-5.458800993113754326e-05
2.261904761904761862e+00,1.556801746085358483e-05,-2.566395594412756201e-05
2.262698412698412653e+00,1.385888009535139743e-05,-1.036948313821268661e-05
2.263492063492063444e+00,1.247387302360460639e-05,-1.186183804257686101e-05
2.264285714285714235e+00,1.129797948359970217e-05,-2.819398841876547796e-05
2.265079365079365026e+00,9.676712810844036695e-06,-5.301086606354938339e-05
2.265873015873015817e+00,6.760926507637210657e-06,-7.739383985285237962e-05
2.266666666666666607e+00,1.958327171209067579e-06,-9.231706773214618965e-05
2.267460317460317398e+00,-4.705136184417894748e-06,-9.101213330676261688e-05
2.268253968253968189e+00,-1.246379002126203992e-05,-7.062008760930920965e-05
2.269047619047618980e+00,-1.997184773073288686e-05,-3.279576611634833956e-05
2.269841269841269771e+00,-2.567371858490250175e-05,1.673605145701678241e-05
2.270634920634920562e+00,-2.824705867963547362e-05,6.942746825210408109e-05
2.271428571428571352e+00,-2.697341430234721443e-05,1.156044001757939910e-04
2.272222222222222143e+00,-2.193455029298242324e-05,1.462678986082962000e-04
2.273015873015872934e+00,-1.400028389353247492e-05,1.547218156219747694e-04
2.273809523809523725e+00,-4.635400014290766890e-06,1.378179120099784819e-04
2.274603174603174516e+00,4.411146707477533587e-06,9.664683443339704930e-05
2.275396825396825307e+00,1.146320584208502052e-05,3.652826669260454397e-05
2.276190476190476097e+00,1.525502037685995429e-05,-3.377652389672945499e-05
2.276984126984126888e+00,1.519009496571397159e-05,-1.035566750847798215e-04
2.277777777777777679e+00,1.146583345340852875e-05,-1.620834294512874245e-04
2.278571428571428470e+00,5.021970798866119669e-06,-2.005748473763609954e-04
2.279365079365079261e+00,-2.691389987279994331e-06,-2.137658763233053001e-04
2.280158730158730052e+00,-1.007199338941684348e-05,-2.007551585782407332e-04
2.280952380952380842e+00,-1.574508429261681745e-05,-1.649673868658524715e-04
2.281746031746031633e+00,-1.884928118014210250e-05,-1.132590464530868005e-04
2.282539682539682424e+00,-1.915294079576309696e-05,-5.438284677408208184e-05
2.283333333333333215e+00,-1.699352987071671200e-05,2.817758029544323751e-06
2.284126984126984006e+00,-1.309347362300263831e-05,5.104524514811409905e-05
2.284920634920634797e+00,-8.332708156015817714e-06,8.564748913254783495e-05
2.285714285714285587e+00,-3.547636215664065258e-06,1.050013118226276077e-04
2.286507936507936378e+00,6.048943736984410739e-07,1.102220751748569564e-04
2.287301587301587169e+00,3.711214375212960056e-06,1.043997024814334167e-04
2.288095238095237960e+00,5.604577244246266066e-06,9.162117271188480151e-05
2.288888888888888751e+00,6.328951398440557903e-06,7.601912024146735504e-05
2.289682539682539542e+00,6.082028317569516661e-06,6.102070427497294366e-05
2.290476190476190332e+00,5.152442703820865986e-06,4.888903799887119945e-05
2.291269841269841123e+00,3.861492993405315954e-06,4.057297218625218019e-05
2.292063492063491914e+00,2.515523689698147164e-06,3.582423168583534690e-05
2.292857142857142705e+00,1.371738772394633463e-06,3.350792365755665182e-05
2.293650793650793496e+00,6.173100379950095919e-07,3.202056716584636707e-05
2.294444444444444287e+00,3.593357160004228923e-07,2.973425348605138706e-05
2.295238095238095077e+00,6.223289379187919871e-07,2.539973992736053427e-05
2.296031746031745868e+00,1.351031848131629954e-06,1.845699627786154390e-05
2.296825396825396659e+00,2.418574460327703617e-06,9.213219415541416642e-06
2.297619047619047450e+00,3.641562127692235498e-06,-1.143472240102067080e-06
2.298412698412698241e+00,4.803594111001293815e-06,-1.071471206611408647e-05
2.299206349206349032e+00,5.687223886937599386e-06,-1.724447924472153349e-05
2.299999999999999822e+00,6.111823002681990995e-06,-1.861614941585621621e-05
2.300793650793650613e+00,5.971351745701604049e-06,-1.341450015654198863e-05
2.301587301587301404e+00,5.263012408297043823e-06,-1.434932254915490914e-06
2.302380952380952195e+00,4.097885484309369936e-06,1.599834566005902870e-05
2.303174603174602986e+00,2.689108284148735801e-06,3.603102169511516079e-05
2.303968253968253777e+00,1.319391702569544309e-06,5.466413805972338637e-05
2.304761904761904567e+00,2.939013181486096223e-07,6.750059461753441078e-05
2.305555555555555358e+00,-1.141290399600521150e-07,7.071546922260291417e-05
2.306349206349206149e+00,2.828033943694038212e-07,6.202110866014715876e-05
2.307142857142856940e+00,1.542220014945453305e-06,4.136098948866178689e-05
2.307936507936507731e+00,3.566755133455123585e-06,1.110973466124413858e-05
2.308730158730158522e+00,6.107084834198719206e-06,-2.431665880539182390e-05
2.309523809523809312e+00,8.796760214981264045e-06,-5.936218023584459197e-05
2.310317460317460103e+00,1.121586077098942707e-05,-8.851114814299017796e-05
2.311111111111110894e+00,1.297204139216347553e-05,-1.074388276076203037e-04
2.311904761904761685e+00,1.378071402565703286e-05,-1.138436868813831257e-04
2.312698412698412920e+00,1.352404247265463485e-05,-1.077719850520253360e-04
2.313492063492063711e+00,1.227307536992252834e-05,-9.139009741286514561e-05
2.314285714285714501e+00,1.026753584912120054e-05,-6.830551582990270832e-05
2.315079365079365292e+00,7.859584701936172556e-06,-4.264014880568147288e-05
2.315873015873016083e+00,5.436830916701251061e-06,-1.809852540370807418e-05
2.316666666666666874e+00,3.343413592622848955e-06,2.745409074601534947e-06
2.317460317460317665e+00,1.816250155717910194e-06,1.878354955742896195e-05
2.318253968253968456e+00,9.481319381395376629e-07,3.027358733143126516e-05
2.319047619047619246e+00,6.817864307314702167e-07,3.837028927962805018e-05
2.319841269841270037e+00,8.310784851239326311e-07,4.446495421122540853e-05
2.320634920634920828e+00,1.119918877452115100e-06,4.956233193201666030e-05
2.321428571428571619e+00,1.228420240466874722e-06,5.389399437944333642e-05
2.322222222222222410e+00,8.390035286274127839e-07,5.686821518233131591e-05
2.323015873015873201e+00,-3.198993597117058847e-07,5.733675202118736198e-05
2.323809523809523991e+00,-2.430455977341364586e-06,5.406882130182742821e-05
2.324603174603174782e+00,-5.538005423561606604e-06,4.628077842777895241e-05
2.325396825396825573e+00,-9.497032309047168802e-06,3.406245446614733225e-05
2.326190476190476364e+00,-1.391551360543249938e-05,1.855511427995148676e-05
2.326984126984127155e+00,-1.811558157283906607e-05,1.786340853747889029e-06
2.327777777777777946e+00,-2.114235945172808219e-05,-1.382623029760732005e-05
2.328571428571428736e+00,-2.185843981402775348e-05,-2.614977154605516708e-05
2.329365079365079527e+00,-1.914854493203403004e-05,-3.393667418458222695e-05
2.330158730158730318e+00,-1.222368743590220339e-05,-3.711161110751297278e-05
2.330952380952381109e+00,-9.653800200556079769e-07,-3.664404847249443412e-05
2.331746031746031900e+00,1.379233217154994629e-05,-3.409351735042646269e-05
2.332539682539682691e+00,3.016112475979620470e-05,-3.104889970898014030e-05
2.333333333333333481e+00,4.537103661853369540e-05,-2.869451415690359652e-05
2.334126984126984272e+00,5.624564078741176693e-05,-2.763302819780826601e-05
2.334920634920635063e+00,5.990999227651134975e-05,-2.795053701295859174e-05
2.335714285714285854e+00,5.455895056073293843e-05,-2.940827239288136313e-05
2.336507936507936645e+00,4.005122420667567930e-05,-3.163027573841626511e-05
2.337301587301587436e+00,1.811676300080530933e-05,-3.420728509831331770e-05
2.338095238095238226e+00,-7.920079531740119771e-06,-3.670530116541521280e-05
2.338888888888889017e+00,-3.383791273542670320e-05,-3.861800383686239576e-05
2.339682539682539808e+00,-5.543908515729469743e-05,-3.932778027913846609e-05
2.340476190476190599e+00,-6.944406528575359074e-05,-3.814168711824354177e-05
2.341269841269841390e+00,-7.414104377816264793e-05,-3.443789032944114935e-05
2.342063492063492181e+00,-6.965504148697028181e-05,-2.789249362622062131e-05
2.342857142857142971e+00,-5.779887378670774795e-05,-1.868871364991995249e-05
2.343650793650793762e+00,-4.156251626005231262e-05,-7.593889454254226257e-06
2.344444444444444553e+00,-2.437777637410135748e-05,4.155332954764707858e-06
2.345238095238095344e+00,-9.345905057169467348e-06,1.513115125348174931e-05
2.346031746031746135e+00,1.381710280910322256e-06,2.406323799725080300e-05
2.346825396825396925e+00,6.929712491263247260e-06,3.015198869663328839e-05
2.347619047619047716e+00,7.678785167663530192e-06,3.326851946963943051e-05
2.348412698412698507e+00,4.944463829364696625e-06,3.400629340491742667e-05
2.349206349206349298e+00,4.806290365260916145e-07,3.358497916637463200e-05
2.350000000000000089e+00,-4.028166124072598525e-06,3.362540436055628688e-05
2.350793650793650880e+00,-7.339492708102002257e-06,3.581783392271279130e-05
2.351587301587301670e+00,-8.810826553499198510e-06,4.151092932886310516e-05
2.352380952380952461e+00,-8.346795269939221427e-06,5.127523864105122160e-05
2.353174603174603252e+00,-6.208976764700885211e-06,6.454086563390368421e-05
2.353968253968254043e+00,-2.790471138875808693e-06,7.944086248015162712e-05
2.354761904761904834e+00,1.555662635819775293e-06,9.297115330095816514e-05
2.355555555555555625e+00,6.585506338844820289e-06,1.014959108816577423e-04
2.356349206349206415e+00,1.212931399536472149e-05,1.015158814516727394e-04
2.357142857142857206e+00,1.798808124822649782e-05,9.052715638509447216e-05
2.357936507936507997e+00,2.381698452135518808e-05,6.776560848652887650e-05
2.358730158730158788e+00,2.905332316318868125e-05,3.465558822018174353e-05
2.359523809523809579e+00,3.293483853490802057e-05,-5.169135868456217315e-06
2.360317460317460370e+00,3.462966887478730038e-05,-4.634628186256447722e-05
2.361111111111111160e+00,3.346100864778923483e-05,-8.275665681231053204e-05
2.361904761904761951e+00,2.916315314869152153e-05,-1.088352848972986615e-04
2.362698412698412742e+00,2.207006708444351689e-05,-1.209014196287599492e-04
2.363492063492063533e+00,1.314012179058527122e-05,-1.180894665427275605e-04
2.364285714285714324e+00,3.774893260198185132e-06,-1.025406770792524914e-04
2.365079365079365115e+00,-4.523504196591391999e-06,-7.876274117755481204e-05
2.365873015873015905e+00,-1.053886467382452313e-05,-5.235928995996577169e-05
2.366666666666666696e+00,-1.363440002522303970e-05,-2.853736344401002007e-05
2.367460317460317487e+00,-1.385979524643007395e-05,-1.084783040089410922e-05
2.368253968253968278e+00,-1.185637754720717798e-05,-5.026285648570338922e-07
2.369047619047619069e+00,-8.616410185765025113e-06,3.602820718825034259e-06
2.369841269841269860e+00,-5.188458660106920893e-06,4.264403598114046969e-06
2.370634920634920650e+00,-2.417317929794869536e-06,4.999489289923701027e-06
2.371428571428571441e+00,-7.781667335580993616e-07,9.026234568110299896e-06
2.372222222222222232e+00,-3.280316270637013037e-07,1.842130807135061434e-05
2.373015873015873023e+00,-7.654991570282666855e-07,3.358375457190609811e-05
2.373809523809523814e+00,-1.567481889867078062e-06,5.305390576494374262e-05
2.374603174603174605e+00,-2.161028587255478033e-06,7.370163793737307051e-05
2.375396825396825395e+00,-2.087621747658682399e-06,9.128437599170217119e-05
2.376190476190476186e+00,-1.124480458853571236e-06,1.013369949845126212e-04
2.376984126984126977e+00,6.609774234818070071e-07,1.002657574359295048e-04
2.377777777777777768e+00,2.933020951176916804e-06,8.639651964778627196e-05
2.378571428571428559e+00,5.179006517539104829e-06,6.064125155933800773e-05
2.379365079365079350e+00,6.846906547744650982e-06,2.648096130206226861e-05
2.380158730158730140e+00,7.493304168305212847e-06,-1.083717319031684085e-05
2.380952380952380931e+00,6.903319326349246562e-06,-4.567927185790028057e-05
2.381746031746031722e+00,5.152079192921768453e-06,-7.350527922117522893e-05
2.382539682539682513e+00,2.593315169779782855e-06,-9.191361029335237958e-05
2.383333333333333304e+00,-2.209623472793276217e-07,-1.008936255289619052e-04
2.384126984126984095e+00,-2.669723827212373360e-06,-1.022506610757546898e-04
2.384920634920634885e+00,-4.210387827360810151e-06,-9.848386225413499379e-05
2.385714285714285676e+00,-4.509710138196371385e-06,-9.159312024311974383e-05
2.386507936507936467e+00,-3.526429930193634449e-06,-8.229696566330208798e-05
2.387301587301587258e+00,-1.524431792830566086e-06,-6.994846385167691888e-05
2.388095238095238049e+00,9.880086330145818660e-07,-5.312749891282826127e-05
2.388888888888888840e+00,3.377765516640547422e-06,-3.061887553809608829e-05
2.389682539682539630e+00,5.034211387049049905e-06,-2.374790338602274314e-06
2.390476190476190421e+00,5.507342729997177240e-06,2.988232451054110872e-05
2.391269841269841212e+00,4.605056618084285851e-06,6.260727217126879087e-05
2.392063492063492003e+00,2.431044663644407436e-06,9.095001952363950199e-05
2.392857142857142794e+00,-6.406684783922563688e-07,1.097181387857786413e-04
2.393650793650793585e+00,-4.046496818457793596e-06,1.145508472515140700e-04
2.394444444444444375e+00,-7.152003067398411787e-06,1.030172466279573480e-04
2.395238095238095166e+00,-9.384131585998843467e-06,7.536754422147116364e-05
2.396031746031745957e+00,-1.034957898552763830e-05,3.475304628311275644e-05
2.396825396825396748e+00,-9.914677049486440209e-06,-1.314786853583362933e-05
2.397619047619047539e+00,-8.229619889230470456e-06,-6.104822693503979974e-05
2.398412698412698330e+00,-5.690262245628566757e-06,-1.013681068668488349e-04
2.399206349206349120e+00,-2.843686485134728190e-06,-1.277009704265008355e-04
2.399999999999999911e+00,-2.582284969361026973e-07,-1.361036418119139664e-04
2.400793650793650702e+00,1.609565744322865295e-06,-1.258814821896265482e-04
2.401587301587301493e+00,2.515177371636822497e-06,-9.965504762249161009e-05
2.402380952380952284e+00,2.465756361517076087e-06,-6.269213282320539873e-05
2.403174603174603075e+00,1.689487501255263712e-06,-2.169031800391771770e-05
2.403968253968253865e+00,5.475667990108438293e-07,1.666966610008511929e-05
2.404761904761904656e+00,-5.795610428448776232e-07,4.704292158365146816e-05
2.405555555555555447e+00,-1.393534260133084394e-06,6.631761630073361392e-05
2.406349206349206238e+00,-1.738256992204975193e-06,7.393328016454630528e-05
2.407142857142857029e+00,-1.610158708109527063e-06,7.162606878791351122e-05
2.407936507936507819e+00,-1.128218722818920979e-06,6.274133326777894825e-05
2.408730158730158610e+00,-4.819545852890140011e-07,5.132484452203850167e-05
2.409523809523809401e+00,1.248070616269203418e-07,4.120952891969727698e-05
2.410317460317460192e+00,5.203664685132974589e-07,3.527298981457997339e-05
2.411111111111110983e+00,5.928098613191876880e-07,3.497366763182047279e-05
2.411904761904761774e+00,2.968755234596384661e-07,4.019983255789784594e-05
2.412698412698412564e+00,-3.542515008689106708e-07,4.940477227977959891e-05
2.413492063492063355e+00,-1.301742795958679178e-06,5.996600111596036653e-05
2.414285714285714146e+00,-2.449134385760183787e-06,6.869478048538678599e-05
2.415079365079364937e+00,-3.662404776705242847e-06,7.242234259219994870e-05
2.415873015873015728e+00,-4.766639095243578159e-06,6.858788257356708475e-05
2.416666666666666519e+00,-5.548311501652281433e-06,5.574644590904797171e-05
2.417460317460317309e+00,-5.771317759217910935e-06,3.391064418800263596e-05
2.418253968253968100e+00,-5.209943349605482335e-06,4.653642122669494756e-06
2.419047619047618891e+00,-3.696354411998693556e-06,-2.906070318779950941e-05
2.419841269841269682e+00,-1.176117949335359664e-06,-6.330130213590961651e-05
2.420634920634920473e+00,2.237954323381929284e-06,-9.377898441790755092e-05
2.421428571428571264e+00,6.227214155577259794e-06,-1.165430530821272070e-04
2.422222222222222054e+00,1.026101847577306483e-05,-1.286550898724695812e-04
2.423015873015872845e+00,1.364016912691260547e-05,-1.287269410156173847e-04
2.423809523809523636e+00,1.560103259754792336e-05,-1.172094944709318196e-04
2.424603174603174427e+00,1.547838961283900044e-05,-9.633494296436479788e-05
2.425396825396825218e+00,1.290366893945027837e-05,-6.967584214509842046e-05
2.426190476190476009e+00,7.987152806653062889e-06,-4.139369741848812850e-05
2.426984126984126799e+00,1.410862304944490403e-06,-1.536259337460955878e-05
2.427777777777777590e+00,-5.635401020527652575e-06,5.595834948840699679e-06
2.428571428571428381e+00,-1.169672705247926781e-05,2.016940790074912338e-05
2.429365079365079172e+00,-1.542406317070420908e-05,2.861187571166073579e-05
2.430158730158729963e+00,-1.595965546678775745e-05,3.242735060925955423e-05
2.430952380952380754e+00,-1.320393559093107857e-05,3.380954644582085820e-05
2.431746031746031544e+00,-7.866933984332364341e-06,3.501018451835783308e-05
2.432539682539682335e+00,-1.280484451260569028e-06,3.779437482611771232e-05
2.433333333333333126e+00,4.974038323632315536e-06,4.307698965375004161e-05
2.434126984126983917e+00,9.510124973000742498e-06,5.076554833206152505e-05
2.434920634920634708e+00,1.151771154943264255e-05,5.979659173618019174e-05
2.435714285714285499e+00,1.096471609231213985e-05,6.834448167434971995e-05
2.436507936507936289e+00,8.557264605175758952e-06,7.418036684340807902e-05
2.437301587301587080e+00,5.476094655162393746e-06,7.514507343619621061e-05
2.438095238095238315e+00,2.979423283281427204e-06,6.967110396949989742e-05
2.438888888888889106e+00,2.001304518247106495e-06,5.725596680151024808e-05
2.439682539682539897e+00,2.868231769954800380e-06,3.876553448066710094e-05
2.440476190476190688e+00,5.213861884176447525e-06,1.644904217329346046e-05
2.441269841269841478e+00,8.109757069267193859e-06,-6.403475214566208339e-06
2.442063492063492269e+00,1.036623512081685600e-05,-2.612746441922882164e-05
2.442857142857143060e+00,1.090635433680301756e-05,-3.951360884732736488e-05
2.443650793650793851e+00,9.091241516312626862e-06,-4.455966714536686201e-05
2.444444444444444642e+00,4.888762177045714380e-06,-4.092339467338464599e-05
2.445238095238095433e+00,-1.166218701877485604e-06,-2.996624783150306207e-05
2.446031746031746223e+00,-8.189119020398656946e-06,-1.441040113205742163e-05
2.446825396825397014e+00,-1.523733227633059058e-05,2.274584851700888845e-06
2.447619047619047805e+00,-2.154934837395363682e-05,1.660010066583537510e-05
2.448412698412698596e+00,-2.664193104568249394e-05,2.574777595996932325e-05
2.449206349206349387e+00,-3.025308883934259681e-05,2.809002934842273693e-05
2.450000000000000178e+00,-3.219321775439704179e-05,2.345067842340017476e-05
2.450793650793650968e+00,-3.220385285439578501e-05,1.306493332806370687e-05
2.451587301587301759e+00,-2.991240205927351970e-05,-7.415370463168050787e-07
2.452380952380952550e+00,-2.492425939505726339e-05,-1.507421187199902030e-05
2.453174603174603341e+00,-1.703247807920392633e-05,-2.706793646302164030e-05
2.453968253968254132e+00,-6.470708960080282673e-06,-3.442615724316744656e-05
2.454761904761904923e+00,5.895555738756659710e-06,-3.579114125575762320e-05
2.455555555555555713e+00,1.854018505363975875e-05,-3.088947586593213058e-05
2.456349206349206504e+00,2.946978492989786526e-05,-2.046191325134418296e-05
2.457142857142857295e+00,3.662944020379505790e-05,-6.039240890751528730e-06
2.457936507936508086e+00,3.843047170929081235e-05,1.035158790074582761e-05
2.458730158730158877e+00,3.424411547090665313e-05,2.647854554249289363e-05
2.459523809523809668e+00,2.468474396523089471e-05,4.015502699972396021e-05
2.460317460317460458e+00,1.155427049305113799e-05,4.944939774150230468e-05
2.461111111111111249e+00,-2.568782655796985741e-06,5.287389375981945642e-05
2.461904761904762040e+00,-1.497833090373993346e-05,4.956713194080392614e-05
2.462698412698412831e+00,-2.351811335848483461e-05,3.945796768765895863e-05
2.463492063492063622e+00,-2.707217433199037287e-05,2.337172196835839177e-05
2.464285714285714413e+00,-2.573270504197374070e-05,3.032382579148436579e-06
2.465079365079365203e+00,-2.062846986955711455e-05,-1.907166821132157253e-05
2.465873015873015994e+00,-1.350091559582170721e-05,-3.996970976325624133e-05
2.466666666666666785e+00,-6.171680493023982885e-06,-5.663299228306862892e-05
2.467460317460317576e+00,-5.109368092137103167e-08,-6.651711572819558156e-05
2.468253968253968367e+00,4.193930815703262934e-06,-6.815919165935358534e-05
2.469047619047619158e+00,6.744277330305819221e-06,-6.170019810913842371e-05
2.469841269841269948e+00,8.491490558338622368e-06,-4.914079102581665374e-05
2.470634920634920739e+00,1.069761888001982709e-05,-3.414334541770470814e-05
2.471428571428571530e+00,1.453876818332074843e-05,-2.130544393396472668e-05
2.472222222222222321e+00,2.065660913029965359e-05,-1.502120255390452077e-05
2.473015873015873112e+00,2.885213505167183906e-05,-1.822749348983561491e-05
2.473809523809523903e+00,3.802250211909599290e-05,-3.141500347826728552e-05
2.474603174603174693e+00,4.636879715497314202e-05,-5.223792786109670005e-05
2.475396825396825484e+00,5.181860178329443110e-05,-7.590466711952469883e-05
2.476190476190476275e+00,5.254653879657748469e-05,-9.631260207312137504e-05
2.476984126984127066e+00,4.745607963031547866e-05,-1.076420261974854079e-04
2.477777777777777857e+00,3.650256507421637908e-05,-1.059254836508330329e-04
2.478571428571428648e+00,2.077710073672517604e-05,-9.007581082190185557e-05
2.479365079365079438e+00,2.323916688639799848e-06,-6.205103541530589367e-05
2.480158730158730229e+00,-1.627529472200223783e-05,-2.617401137218523403e-05
2.480952380952381020e+00,-3.245596261602022684e-05,1.207582378120747928e-05
2.481746031746031811e+00,-4.422463364474223520e-05,4.736435389577073665e-05
2.482539682539682602e+00,-5.056074624565544954e-05,7.553694529452054693e-05
2.483333333333333393e+00,-5.155103616797722480e-05,9.419348986089418258e-05
2.484126984126984183e+00,-4.822589961871552036e-05,1.027825150353309182e-04
2.484920634920634974e+00,-4.216951745041143992e-05,1.023116548666873430e-04
2.485714285714285765e+00,-3.504734625795788525e-05,9.483177552719527885e-05
2.486507936507936556e+00,-2.820258799739661763e-05,8.286052996271470671e-05
2.487301587301587347e+00,-2.242285518306619713e-05,6.887993687348290233e-05
2.488095238095238138e+00,-1.790372795970246442e-05,5.498780282075495734e-05
2.488888888888888928e+00,-1.437312194666715477e-05,4.272284961275464989e-05
2.489682539682539719e+00,-1.130740826088523100e-05,3.303374221617638446e-05
2.490476190476190510e+00,-8.166006041550153441e-06,2.633353047855395041e-05
2.491269841269841301e+00,-4.585121612300765719e-06,2.257921797482595193e-05
2.492063492063492092e+00,-4.925018892721913041e-07,2.133895430007856653e-05
2.492857142857142883e+00,3.873346746836691304e-06,2.184398143348677065e-05
2.493650793650793673e+00,8.036482233619856463e-06,2.305102551031433354e-05
2.494444444444444464e+00,1.142915029937346022e-05,2.374994010341234212e-05
2.495238095238095255e+00,1.357502432980482794e-05,2.273854600962473549e-05
2.496031746031746046e+00,1.426542213733316599e-05,1.905864236499222529e-05
2.496825396825396837e+00,1.368075708562596965e-05,1.225483812282167699e-05
2.497619047619047628e+00,1.241582799875987825e-05,2.592420237934352285e-06
2.498412698412698418e+00,1.138592156577711027e-05,-8.837890065188660046e-06
2.499206349206349209e+00,1.162151014175546770e-05,-2.018594737075508395e-05
2.500000000000000000e+00,1.399620043568701394e-05,-2.910194077365559713e-05
2.500793650793650791e+00,1.896080682943145985e-05,-3.316919790349867001e-05
2.501587301587301582e+00,2.636019261273956515e-05,-3.044921012065433471e-05
2.502380952380952372e+00,3.538384992669510063e-05,-2.004662524095656079e-05
2.503174603174603163e+00,4.465780765404650933e-05,-2.576873270860636795e-06
2.503968253968253954e+00,5.244678686181879749e-05,1.959891111598532237e-05
2.504761904761904745e+00,5.691969886545014494e-05,4.250407677656482000e-05
2.505555555555555536e+00,5.643948063792079994e-05,6.112586635422297555e-05
2.506349206349206327e+00,4.985335752105068627e-05,7.041788235894805965e-05
2.507142857142857117e+00,3.676074940810356663e-05,6.654227485818828009e-05
2.507936507936507908e+00,1.771519803271157616e-05,4.802058830771792803e-05
2.508730158730158699e+00,-5.708968116104773590e-06,1.640451300592828276e-05
2.509523809523809490e+00,-3.105216979887538622e-05,-2.382575427879706496e-05
2.510317460317460281e+00,-5.532630420103569089e-05,-6.617952679190991668e-05
2.511111111111111072e+00,-7.553568344147473356e-05,-1.036287204977971575e-04
2.511904761904761862e+00,-8.924005807168234315e-05,-1.301641270945990282e-04
2.512698412698412653e+00,-9.501561118998594834e-05,-1.419617797176370730e-04
2.513492063492063444e+00,-9.269963603621765949e-05,-1.378865478254526320e-04
2.514285714285714235e+00,-8.336883197398698255e-05,-1.193335832111757820e-04
2.515079365079365026e+00,-6.906990636950267057e-05,-8.960772701725424391e-05
2.515873015873015817e+00,-5.237310284791510211e-05,-5.310460909502496483e-05
2.516666666666666607e+00,-3.584829615723804911e-05,-1.451575458128607552e-05
2.517460317460317398e+00,-2.156963830719997629e-05,2.180783458540046639e-05
2.518253968253968189e+00,-1.074020215827920883e-05,5.228868058503110627e-05
2.519047619047618980e+00,-3.499607328675890182e-06,7.436908728304898535e-05
2.519841269841269771e+00,1.054348212744090903e-06,8.661001823325721550e-05
2.520634920634920562e+00,4.629446539801579079e-06,8.867799814425343945e-05
2.521428571428571352e+00,9.319447932213549603e-06,8.124566854014896619e-05
2.522222222222222143e+00,1.706829321118610474e-05,6.582767257186261547e-05
2.523015873015872934e+00,2.911942884924227447e-05,4.457638584601421186e-05
2.523809523809523725e+00,4.557175193670663361e-05,2.006678076614583513e-05
2.524603174603174516e+00,6.515893202998495758e-05,-4.902318234263184492e-06
2.525396825396825307e+00,8.533351078355701593e-05,-2.747904312841427407e-05
2.526190476190476097e+00,1.026714728607748078e-04,-4.491580865288550428e-05
2.526984126984126888e+00,1.135274738843064963e-04,-5.474992841405842140e-05
2.527777777777777679e+00,1.147924458344275845e-04,-5.504723548368368314e-05
2.528571428571428470e+00,1.045708359959984709e-04,-4.472327860203675036e-05
2.529365079365079261e+00,8.262609735704723349e-05,-2.390561000671587451e-05
2.530158730158730052e+00,5.052231531928134804e-05,5.761127229236678137e-06
2.530952380952380842e+00,1.146780875200663577e-05,4.100858515408670229e-05
2.531746031746031633e+00,-3.009464527399687735e-05,7.716540640088204693e-05
2.532539682539682424e+00,-6.910061781568820191e-05,1.087488032745631680e-04
2.533333333333333215e+00,-1.006218579858156927e-04,1.303438171515577319e-04
2.534126984126984006e+00,-1.206780560195170812e-04,1.375873879054063866e-04
2.534920634920634797e+00,-1.269620965951826126e-04,1.280461708708542092e-04
2.535714285714285587e+00,-1.193061962139850546e-04,1.018006395765287767e-04
2.536507936507936378e+00,-9.973812463023447685e-05,6.158487256213013294e-05
2.537301587301587169e+00,-7.206773360679479099e-05,1.239243126265457461e-05
2.538095238095237960e+00,-4.108022441571990038e-05,-3.941554148224247518e-05
2.538888888888888751e+00,-1.153867069253560788e-05,-8.729090135286234260e-05
2.539682539682539542e+00,1.274053176264948459e-05,-1.256369573529659601e-04
2.540476190476190332e+00,2.950420817401830072e-05,-1.505970032922015350e-04
2.541269841269841123e+00,3.824043316683874226e-05,-1.603489743324808432e-04
2.542063492063491914e+00,3.992634082458967800e-05,-1.549666230503729926e-04
2.542857142857142705e+00,3.647717241504290552e-05,-1.360365245141290666e-04
2.543650793650793496e+00,3.009641686700810086e-05,-1.062242910912801404e-04
2.544444444444444287e+00,2.272340385363196227e-05,-6.889982239123908453e-05
2.545238095238095077e+00,1.570790551163510294e-05,-2.783707446155708282e-05
2.546031746031745868e+00,9.742584240098527839e-06,1.304806726124767772e-05
2.546825396825396659e+00,4.995207500866797340e-06,4.996274017996334198e-05
2.547619047619047450e+00,1.335851364689384828e-06,7.952544923570059544e-05
2.548412698412698241e+00,-1.442128075603051687e-06,9.907229649839779028e-05
2.549206349206349032e+00,-3.471302590013953160e-06,1.069507496772536495e-04
2.549999999999999822e+00,-4.749289481097005451e-06,1.027514627536508341e-04
2.550793650793650613e+00,-5.155608052463029093e-06,8.742229694377497953e-05
2.551587301587301404e+00,-4.518725132857406283e-06,6.321878898777026233e-05
2.552380952380952195e+00,-2.701844123764917953e-06,3.346912267972276567e-05
2.553174603174602986e+00,3.213068803619545107e-07,2.164743234471980018e-06
2.553968253968253777e+00,4.421626610467773005e-06,-2.657522915082526354e-05
2.554761904761904567e+00,9.309567604387472249e-06,-4.908693646406721821e-05
2.555555555555555358e+00,1.456536413717288890e-05,-6.269962978685019708e-05
2.556349206349206149e+00,1.969071999633415228e-05,-6.614086696931713815e-05
2.557142857142856940e+00,2.416646957641557168e-05,-5.973797753210703941e-05
2.557936507936507731e+00,2.750578757265864812e-05,-4.536876734376030001e-05
2.558730158730158522e+00,2.929958684611382995e-05,-2.614880296116977790e-05
2.559523809523809312e+00,2.925588289616055289e-05,-5.888338212787887320e-06
2.560317460317460103e+00,2.723684394656298533e-05,1.159908986719052082e-05
2.561111111111110894e+00,2.329579103453956770e-05,2.321457925674704894e-05
2.561904761904761685e+00,1.771132509392061853e-05,2.717314627492866137e-05
2.562698412698412920e+00,1.100697979569444706e-05,2.333673707423908450e-05
2.563492063492063711e+00,3.933874231957270000e-06,1.316576331300406535e-05
2.564285714285714501e+00,-2.612291276698764142e-06,-7.359295771639741970e-07
2.565079365079365292e+00,-7.756833868522715504e-06,-1.536217380349401673e-05
2.565873015873016083e+00,-1.087338792013217119e-05,-2.807532918780707718e-05
2.566666666666666874e+00,-1.180021900902026350e-05,-3.712644142769728220e-05
2.567460317460317665e+00,-1.094081542843263053e-05,-4.177441862423856938e-05
2.568253968253968456e+00,-9.166933442832501496e-06,-4.206100337730631761e-05
2.569047619047619246e+00,-7.527062142034807547e-06,-3.844452773368935589e-05
2.569841269841270037e+00,-6.870111181075618327e-06,-3.149990234369840267e-05
2.570634920634920828e+00,-7.553275457765887588e-06,-2.178678980430469151e-05
2.571428571428571619e+00,-9.366783755906042647e-06,-9.870338390974848415e-06
2.572222222222222410e+00,-1.169446701820407058e-05,3.579059177546631654e-06
2.573015873015873201e+00,-1.381092148653183462e-05,1.768060118599959303e-05
2.573809523809523991e+00,-1.516513653836005344e-05,3.128878572011154158e-05
2.574603174603174782e+00,-1.553573400348907510e-05,4.303196210162610504e-05
2.575396825396825573e+00,-1.502655625702830814e-05,5.146621701039300463e-05
2.576190476190476364e+00,-1.394657043252108526e-05,5.533426639209759919e-05
2.576984126984127155e+00,-1.265043852592381132e-05,5.387878003360191409e-05
2.577777777777777946e+00,-1.140621119456133287e-05,4.712632161675409841e-05
2.578571428571428736e+00,-1.032567939515835534e-05,3.604740333809978542e-05
2.579365079365079527e+00,-9.361934281570167781e-06,2.251873606577576098e-05
2.580158730158730318e+00,-8.357983900679557488e-06,9.062020127871948073e-06
2.580952380952381109e+00,-7.121411280071078305e-06,-1.603113461312683239e-06
2.581746031746031900e+00,-5.500476520642420763e-06,-7.094147925443652641e-06
2.582539682539682691e+00,-3.441917413708002639e-06,-5.856673120283228423e-06
2.583333333333333481e+00,-1.015328216995044451e-06,2.509557818254696619e-06
2.584126984126984272e+00,1.606649934421817831e-06,1.715617803246200236e-05
2.584920634920635063e+00,4.214487174979740465e-06,3.612076457225992779e-05
2.585714285714285854e+00,6.660795254524236073e-06,5.663727044579487527e-05
2.586507936507936645e+00,8.959841388020809864e-06,7.555155907685827681e-05
2.587301587301587436e+00,1.134197579449268017e-05,8.977313791340370188e-05
2.588095238095238226e+00,1.422015750276092953e-05,9.669220202306547400e-05
2.588888888888889017e+00,1.805078935007627759e-05,9.448372074159278782e-05
2.589682539682539808e+00,2.311442580897471867e-05,8.223876563938578859e-05
2.590476190476190599e+00,2.928643391004131071e-05,5.993485961019503615e-05
2.591269841269841390e+00,3.589012678156651101e-05,2.835340973015890403e-05
2.592063492063492181e+00,4.171104727379465493e-05,-1.091010922373221006e-05
2.592857142857142971e+00,4.520625540610008513e-05,-5.528617879903789797e-05
2.593650793650793762e+00,4.488549683260644287e-05,-1.010493134322672834e-04
2.594444444444444553e+00,3.978716725560942443e-05,-1.433866570830314173e-04
2.595238095238095344e+00,2.992537825008789693e-05,-1.769475338815750692e-04
2.596031746031746135e+00,1.655197762044195110e-05,-1.968569157742841504e-04
2.596825396825396925e+00,2.082994188578323912e-06,-1.998800672348097240e-04
2.597619047619047716e+00,-1.038765736788509746e-05,-1.852977839356976728e-04
2.598412698412698507e+00,-1.792271938336358048e-05,-1.551734946269650779e-04
2.599206349206349298e+00,-1.870017095333585206e-05,-1.139491901394851193e-04
2.600000000000000089e+00,-1.277273278904830539e-05,-6.752405613018239692e-05
2.600793650793650880e+00,-2.324282646643315456e-06,-2.207836524126209130e-05
2.601587301587301670e+00,8.740650039165747138e-06,1.706864845172924289e-05
2.602380952380952461e+00,1.582097810326893857e-05,4.631269353086318381e-05
2.603174603174603252e+00,1.497816893805731765e-05,6.417219415345269565e-05
2.603968253968254043e+00,4.198794051997429633e-06,7.122562809082817758e-05
2.604761904761904834e+00,-1.587742158443090955e-05,6.967112557849033266e-05
2.605555555555555625e+00,-4.203292072649852923e-05,6.266399104709103772e-05
2.606349206349206415e+00,-6.933044252307287499e-05,5.359731587808763182e-05
2.607142857142857206e+00,-9.244985727530394921e-05,4.546680414501624937e-05
2.607936507936507997e+00,-1.070487960040767219e-04,4.042034625886185666e-05
2.608730158730158788e+00,-1.107284476786223911e-04,3.954295852506524363e-05
2.609523809523809579e+00,-1.033715104957286533e-04,4.287062944304275330e-05
2.610317460317460370e+00,-8.685772610975026021e-05,4.957140036355245436e-05
2.611111111111111160e+00,-6.435217348225812355e-05,5.820099562096097876e-05
2.611904761904761951e+00,-3.944287164199890056e-05,6.695379541816551803e-05
2.612698412698412742e+00,-1.537777309471093125e-05,7.388111333387206508e-05
2.613492063492063533e+00,5.440634505951398594e-06,7.710150323290865140e-05
2.614285714285714324e+00,2.165259103228748180e-05,7.504300911059263069e-05
2.615079365079365115e+00,3.286936730492989977e-05,6.672240116913838437e-05
2.615873015873015905e+00,3.942806779622171000e-05,5.200583791362068455e-05
2.616666666666666696e+00,4.208694301205075414e-05,3.175455013168894999e-05
2.617460317460317487e+00,4.175812831391610821e-05,7.774656829872489956e-06
2.618253968253968278e+00,3.933153767887113267e-05,-1.743728507937211903e-05
2.619047619047619069e+00,3.559262365800383495e-05,-4.107646549054758779e-05
2.619841269841269860e+00,3.119983277478840931e-05,-6.042968042903993525e-05
2.620634920634920650e+00,2.667951584100599136e-05,-7.322603142317923733e-05
2.621428571428571441e+00,2.241496965063486340e-05,-7.794159257253471991e-05
2.622222222222222232e+00,1.863471561874850541e-05,-7.407427554398089784e-05
2.623015873015873023e+00,1.542158850285793329e-05,-6.233778085491025541e-05
2.623809523809523814e+00,1.275780684319408024e-05,-4.465058747893746005e-05
2.624603174603174605e+00,1.059838370533516385e-05,-2.381743458529761139e-05
2.625396825396825395e+00,8.943523469205237261e-06,-2.933885916449149097e-06
2.626190476190476186e+00,7.874983421532380417e-06,1.530035205146590698e-05
2.626984126984126977e+00,7.535170500404745809e-06,2.911098166739663009e-05
2.627777777777777768e+00,8.053626850073407318e-06,3.784332927130677738e-05
2.628571428571428559e+00,9.451058353310886543e-06,4.179388447572836648e-05
2.629365079365079350e+00,1.156400435072110927e-05,4.179657201121669726e-05
2.630158730158730140e+00,1.402632248507144723e-05,3.875791946616986361e-05
2.630952380952380931e+00,1.631862441467804624e-05,3.332622404818100112e-05
2.631746031746031722e+00,1.786639731186489416e-05,2.580384265908828288e-05
2.632539682539682513e+00,1.815046508250344788e-05,1.630746954170052894e-05
2.633333333333333304e+00,1.680056249035422644e-05,5.087069037575369348e-06
2.634126984126984095e+00,1.366530715404412593e-05,-7.143645078888990651e-06
2.634920634920634885e+00,8.866825030005447182e-06,-1.901915004576210932e-05
2.635714285714285676e+00,2.840057866254504572e-06,-2.858418116006019197e-05
2.636507936507936467e+00,-3.666684826930671301e-06,-3.362989569013988148e-05
2.637301587301587258e+00,-9.665915272834751381e-06,-3.223755906100354900e-05
2.638095238095238049e+00,-1.409713622861768841e-05,-2.339469613910517216e-05
2.638888888888888840e+00,-1.605881664288381737e-05,-7.515154304542231424e-06
2.639682539682539630e+00,-1.504108532256128277e-05,1.330293848923084645e-05
2.640476190476190421e+00,-1.108469750239395289e-05,3.540722653952221638e-05
2.641269841269841212e+00,-4.814625656058615876e-06,5.415566965826076797e-05
2.642063492063492003e+00,2.662797905867803537e-06,6.485225280135155693e-05
2.642857142857142794e+00,9.969964551720984379e-06,6.387180469168074676e-05
2.643650793650793585e+00,1.572129579738709706e-05,4.969266819281941891e-05
2.644444444444444375e+00,1.878344229547855522e-05,2.351539017158887617e-05
2.645238095238095166e+00,1.848859329678118348e-05,-1.078807060216975300e-05
2.646031746031745957e+00,1.476847845743272565e-05,-4.745718461589669705e-05
2.646825396825396748e+00,8.180887718916445196e-06,-8.016083422100022651e-05
2.647619047619047539e+00,-1.906428849280160977e-07,-1.034551400249886113e-04
2.648412698412698330e+00,-8.956747203672442054e-06,-1.139518122344185518e-04
2.649206349206349120e+00,-1.671425610832326909e-05,-1.108995469989365124e-04
2.649999999999999911e+00,-2.232913593384182541e-05,-9.609335164181203941e-05
2.650793650793650702e+00,-2.512375687669011646e-05,-7.322009713695168756e-05
2.651587301587301493e+00,-2.491572259709661074e-05,-4.686750130853571602e-05
2.652380952380952284e+00,-2.191978143147283481e-05,-2.146528756141988207e-05
2.653174603174603075e+00,-1.658773166925695255e-05,-4.073552714378271093e-07
2.653968253968253865e+00,-9.483378529101788007e-06,1.446949194870924369e-05
2.654761904761904656e+00,-1.250813589031447168e-06,2.298503155268966127e-05
2.655555555555555447e+00,7.342778248752175529e-06,2.633669690758838348e-05
2.656349206349206238e+00,1.537027465433131503e-05,2.655958818182724965e-05
2.657142857142857029e+00,2.179726092979130466e-05,2.587933438841035055e-05
2.657936507936507819e+00,2.565379359729890891e-05,2.611878501148578066e-05
2.658730158730158610e+00,2.628331340692921221e-05,2.829283154352416193e-05
2.659523809523809401e+00,2.357702762863256464e-05,3.246255515399052891e-05
2.660317460317460192e+00,1.809233539146085256e-05,3.784151177114119759e-05
2.661111111111110983e+00,1.098573843941419563e-05,4.308814621990570190e-05
2.661904761904761774e+00,3.754819868166084632e-06,4.669554538926245124e-05
2.662698412698412564e+00,-2.143167979343979306e-06,4.738934625834760654e-05
2.663492063492063355e+00,-5.678704475664884205e-06,4.444723438471532065e-05
2.664285714285714146e+00,-6.521348620006907881e-06,3.786258906315243423e-05
2.665079365079364937e+00,-5.112312522295665803e-06,2.830917925441885384e-05
2.665873015873015728e+00,-2.517925269267717190e-06,1.692435903413173941e-05
2.666666666666666519e+00,-1.043044592409377703e-07,4.989586937177327188e-06
2.667460317460317309e+00,8.828590109027890112e-07,-6.378148225163026626e-06
2.668253968253968100e+00,-2.738811519506038555e-07,-1.641543326901745298e-05
2.669047619047618891e+00,-3.481001532474899876e-06,-2.472144412267805573e-05
2.669841269841269682e+00,-7.773718818661908044e-06,-3.110934105863570934e-05
2.670634920634920473e+00,-1.152906806836127996e-05,-3.541011320722720404e-05
2.671428571428571264e+00,-1.292288742284230045e-05,-3.737716637722754491e-05
2.672222222222222054e+00,-1.050947989916365858e-05,-3.678328732456418240e-05
2.673015873015872845e+00,-3.741822782434534848e-06,-3.366521735950322986e-05
2.673809523809523636e+00,6.747251050025764904e-06,-2.854653497632598911e-05
2.674603174603174427e+00,1.921433060899590498e-05,-2.245809278636838569e-05
2.675396825396825218e+00,3.122627517380311850e-05,-1.669218766815868462e-05
2.676190476190476009e+00,4.031495047807081574e-05,-1.238560206731670607e-05
2.676984126984126799e+00,4.465682519065595335e-05,-1.012119324637041517e-05
2.677777777777777590e+00,4.354014438829754887e-05,-9.725301650573666334e-06
2.678571428571428381e+00,3.744354692217969174e-05,-1.034678612278556465e-05
2.679365079365079172e+00,2.769679156410698279e-05,-1.078388547587646325e-05
2.680158730158729963e+00,1.587468714548557612e-05,-9.922270127542285329e-06
2.680952380952380754e+00,3.201003539832595016e-06,-7.103070738243917709e-06
2.681746031746031544e+00,-9.765347865544857128e-06,-2.279937985108701448e-06
2.682539682539682335e+00,-2.303300334644580575e-05,4.069255618847761280e-06
2.683333333333333126e+00,-3.675151904736285763e-05,1.119963348083920530e-05
2.684126984126983917e+00,-5.070228960066979667e-05,1.839319584013118558e-05
2.684920634920634708e+00,-6.398595282714240016e-05,2.517152368568121497e-05
2.685714285714285499e+00,-7.507318027444979144e-05,3.136686334939752468e-05
2.686507936507936289e+00,-8.219772066619150327e-05,3.705322078593790508e-05
2.687301587301587080e+00,-8.390963172437171944e-05,4.238248489562913742e-05
2.688095238095238315e+00,-7.954918466999604464e-05,4.739032687498418448e-05
2.688888888888889106e+00,-6.945909687801942790e-05,5.183770538979883680e-05
2.689682539682539897e+00,-5.487738188182247976e-05,5.514418528082505122e-05
2.690476190476190688e+00,-3.757842177201204211e-05,5.645243679079015633e-05
2.691269841269841478e+00,-1.940760161872225658e-05,5.483290791103155896e-05
2.692063492063492269e+00,-1.870736363522790452e-06,4.958716707355233797e-05
2.692857142857143060e+00,1.409549430288795126e-05,4.055129362444739324e-05
2.693650793650793851e+00,2.811309916060627373e-05,2.827372027682997571e-05
2.694444444444444642e+00,4.013473733506934242e-05,1.397680032709645649e-05
2.695238095238095433e+00,5.009679253840929243e-05,-6.988283800387093176e-07
2.696031746031746223e+00,5.760062198957686545e-05,-1.407034355961759282e-05
2.696825396825397014e+00,6.176868780296896667e-05,-2.476272997952532444e-05
2.697619047619047805e+00,6.136615873992908748e-05,-3.191282231019366083e-05
2.698412698412698596e+00,5.518241623955972755e-05,-3.519433149980409040e-05
2.699206349206349387e+00,4.256463923104816100e-05,-3.472408577344416214e-05
2.700000000000000178e+00,2.392339097727575340e-05,-3.095352627552592519e-05
2.700793650793650968e+00,1.014392493055655951e-06,-2.462152523641462023e-05
2.701587301587301759e+00,-2.314578326087642521e-05,-1.676750582265485655e-05
2.702380952380952550e+00,-4.475907986160485382e-05,-8.732577988804831465e-06
2.703174603174603341e+00,-6.001577266116137120e-05,-2.066251635164000843e-06
2.703968253968254132e+00,-6.595036550543104678e-05,1.683087154437558815e-06
2.704761904761904923e+00,-6.115013429864534736e-05,1.236817663792953890e-06
2.705555555555555713e+00,-4.612600389338664239e-05,-4.174388652338540567e-06
2.706349206349206504e+00,-2.324617765991349776e-05,-1.465452798989986391e-05
2.707142857142857295e+00,3.757810891406860478e-06,-2.956267859896758221e-05
2.707936507936508086e+00,3.059596780558519199e-05,-4.746958972693552726e-05
2.708730158730158877e+00,5.333142884120073809e-05,-6.614478643114696558e-05
2.709523809523809668e+00,6.915092822310067765e-05,-8.265627934619061831e-05
2.710317460317460458e+00,7.677560066545235028e-05,-9.371729289959506467e-05
2.711111111111111249e+00,7.640829762465018988e-05,-9.633819334988635201e-05
2.711904761904762040e+00,6.928594099052088034e-05,-8.865218015635552274e-05
2.712698412698412831e+00,5.706328456120615412e-05,-7.061183940813760837e-05
2.713492063492063622e+00,4.131117175948330924e-05,-4.423157465027151758e-05
2.714285714285714413e+00,2.332335752400926552e-05,-1.320485212094171889e-05
2.715079365079365203e+00,4.234447775046224115e-06,1.802485035588899793e-05
2.715873015873015994e+00,-1.472626829728271887e-05,4.543554815209421203e-05
2.716666666666666785e+00,-3.207640282228023442e-05,6.643416619802269157e-05
2.717460317460317576e+00,-4.616352846499536129e-05,8.035200169246041382e-05
2.718253968253968367e+00,-5.548163480772660072e-05,8.827244734256985874e-05
2.719047619047619158e+00,-5.908659192091778110e-05,9.227848285565288134e-05
2.719841269841269948e+00,-5.693106644117621080e-05,9.440418783140105345e-05
2.720634920634920739e+00,-4.997180869412558052e-05,9.565947626795695742e-05
2.721428571428571530e+00,-3.998254164458563977e-05,9.546168645065452446e-05
2.722222222222222321e+00,-2.910557794339088176e-05,9.168265498882086507e-05
2.723015873015873112e+00,-1.926872494602761870e-05,8.133943712585881339e-05
2.723809523809523903e+00,-1.165047848909280505e-05,6.174710551035039242e-05
2.724603174603174693e+00,-6.370825337074008615e-06,3.176290649337976146e-05
2.725396825396825484e+00,-2.515597486996877403e-06,-7.327469308715987407e-06
2.726190476190476275e+00,1.504681939844487392e-06,-5.162631759436124085e-05
2.726984126984127066e+00,7.366495241787382030e-06,-9.523080094489300455e-05
2.727777777777777857e+00,1.619348801856707458e-05,-1.314403788499378866e-04
2.728571428571428648e+00,2.806449501880610507e-05,-1.542078653801712046e-04
2.729365079365079438e+00,4.183126714516971424e-05,-1.594585335390318742e-04
2.730158730158730229e+00,5.531518189838187675e-05,-1.459831074024073630e-04
2.730952380952381020e+00,6.582914907053253890e-05,-1.157308048894012279e-04
2.731746031746031811e+00,7.086329110816112515e-05,-7.345903296628443577e-05
2.732539682539682602e+00,6.872778026364711752e-05,-2.582521408007158606e-05
2.733333333333333393e+00,5.897992538417374067e-05,1.988612511396059635e-05
2.734126984126984183e+00,4.254932299875948190e-05,5.714124409683280116e-05
2.734920634920634974e+00,2.156790591881197709e-05,8.136164738018252451e-05
2.735714285714285765e+00,-1.024053130380926691e-06,9.071078130654962649e-05
2.736507936507936556e+00,-2.199830217592143621e-05,8.631076615070013859e-05
2.737301587301587347e+00,-3.838800688748867279e-05,7.186917723720544779e-05
2.738095238095238138e+00,-4.798052675636302734e-05,5.282160490735549654e-05
2.738888888888888928e+00,-4.968137424896475256e-05,3.517532051105948682e-05
2.739682539682539719e+00,-4.369305110338223751e-05,2.426878415955942151e-05
2.740476190476190510e+00,-3.147675615866914872e-05,2.366083433484578689e-05
2.741269841269841301e+00,-1.549937545480292741e-05,3.434981660749268515e-05
2.742063492063492092e+00,1.193995068778105457e-06,5.449483495397295589e-05
2.742857142857142883e+00,1.551038934256483319e-05,7.974394222208531894e-05
2.743650793650793673e+00,2.485211185849755738e-05,1.041448112022738763e-04
2.744444444444444464e+00,2.757884623905294531e-05,1.214463477679191873e-04
2.745238095238095255e+00,2.330511165558307577e-05,1.264720016917957968e-04
2.746031746031746046e+00,1.297183726569947644e-05,1.162309025890317574e-04
2.746825396825396837e+00,-1.335526440199474299e-06,9.053828534995340277e-05
2.747619047619047628e+00,-1.680372645600493480e-05,5.207454092990574990e-05
2.748412698412698418e+00,-3.046862529190950535e-05,5.933485828697422228e-06
2.749206349206349209e+00,-3.982810084650289340e-05,-4.124411055449181055e-05
2.750000000000000000e+00,-4.334778816328788001e-05,-8.244513554037554142e-05
2.750793650793650791e+00,-4.074090757683456062e-05,-1.116133235964458261e-04
2.751587301587301582e+00,-3.296221569411147089e-05,-1.248838277905331450e-04
2.752380952380952372e+00,-2.192847666964523683e-05,-1.214077743247957142e-04
2.753174603174603163e+00,-1.004323838668964401e-05,-1.035099219450611211e-04
2.753968253968253954e+00,3.546953927822701646e-07,-7.611236427737338127e-05
2.754761904761904745e+00,7.492287127115382647e-06,-4.558120943381060178e-05
2.755555555555555536e+00,1.051094099084240842e-05,-1.830415112097712424e-05
2.756349206349206327e+00,9.604938386071756661e-06,6.496619130998024110e-07
2.757142857142857117e+00,5.938814905538379188e-06,8.477325819217448481e-06
2.757936507936507908e+00,1.371876757894373845e-06,4.992458495586457613e-06
2.758730158730158699e+00,-1.956126777614026719e-06,-7.664428389604195597e-06
2.759523809523809490e+00,-2.109927424924918759e-06,-2.580652040405896373e-05
2.760317460317460281e+00,2.162974767145692981e-06,-4.517495117088076519e-05
2.761111111111111072e+00,1.104526085163240869e-05,-6.178351305077960944e-05
2.761904761904761862e+00,2.344094608190346829e-05,-7.242990308993361211e-05
2.762698412698412653e+00,3.702170243366034751e-05,-7.487213340372185022e-05
2.763492063492063444e+00,4.857436108220046175e-05,-6.783795735314841096e-05
2.764285714285714235e+00,5.463661822204657061e-05,-5.106810684943089373e-05
2.765079365079365026e+00,5.232444840557420293e-05,-2.547765269979381352e-05
2.765873015873015817e+00,4.016954105655444615e-05,6.649857131267519354e-06
2.766666666666666607e+00,1.873556068512067279e-05,4.161937266247388035e-05
2.767460317460317398e+00,-9.200111975331415343e-06,7.459440995092612222e-05
2.768253968253968189e+00,-3.902085600344792964e-05,1.002342958642393202e-04
2.769047619047618980e+00,-6.517757230911661807e-05,1.136149924459889425e-04
2.769841269841269771e+00,-8.243938700000252070e-05,1.112304707204317942e-04
2.770634920634920562e+00,-8.716616875651799498e-05,9.181886272085662104e-05
2.771428571428571352e+00,-7.823850484060922291e-05,5.680275019511739457e-05
2.772222222222222143e+00,-5.736928972638349498e-05,1.025157353579382959e-05
2.773015873015872934e+00,-2.871504730194208264e-05,-4.160797480177890519e-05
2.773809523809523725e+00,2.080938158516366094e-06,-9.125277959751886469e-05
2.774603174603174516e+00,2.913721702947780296e-05,-1.310131334116724166e-04
2.775396825396825307e+00,4.756324740609457882e-05,-1.544083006726823114e-04
2.776190476190476097e+00,5.441251630068876633e-05,-1.574702486029680676e-04
2.776984126984126888e+00,4.919702291330404977e-05,-1.397351478372367724e-04
2.777777777777777679e+00,3.389436410932005774e-05,-1.045528540296625523e-04
2.778571428571428470e+00,1.246665974406983457e-05,-5.851390549463417569e-05
2.779365079365079261e+00,-9.999664354572833374e-06,-1.007744192166853535e-05
2.780158730158730052e+00,-2.834361838086970649e-05,3.224408061355567821e-05
2.780952380952380842e+00,-3.834147408347059850e-05,6.165574262923218896e-05
2.781746031746031633e+00,-3.748320283520532409e-05,7.436026602963621292e-05
2.782539682539682424e+00,-2.539975842029869923e-05,7.007097484079117774e-05
2.783333333333333215e+00,-3.917712202491109485e-06,5.171247290491932122e-05
2.784126984126984006e+00,2.322801570833931802e-05,2.448756331582736229e-05
2.784920634920634797e+00,5.098019001607891087e-05,-5.364471609615113506e-06
2.785714285714285587e+00,7.379906750376572281e-05,-3.177566592754649071e-05
2.786507936507936378e+00,8.667954777110141494e-05,-4.978936703243776819e-05
2.787301587301587169e+00,8.619566549903800881e-05,-5.615842041856428086e-05
2.788095238095237960e+00,7.134146572188607106e-05,-4.963840762357854894e-05
2.788888888888888751e+00,4.391402618464449988e-05,-3.103117690062241415e-05
2.789682539682539542e+00,8.265948291914719217e-06,-2.999939513321557359e-06
2.790476190476190332e+00,-2.957070248323661639e-05,3.034325900810781886e-05
2.791269841269841123e+00,-6.318725648098159800e-05,6.405697407203493003e-05
2.792063492063491914e+00,-8.718484586148561523e-05,9.312986196931739727e-05
2.792857142857142705e+00,-9.827309052852936059e-05,1.132646500905319350e-04
2.793650793650793496e+00,-9.580292582668094672e-05,1.215399488799286131e-04
2.794444444444444287e+00,-8.163456001867329186e-05,1.168112916640652311e-04
2.795238095238095077e+00,-5.944299918139757123e-05,9.977538347030458178e-05
2.796031746031745868e+00,-3.371452650673551079e-05,7.272559893008016547e-05
2.796825396825396659e+00,-8.736260106057075223e-06,3.911963662698427293e-05
2.797619047619047450e+00,1.217556860600757056e-05,3.102363556127267207e-06
2.798412698412698241e+00,2.708146406285923287e-05,-3.093218245224401531e-05
2.799206349206349032e+00,3.545452473099680921e-05,-5.874390341107910938e-05
2.799999999999999822e+00,3.792971487186703376e-05,-7.666929664111665299e-05
2.800793650793650613e+00,3.589018821769490562e-05,-8.209631972840597688e-05
2.801587301587301404e+00,3.101580351608387664e-05,-7.394170123380754112e-05
2.802380952380952195e+00,2.489588059916045300e-05,-5.298979905281701321e-05
2.803174603174602986e+00,1.877122373161533022e-05,-2.192511067110112282e-05
2.803968253968253777e+00,1.342743372334335667e-05,1.503196591301302625e-05
2.804761904761904567e+00,9.221252993567071796e-06,5.283112041566650883e-05
2.805555555555555358e+00,6.193091466830198387e-06,8.645941672816858140e-05
2.806349206349206149e+00,4.207916738568153624e-06,1.117507906672125486e-04
2.807142857142856940e+00,3.074015147213151730e-06,1.259699914206147391e-04
2.807936507936507731e+00,2.609980241177958872e-06,1.280977902519869803e-04
2.808730158730158522e+00,2.656257204556424902e-06,1.188269856652579944e-04
2.809523809523809312e+00,3.049525455158590291e-06,1.003209970601685744e-04
2.810317460317460103e+00,3.589349550128333590e-06,7.579622323946324191e-05
2.811111111111110894e+00,4.024794912426419422e-06,4.899143587301676945e-05
2.811904761904761685e+00,4.076987018292998242e-06,2.359835411631022590e-05
2.812698412698412920e+00,3.497193923423415498e-06,2.739838966079519145e-06
2.813492063492063711e+00,2.143648039826755814e-06,-1.142503484069342019e-05
2.814285714285714501e+00,4.825966275272014462e-08,-1.792586548471883400e-05
2.815079365079365292e+00,-2.557787673858749490e-06,-1.704075098688445427e-05
2.815873015873016083e+00,-5.278234026468008681e-06,-1.022528453956416131e-05
2.816666666666666874e+00,-7.640276798390782296e-06,6.378644957583668840e-08
2.817460317460317665e+00,-9.207751919556741131e-06,1.066123116260153893e-05
2.818253968253968456e+00,-9.678373718486495182e-06,1.813821521197160063e-05
2.819047619047619246e+00,-8.932842295730113657e-06,1.940511485982269403e-05
2.819841269841270037e+00,-7.026568621991131232e-06,1.238925333978570982e-05
2.820634920634920828e+00,-4.140295174964994620e-06,-3.387707769720585644e-06
2.821428571428571619e+00,-5.216499250501197419e-07,-2.653224717646858612e-05
2.822222222222222410e+00,3.551139022710833933e-06,-5.393252378982568571e-05
2.823015873015873201e+00,7.768602958413567619e-06,-8.134803028639139041e-05
2.823809523809523991e+00,1.176225978237732187e-05,-1.043096156550885349e-04
2.824603174603174782e+00,1.508066735193923431e-05,-1.191069133440171243e-04
2.825396825396825573e+00,1.720671722159366384e-05,-1.236016318422928533e-04
2.826190476190476364e+00,1.763925056758785587e-05,-1.176438763369048286e-04
2.826984126984127155e+00,1.603049846654266037e-05,-1.029849379451378330e-04
2.827777777777777946e+00,1.233585566643582453e-05,-8.273824067026597641e-05
2.828571428571428736e+00,6.912328485250524997e-06,-6.057524611414614795e-05
2.829365079365079527e+00,5.095482389433723778e-07,-3.989933089107069303e-05
2.830158730158730318e+00,-5.866962875078475923e-06,-2.320850268409299215e-05
2.830952380952381109e+00,-1.118962497926810675e-05,-1.176973033430804500e-05
2.831746031746031900e+00,-1.466512169519068239e-05,-5.625513798770848308e-06
2.832539682539682691e+00,-1.592344098881936113e-05,-3.867446114774768977e-06
2.833333333333333481e+00,-1.507374195714240555e-05,-5.059034037498144191e-06
2.834126984126984272e+00,-1.261509305910114765e-05,-7.677031801940968045e-06
2.834920634920635063e+00,-9.248341307050471363e-06,-1.046234720051950382e-05
2.835714285714285854e+00,-5.669379949229223515e-06,-1.261486592821408184e-05
2.836507936507936645e+00,-2.419500023798660653e-06,-1.381492157361125866e-05
2.837301587301587436e+00,1.680594755727725054e-07,-1.409539531850008394e-05
2.838095238095238226e+00,1.933617193863017737e-06,-1.361854543437686062e-05
2.838888888888889017e+00,2.812286913057829074e-06,-1.243166783904618514e-05
2.839682539682539808e+00,2.764484635323349555e-06,-1.028411493983343173e-05
2.840476190476190599e+00,1.753318933939579741e-06,-6.578224892489853609e-06
2.841269841269841390e+00,-2.237808535496619736e-07,-4.928177636354460494e-07
2.842063492063492181e+00,-3.070366991836924537e-06,8.734643813194465837e-06
2.842857142857142971e+00,-6.529502695397084015e-06,2.143558936722605052e-05
2.843650793650793762e+00,-1.016041266593227649e-05,3.715411427124257790e-05
2.844444444444444553e+00,-1.337336936957163193e-05,5.442571850149078845e-05
2.845238095238095344e+00,-1.552107623927083649e-05,7.079363834198198666e-05
2.846031746031746135e+00,-1.602388731595861244e-05,8.311965822547288084e-05
2.846825396825396925e+00,-1.449390556987569191e-05,8.817265542015931669e-05
2.847619047619047716e+00,-1.082346639202503137e-05,8.339087468868436987e-05
2.848412698412698507e+00,-5.215255978111823639e-06,6.763873473575222493e-05
2.849206349206349298e+00,1.851562117549952547e-06,4.174010977532152010e-05
2.850000000000000089e+00,9.708530818066393061e-06,8.586740609207137374e-06
2.850793650793650880e+00,1.761505151914513414e-05,-2.728846405449599196e-05
2.851587301587301670e+00,2.487354669445202774e-05,-6.061895710244748897e-05
2.852380952380952461e+00,3.090870079378502507e-05,-8.655885534892972623e-05
2.853174603174603252e+00,3.528741509717331175e-05,-1.017537755651021708e-04
2.853968253968254043e+00,3.768156965723302694e-05,-1.050371756338773868e-04
2.854761904761904834e+00,3.780711725798869107e-05,-9.759182216652364486e-05
2.855555555555555625e+00,3.539259449998266517e-05,-8.255943082988062131e-05
2.856349206349206415e+00,3.022234398387794825e-05,-6.420069231915755733e-05
2.857142857142857206e+00,2.226177095324845172e-05,-4.680460378751204772e-05
2.857936507936507997e+00,1.181836745772423456e-05,-3.361568573384031904e-05
2.858730158730158788e+00,-3.476742834414907389e-07,-2.606041816957891115e-05
2.859523809523809579e+00,-1.304647080187498568e-05,-2.348027368041589034e-05
2.860317460317460370e+00,-2.484513764906155561e-05,-2.342983451294099130e-05
2.861111111111111160e+00,-3.436962063730412525e-05,-2.243366922163866971e-05
2.861904761904761951e+00,-4.061358863337982396e-05,-1.698038095348569285e-05
2.862698412698412742e+00,-4.314235114408328735e-05,-4.498840825616167544e-06
2.863492063492063533e+00,-4.213302414854464597e-05,1.589936679861694643e-05
2.864285714285714324e+00,-3.826525123131693942e-05,4.305301039527777412e-05
2.865079365079365115e+00,-3.252355097432709619e-05,7.382803068899513980e-05
2.865873015873015905e+00,-2.597668613327283125e-05,1.036417495383593637e-04
2.866666666666666696e+00,-1.958011120649089386e-05,1.273679703511412646e-04
2.867460317460317487e+00,-1.402913180386641595e-05,1.404751298048870396e-04
2.868253968253968278e+00,-9.680277965019671381e-06,1.401741017509389631e-04
2.869047619047619069e+00,-6.550004937001369212e-06,1.263052852729567644e-04
2.869841269841269860e+00,-4.386545928134820547e-06,1.016914217823608815e-04
2.870634920634920650e+00,-2.793194913284053631e-06,7.174340922213803557e-05
2.871428571428571441e+00,-1.366546003438763567e-06,4.326291366582623102e-05
2.872222222222222232e+00,1.903850967182793845e-07,2.264115942400660129e-05
2.873015873015873023e+00,2.008961687462007970e-06,1.393078109227129715e-05
2.873809523809523814e+00,4.056879561771257317e-06,1.742521230340444372e-05
2.874603174603174605e+00,6.187314220953042882e-06,2.930272297969654512e-05
2.875396825396825395e+00,8.209465527266384150e-06,4.257672344358016139e-05
2.876190476190476186e+00,9.953902174151075261e-06,4.915466744404492212e-05
2.876984126984126977e+00,1.131349033362072666e-05,4.240699953259434722e-05
2.877777777777777768e+00,1.225342766096750415e-05,1.942192923067744326e-05
2.878571428571428559e+00,1.279793782898351654e-05,-1.783811258317575759e-05
2.879365079365079350e+00,1.300952403461341900e-05,-6.292437148748818718e-05
2.880158730158730140e+00,1.297436275106308946e-05,-1.067276709052722926e-04
2.880952380952380931e+00,1.279725170831648371e-05,-1.400961974708610691e-04
2.881746031746031722e+00,1.259963522098926068e-05,-1.563325799399084266e-04
2.882539682539682513e+00,1.251041519404144231e-05,-1.527806336140191733e-04
2.883333333333333304e+00,1.264197804292124490e-05,-1.311243830169057489e-04
2.884126984126984095e+00,1.305135370269703535e-05,-9.649985437106589127e-05
2.884920634920634885e+00,1.369690623050090992e-05,-5.586724451157119284e-05
2.885714285714285676e+00,1.441096485634308578e-05,-1.622072937619695233e-05
2.886507936507936467e+00,1.491181246018392133e-05,1.686160359249302734e-05
2.887301587301587258e+00,1.486803851645009568e-05,4.003561015523711132e-05
2.888095238095238049e+00,1.400465307825473095e-05,5.233681246376249490e-05
2.888888888888888840e+00,1.221432419327528156e-05,5.481273192563269469e-05
2.889682539682539630e+00,9.625357573161299991e-06,4.988401262085849931e-05
2.890476190476190421e+00,6.591330953639937466e-06,4.064754662968925240e-05
2.891269841269841212e+00,3.600777580208522878e-06,3.025162126649164336e-05
2.892063492063492003e+00,1.140469572917796068e-06,2.139913793798258585e-05
2.892857142857142794e+00,-4.366329104673587740e-07,1.599615570869336603e-05
2.893650793650793585e+00,-9.949593350877312060e-07,1.495012905943893150e-05
2.894444444444444375e+00,-6.319996501606231181e-07,1.811864834346398704e-05
2.895238095238095166e+00,3.664527767321216657e-07,2.440672271768037896e-05
2.896031746031745957e+00,1.606122369483652321e-06,3.200538598807482499e-05
2.896825396825396748e+00,2.669120912487090148e-06,3.875326650056333668e-05
2.897619047619047539e+00,3.181183916861932918e-06,4.258244029348167998e-05
2.898412698412698330e+00,2.853728022199173970e-06,4.198136093379142326e-05
2.899206349206349120e+00,1.508549884679878984e-06,3.637961499113594334e-05
2.899999999999999911e+00,-9.009455902792240087e-07,2.634697470656527152e-05
2.900793650793650702e+00,-4.265937404533194371e-06,1.351948058228610484e-05
2.901587301587301493e+00,-8.305800744414957529e-06,2.280300832056387358e-07
2.902380952380952284e+00,-1.258067685769438565e-05,-1.109854885612527522e-05
2.903174603174603075e+00,-1.655096105938939449e-05,-1.858898856896178670e-05
2.903968253968253865e+00,-1.968224265516636197e-05,-2.143419632418539213e-05
2.904761904761904656e+00,-2.156915450893518010e-05,-2.007519020573164125e-05
2.905555555555555447e+00,-2.203571042652105921e-05,-1.602308177879029500e-05
2.906349206349206238e+00,-2.117352274763193681e-05,-1.138632236800472599e-05
2.907142857142857029e+00,-1.930262473613305745e-05,-8.261176721386418481e-06
2.907936507936507819e+00,-1.687070519537215875e-05,-8.158743172161760242e-06
2.908730158730158610e+00,-1.432842807206499208e-05,-1.161288345111956508e-05
2.909523809523809401e+00,-1.202057044845825764e-05,-1.805980281338055688e-05
2.910317460317460192e+00,-1.011811753533004758e-05,-2.601314695381395163e-05
2.911111111111110983e+00,-8.597980841127919710e-06,-3.348682684728659340e-05
2.911904761904761774e+00,-7.265730011770178550e-06,-3.855511344367108909e-05
2.912698412698412564e+00,-5.814023520872469693e-06,-3.990152623063331761e-05
2.913492063492063355e+00,-3.908875234899870560e-06,-3.720533730284087098e-05
2.914285714285714146e+00,-1.291837836944134360e-06,-3.125109425900348482e-05
2.915079365079364937e+00,2.121050524412250511e-06,-2.371851317981959464e-05
2.915873015873015728e+00,6.168835627651627403e-06,-1.670143594310302920e-05
2.916666666666666519e+00,1.042929459507143899e-05,-1.208773690945238194e-05
2.917460317460317309e+00,1.427275147647904934e-05,-1.097826054030792951e-05
2.918253968253968100e+00,1.698216890472052992e-05,-1.331555392550574864e-05
2.919047619047618891e+00,1.791140981230383131e-05,-1.783536906644536460e-05
2.919841269841269682e+00,1.663758241489827474e-05,-2.236549372255235388e-05
2.920634920634920473e+00,1.306571501981206538e-05,-2.440403043123019687e-05
2.921428571428571264e+00,7.463567852318540986e-06,-2.183519899445322289e-05
2.922222222222222054e+00,4.292778909775997001e-07,-1.359913208601793982e-05
2.923015873015872845e+00,-7.189155008417562658e-06,-1.318856191053555345e-07
2.923809523809523636e+00,-1.440228454277906214e-05,1.656256678298689887e-05
2.924603174603174427e+00,-2.020416381232696578e-05,3.326138683725654864e-05
2.925396825396825218e+00,-2.370926528345530446e-05,4.623980013871484257e-05
2.926190476190476009e+00,-2.429248463107065671e-05,5.219965410988749023e-05
2.926984126984126799e+00,-2.171005467238078259e-05,4.917746377726304004e-05
2.927777777777777590e+00,-1.616895412112402555e-05,3.717477890880355174e-05
2.928571428571428381e+00,-8.316967444593260407e-06,1.829991836228174118e-05
2.929365079365079172e+00,8.537101897978023171e-07,-3.665250702814571237e-06
2.930158730158729963e+00,1.017002480279706309e-05,-2.417860484699141570e-05
2.930952380952380754e+00,1.847102336925348246e-05,-3.906236365708576076e-05
2.931746031746031544e+00,2.478867053188356492e-05,-4.549104927302702610e-05
2.932539682539682335e+00,2.848330474598628374e-05,-4.255833660542955935e-05
2.933333333333333126e+00,2.931412202589143358e-05,-3.130465480682054544e-05
2.934126984126983917e+00,2.743827809008075218e-05,-1.426472327672650961e-05
2.934920634920634708e+00,2.334312808897689453e-05,5.281487291050609286e-06
2.935714285714285499e+00,1.772645880782347590e-05,2.411318075719917406e-05
2.936507936507936289e+00,1.135120487135753794e-05,3.969792320951918426e-05
2.937301587301587080e+00,4.911022676615253139e-06,5.049873913839007745e-05
2.938095238095238315e+00,-1.057335992099069751e-06,5.594700611585478933e-05
2.938888888888889106e+00,-6.195592056648495631e-06,5.619244469819001511e-05
2.939682539682539897e+00,-1.028768943653885610e-05,5.179200472781742291e-05
2.940476190476190688e+00,-1.319733548394418584e-05,4.346684346916840488e-05
2.941269841269841478e+00,-1.481691580344574623e-05,3.198336109752059330e-05
2.942063492063492269e+00,-1.505222745792194415e-05,1.815006845292380081e-05
2.942857142857143060e+00,-1.384564539466739692e-05,2.886452172670899176e-06
2.943650793650793851e+00,-1.122316750145548448e-05,-1.269393998793895892e-05
2.944444444444444642e+00,-7.343691116433311617e-06,-2.724551879323060488e-05
2.945238095238095433e+00,-2.528650540110716287e-06,-3.924490873388435103e-05
2.946031746031746223e+00,2.746089758778861794e-06,-4.715359328792736575e-05
2.946825396825397014e+00,7.904503136987159117e-06,-4.966268763017011635e-05
2.947619047619047805e+00,1.236312587540359447e-05,-4.596304606025378294e-05
2.948412698412698596e+00,1.563861759631631721e-05,-3.598228437309914030e-05
2.949206349206349387e+00,1.743972860933793988e-05,-2.054350885469545391e-05
2.950000000000000178e+00,1.771824716542679949e-05,-1.399379740902169377e-06
2.950793650793650968e+00,1.666628989784447499e-05,1.891758617795226587e-05
2.951587301587301759e+00,1.466255181753895694e-05,3.746834639373143507e-05
2.952380952380952550e+00,1.218352802746469882e-05,5.146365479166060855e-05
2.953174603174603341e+00,9.703143314538698240e-06,5.885609486842745866e-05
2.953968253968254132e+00,7.603010285417680232e-06,5.876800794966721415e-05
2.954761904761904923e+00,6.107122786959021513e-06,5.161201247491059682e-05
2.955555555555555713e+00,5.244791588693886570e-06,3.890318290544818948e-05
2.956349206349206504e+00,4.840283695816190670e-06,2.289925117326107936e-05
2.957142857142857295e+00,4.529323687570280221e-06,6.244889088841231127e-06
2.957936507936508086e+00,3.808163830358691452e-06,-8.283727316577725995e-06
2.958730158730158877e+00,2.123483137821803016e-06,-1.797050143613699642e-05
2.959523809523809668e+00,-9.956764318849700739e-07,-2.040926961933516289e-05
2.960317460317460458e+00,-5.780909147123587438e-06,-1.391738591469999934e-05
2.961111111111111249e+00,-1.208147766995381465e-05,1.885792495933695851e-06
2.961904761904762040e+00,-1.928704838587905399e-05,2.547175923701132827e-05
2.962698412698412831e+00,-2.636001442347768968e-05,5.301362911914182758e-05
2.963492063492063622e+00,-3.199322008810760005e-05,7.849250581996826057e-05
2.964285714285714413e+00,-3.487129821051774067e-05,9.449657283023471445e-05
2.965079365079365203e+00,-3.398066147408745571e-05,9.372076574931850464e-05
2.965873015873015994e+00,-2.889436791644485995e-05,7.091927340331954553e-05
2.966666666666666785e+00,-1.995729434393860889e-05,2.481595362116925272e-05
2.967460317460317576e+00,-8.313801832545112078e-06,-4.066006403106360730e-05
2.968253968253968367e+00,4.247611837011707110e-06,-1.163712402404210229e-04
2.969047619047619158e+00,1.561456788635662898e-05,-1.894333832900995296e-04
2.969841269841269948e+00,2.377335625212136056e-05,-2.458986772966651867e-04
2.970634920634920739e+00,2.724075757905055145e-05,-2.739928867177529636e-04
2.971428571428571530e+00,2.540536852556264075e-05,-2.670388861010375837e-04
2.972222222222222321e+00,1.869453910777357401e-05,-2.252629418486975837e-04
2.973015873015873112e+00,8.517911400753220728e-06,-1.559608833400122655e-04
2.973809523809523903e+00,-3.009249364849783951e-06,-7.192759302460346765e-05
2.974603174603174693e+00,-1.350025566825604266e-05,1.147099457286407711e-05
2.975396825396825484e+00,-2.078232783601657540e-05,7.981874133434765592e-05
2.976190476190476275e+00,-2.331883108369199757e-05,1.228369374273234843e-04
2.976984126984127066e+00,-2.048320309080933725e-05,1.364277775266764796e-04
2.977777777777777857e+00,-1.264859213677580994e-05,1.231063845455196643e-04
2.978571428571428648e+00,-1.104122247484358918e-06,9.081155768839555378e-05
2.979365079365079438e+00,1.216433682153752139e-05,5.051925012514723332e-05
2.980158730158730229e+00,2.478772365040978596e-05,1.337108628337114367e-05
2.980952380952381020e+00,3.438874637749967820e-05,-1.190245468534713847e-05
2.981746031746031811e+00,3.898638875831841329e-05,-2.064671291938119531e-05
2.982539682539682602e+00,3.738115945981309749e-05,-1.274324835380358501e-05
2.983333333333333393e+00,2.944424320530302181e-05,8.059542593823314655e-06
2.984126984126984183e+00,1.621807489953330835e-05,3.558894819302628481e-05
2.984920634920634974e+00,-2.407465790607525513e-07,6.298269905960660281e-05
2.985714285714285765e+00,-1.727469546747327430e-05,8.426729332953553173e-05
2.986507936507936556e+00,-3.219976265464162307e-05,9.546537693629392651e-05
2.987301587301587347e+00,-4.287689983554794621e-05,9.508852959555953992e-05
2.988095238095238138e+00,-4.811166753631048972e-05,8.403136340346078863e-05
2.988888888888888928e+00,-4.778015823817745073e-05,6.500250338508139277e-05
2.989682539682539719e+00,-4.268347396531652944e-05,4.169328210321712443e-05
2.990476190476190510e+00,-3.422060007798141977e-05,1.789623854486875333e-05
2.991269841269841301e+00,-2.400401002458367092e-05,-3.242168340170830439e-06
2.992063492063492092e+00,-1.352497691988283186e-05,-1.969852084944240624e-05
2.992857142857142883e+00,-3.931236315682699519e-06,-3.070494850173893905e-05
2.993650793650793673e+00,4.067675375413013441e-06,-3.654133399756602198e-05
2.994444444444444464e+00,1.018860655033071003e-05,-3.807953711705506909e-05
2.995238095238095255e+00,1.449674864736477518e-05,-3.624461564956946505e-05
2.996031746031746046e+00,1.730119836463350530e-05,-3.158411616505878811e-05
2.996825396825396837e+00,1.904809393669103132e-05,-2.409981288474593596e-05
2.997619047619047628e+00,2.021506261840861582e-05,-1.340461223923365783e-05
2.998412698412698418e+00,2.120048204369415611e-05,8.504102644146803395e-07
2.999206349206349209e+00,2.220965109800734081e-05,1.843764855768739280e-05
3.000000000000000000e+00,2.316299253785320900e-05,3.811576184720157984e-05
3.000793650793650791e+00,2.367155416921937449e-05,5.749225797581244924e-05
3.001587301587301582e+00,2.312161990106354688e-05,7.330584636206705009e-05
3.002380952380952372e+00,2.087359052815471807e-05,8.211751675639937650e-05
3.003174603174603163e+00,1.652287208318676767e-05,8.124080397854796303e-05
3.003968253968253954e+00,1.012413071536161521e-05,6.961220997450288332e-05
3.004761904761904745e+00,2.277334359962232824e-06,4.827938409947792796e-05
3.005555555555555536e+00,-5.976188375303537991e-06,2.030387332970262805e-05
3.006349206349206327e+00,-1.341955321065803842e-05,-9.912301502426934776e-06
3.007142857142857117e+00,-1.898986394122841305e-05,-3.766335064246614128e-05
3.007936507936507908e+00,-2.204613605027622405e-05,-5.901654923373934544e-05
3.008730158730158699e+00,-2.247726072576154580e-05,-7.162004750110856485e-05
3.009523809523809490e+00,-2.062161428138059189e-05,-7.504800974630276768e-05
3.010317460317460281e+00,-1.705268302016966074e-05,-7.064593737530508813e-05
3.011111111111111072e+00,-1.234117722110447808e-05,-6.097384820757059421e-05
3.011904761904761862e+00,-6.903350692110715797e-06,-4.902856503566160943e-05
3.012698412698412653e+00,-9.876058979552121634e-07,-3.745905600026136880e-05
3.013492063492063444e+00,5.227772191456499698e-06,-2.797357634101761974e-05
3.014285714285714235e+00,1.150529591778046388e-05,-2.107464360814161332e-05
3.015079365079365026e+00,1.746642260735861143e-05,-1.616145973212617087e-05
3.015873015873015817e+00,2.259550403467383412e-05,-1.193957922114816545e-05
3.016666666666666607e+00,2.632007175291442355e-05,-7.003496906655306562e-06
3.017460317460317398e+00,2.812795362237903749e-05,-4.220799517429017997e-07
3.018253968253968189e+00,2.767606752573164997e-05,7.839946469873568800e-06
3.019047619047618980e+00,2.485974505458976398e-05,1.678851219321815243e-05
3.019841269841269771e+00,1.983447465449892969e-05,2.460003578621313631e-05
3.020634920634920562e+00,1.300018187655858219e-05,2.910535241737078160e-05
3.021428571428571352e+00,4.962181904828648209e-06,2.843001255105315387e-05
3.022222222222222143e+00,-3.524926549426665293e-06,2.162362182552590140e-05
3.023015873015872934e+00,-1.163292857342241642e-05,9.114885843528836725e-06
3.023809523809523725e+00,-1.855787393342123119e-05,-7.130025625129253436e-06
3.024603174603174516e+00,-2.363304955766737622e-05,-2.380297954070454051e-05
3.025396825396825307e+00,-2.643684884235118814e-05,-3.678869414781129395e-05
3.026190476190476097e+00,-2.686790421684172704e-05,-4.196193507473654054e-05
3.026984126984126888e+00,-2.516255526331873373e-05,-3.612195543549436076e-05
3.027777777777777679e+00,-2.184102201001599175e-05,-1.790101339796561884e-05
3.028571428571428470e+00,-1.758491953054615106e-05,1.154429352754839759e-05
3.029365079365079261e+00,-1.306727934568646870e-05,4.825790165858475251e-05
3.030158730158730052e+00,-8.774032272570884478e-06,8.579385578637412156e-05
3.030952380952380842e+00,-4.867353263570053759e-06,1.161902181107756128e-04
3.031746031746031633e+00,-1.138736617417042549e-06,1.315295823931059301e-04
3.032539682539682424e+00,2.921105833055678184e-06,1.258057764077300650e-04
3.033333333333333215e+00,7.942362703251975667e-06,9.663855634310799473e-05
3.034126984126984006e+00,1.442751969136462640e-05,4.631848925904936395e-05
3.034920634920634797e+00,2.249883172045296392e-05,-1.821550741010721479e-05
3.035714285714285587e+00,3.171439828248487499e-05,-8.657899714191182961e-05
3.036507936507936378e+00,4.101598735907394891e-05,-1.470847653818198157e-04
3.037301587301587169e+00,4.884479404896690071e-05,-1.892927996631884528e-04
3.038095238095237960e+00,5.342030463588654443e-05,-2.063069327604668060e-04
3.038888888888888751e+00,5.313232295134272335e-05,-1.962266891958867768e-04
3.039682539682539542e+00,4.695912192216617219e-05,-1.623910978719584871e-04
3.040476190476190332e+00,3.480516887277668669e-05,-1.123690528165386667e-04
3.041269841269841123e+00,1.765773792405582145e-05,-5.598945743873166435e-05
3.042063492063491914e+00,-2.501247849532419195e-06,-2.980971718774165273e-06
3.042857142857142705e+00,-2.302724692804448736e-05,3.910407365864503726e-05
3.043650793650793496e+00,-4.111543843370103518e-05,6.614601928085904090e-05
3.044444444444444287e+00,-5.434772490535961609e-05,7.768675957759537591e-05
3.045238095238095077e+00,-6.114846760449272895e-05,7.627434290834842639e-05
3.046031746031745868e+00,-6.104602775900376597e-05,6.628472680152348341e-05
3.046825396825396659e+00,-5.469670657261487630e-05,5.261936256265261524e-05
3.047619047619047450e+00,-4.368959814175655800e-05,3.958699677158001261e-05
3.048412698412698241e+00,-3.019583349042210865e-05,3.014638348650868429e-05
3.049206349206349032e+00,-1.654626805807136956e-05,2.557156836834187914e-05
3.049999999999999822e+00,-4.821339811204756241e-06,2.551810494497106042e-05
3.050793650793650613e+00,3.476528665221703453e-06,2.841053440349971100e-05
3.051587301587301404e+00,7.617852515908840262e-06,3.203297941697081882e-05
3.052380952380952195e+00,7.683402428101478689e-06,3.418370900933442570e-05
3.053174603174602986e+00,4.448954802357326182e-06,3.325010190179168734e-05
3.053968253968253777e+00,-8.467582742421262001e-07,2.857774824619406699e-05
3.054761904761904567e+00,-6.792645102305807171e-06,2.055667836199290198e-05
3.055555555555555358e+00,-1.208966560463254283e-05,1.042686586524726016e-05
3.056349206349206149e+00,-1.577402092650242519e-05,-1.129676688839017201e-07
3.057142857142856940e+00,-1.734367487813870778e-05,-9.361979561356212269e-06
3.057936507936507731e+00,-1.677586768517046640e-05,-1.601255487206526516e-05
3.058730158730158522e+00,-1.444636289197441023e-05,-1.940050847609915775e-05
3.059523809523809312e+00,-1.098075131782632074e-05,-1.958075431992041543e-05
3.060317460317460103e+00,-7.079198514684020853e-06,-1.724489404107340529e-05
3.061111111111110894e+00,-3.355485329791616593e-06,-1.352472806587114282e-05
3.061904761904761685e+00,-2.213574504153173595e-07,-9.733201831259304541e-06
3.062698412698412920e+00,2.166295853072336197e-06,-7.087113555817199199e-06
3.063492063492063711e+00,3.891335058296357587e-06,-6.445433062538721447e-06
3.064285714285714501e+00,5.206421421964167780e-06,-8.095114056984956130e-06
3.065079365079365292e+00,6.425088851640866833e-06,-1.162544608109279954e-05
3.065873015873016083e+00,7.808916514811024175e-06,-1.593967955839505426e-05
3.066666666666666874e+00,9.482156315867861131e-06,-1.943862020380957993e-05
3.067460317460317665e+00,1.139753702317025604e-05,-2.036726533515996465e-05
3.068253968253968456e+00,1.336058364586939747e-05,-1.725843642173134740e-05
3.069047619047619246e+00,1.510094538128983254e-05,-9.363422545292192424e-06
3.069841269841270037e+00,1.636395211989339360e-05,3.053877851467574800e-06
3.070634920634920828e+00,1.698916830797957267e-05,1.865813560518544644e-05
3.071428571428571619e+00,1.694881953454493374e-05,3.525153896612986249e-05
3.072222222222222410e+00,1.633690420797535075e-05,5.019277022612982742e-05
3.073015873015873201e+00,1.532123900211942378e-05,6.090387842983934884e-05
3.073809523809523991e+00,1.408384143955620738e-05,6.534610590399219418e-05
3.074603174603174782e+00,1.277426224563537887e-05,6.239811427193198568e-05
3.075396825396825573e+00,1.148915257653593380e-05,5.210739251567077159e-05
3.076190476190476364e+00,1.027657545315843307e-05,3.577357545324825582e-05
3.076984126984127155e+00,9.152225249520969965e-06,1.579948995892769704e-05
3.077777777777777946e+00,8.112402649669951614e-06,-4.724164777046279381e-06
3.078571428571428736e+00,7.136090053480985519e-06,-2.264199404559002167e-05
3.079365079365079527e+00,6.179712593407672446e-06,-3.540909814988321257e-05
3.080158730158730318e+00,5.175001975397673149e-06,-4.162508740288166012e-05
3.080952380952381109e+00,4.038759038810835040e-06,-4.127505326082364894e-05
3.081746031746031900e+00,2.694866344006574368e-06,-3.561896048057937184e-05
3.082539682539682691e+00,1.099342198714160346e-06,-2.677349966321586520e-05
3.083333333333333481e+00,-7.448214387574907620e-07,-1.710795375546022984e-05
3.084126984126984272e+00,-2.791763479305069795e-06,-8.612747630413972866e-06
3.084920634920635063e+00,-4.974189682533849509e-06,-2.397247591973964274e-06
3.085714285714285854e+00,-7.230657544356640907e-06,1.559607842055406894e-06
3.086507936507936645e+00,-9.523425878953752549e-06,4.337921121421682931e-06
3.087301587301587436e+00,-1.183578392018057762e-05,7.687883673549374637e-06
3.088095238095238226e+00,-1.414709742137359267e-05,1.340408524680026420e-05
3.088888888888889017e+00,-1.639256131430868468e-05,2.261483313027893853e-05
3.089682539682539808e+00,-1.841906121900717310e-05,3.518358019674128288e-05
3.090476190476190599e+00,-1.994970630906804776e-05,4.941784714858206927e-05
3.091269841269841390e+00,-2.057097453518152733e-05,6.221941533846009863e-05
3.092063492063492181e+00,-1.975846960629697386e-05,6.969728181594877169e-05
3.092857142857142971e+00,-1.695535846177596465e-05,6.813389578224005776e-05
3.093650793650793762e+00,-1.170617773243822091e-05,5.508363620069927377e-05
3.094444444444444553e+00,-3.828145692295179945e-06,3.031607503100901995e-05
3.095238095238095344e+00,6.420128270785829743e-06,-3.690957216588848541e-06
3.096031746031746135e+00,1.822662704117476265e-05,-4.193545899610393957e-05
3.096825396825396925e+00,3.022353341174354897e-05,-7.781888515532663206e-05
3.097619047619047716e+00,4.062961277154392180e-05,-1.046467420564883599e-04
3.098412698412698507e+00,4.754132715063069355e-05,-1.172962093321627114e-04
3.099206349206349298e+00,4.933737521905566748e-05,-1.135295293485963456e-04
3.100000000000000089e+00,4.511939883880678847e-05,-9.452156950834208159e-05
3.100793650793650880e+00,3.507497846530049907e-05,-6.444207350850038394e-05
3.101587301587301670e+00,2.063420973340073064e-05,-2.925929868414641499e-05
3.102380952380952461e+00,4.319802756640966733e-06,4.832037609749057511e-06
3.103174603174603252e+00,-1.072865568757133067e-05,3.287973728824278188e-05
3.103968253968254043e+00,-2.146500094979773759e-05,5.213613109548772016e-05
3.104761904761904834e+00,-2.569667455824574734e-05,6.229075340388066570e-05
3.105555555555555625e+00,-2.267800292924368238e-05,6.498596648820052194e-05
3.106349206349206415e+00,-1.336327388122047848e-05,6.284839491449778297e-05
3.107142857142857206e+00,-2.450837833412834245e-07,5.840219576012407459e-05
3.107936507936507997e+00,1.318246168405423120e-05,5.323012349967233184e-05
3.108730158730158788e+00,2.320498088058429588e-05,4.762542086689047034e-05
3.109523809523809579e+00,2.673529717211357777e-05,4.079041613174219075e-05
3.110317460317460370e+00,2.204489767843914496e-05,3.145647560410792755e-05
3.111111111111111160e+00,9.225707128837846082e-06,1.867437124081077840e-05
3.111904761904761951e+00,-9.719574785394044373e-06,2.478438359174864638e-06
3.112698412698412742e+00,-3.119244166876009993e-05,-1.582639281296256101e-05
3.113492063492063533e+00,-5.067738199960820434e-05,-3.387043328660062851e-05
3.114285714285714324e+00,-6.366797181843270525e-05,-4.884795448181791203e-05
3.115079365079365115e+00,-6.665735326320567083e-05,-5.834252316374566034e-05
3.115873015873015905e+00,-5.797053977632031599e-05,-6.106673586262161121e-05
3.116666666666666696e+00,-3.822981654618537906e-05,-5.728470016199462147e-05
3.117460317460317487e+00,-1.032677598548697489e-05,-4.879565873604457642e-05
3.118253968253968278e+00,2.109460250528919197e-05,-3.848290176719753041e-05
3.119047619047619069e+00,5.051296077463196543e-05,-2.955251940866414123e-05
3.119841269841269860e+00,7.256217726235967170e-05,-2.467784262729780917e-05
3.120634920634920650e+00,8.302106341712603269e-05,-2.529345645920833186e-05
3.121428571428571441e+00,7.959795891204899841e-05,-3.123153250513290409e-05
3.122222222222222232e+00,6.238694392896771302e-05,-4.078646811179039772e-05
3.123015873015873023e+00,3.390513104870664400e-05,-5.117776376432050042e-05
3.123809523809523814e+00,-1.330019487161888788e-06,-5.928902285302390410e-05
3.124603174603174605e+00,-3.763966763067853470e-05,-6.249988435662825093e-05
3.125396825396825395e+00,-6.928867486122708668e-05,-5.939816398029350552e-05
3.126190476190476186e+00,-9.161876627486378183e-05,-5.017324158048891230e-05
3.126984126984126977e+00,-1.019410856080994992e-04,-3.656227938882170914e-05
3.127777777777777768e+00,-9.996342238858618940e-05,-2.134422826633446490e-05
3.128571428571428559e+00,-8.764240973984155554e-05,-7.520804968645118373e-06
3.129365079365079350e+00,-6.851133980269896750e-05,2.566453586104595751e-06
3.130158730158730140e+00,-4.668729647685335746e-05,7.907652954951250955e-06
3.130952380952380931e+00,-2.584591328668056924e-05,9.076726733999658276e-06
3.131746031746031722e+00,-8.437518172991718415e-06,7.990428192490411287e-06
3.132539682539682513e+00,4.677135919691493172e-06,7.257662761178491762e-06
3.133333333333333304e+00,1.412347348834134574e-05,9.333735554135275507e-06
3.134126984126984095e+00,2.151586130644862437e-05,1.574865548438542410e-05
3.134920634920634885e+00,2.872896742894416787e-05,2.663569584338352556e-05
3.135714285714285676e+00,3.714449722693666912e-05,4.067353752110834772e-05
3.136507936507936467e+00,4.707737072118021142e-05,5.542750379254763324e-05
3.137301587301587258e+00,5.753872008273361099e-05,6.797563444196359067e-05
3.138095238095238049e+00,6.641112429835478313e-05,7.564788229693045099e-05
3.138888888888888840e+00,7.100769416565897493e-05,7.669069675542939334e-05
3.139682539682539630e+00,6.887836707391014083e-05,7.069523746768470332e-05
3.140476190476190421e+00,5.863818795936414079e-05,5.869381408841132239e-05
3.141269841269841212e+00,4.055734233695703868e-05,4.292049779551599878e-05
3.142063492063492003e+00,1.670317168773012282e-05,2.632114801989594919e-05
3.142857142857142794e+00,-9.438458535461225076e-06,1.195769530856580722e-05
3.143650793650793585e+00,-3.375734916500751728e-05,2.460163899586203746e-06
3.144444444444444375e+00,-5.247943922311351075e-05,-3.679980922188995984e-07
3.145238095238095166e+00,-6.299599655063399485e-05,4.233927731403252200e-06
3.146031746031745957e+00,-6.432987593239188658e-05,1.590823010596964250e-05
3.146825396825396748e+00,-5.715142918578254409e-05,3.319831901336021908e-05
3.147619047619047539e+00,-4.341008781800389903e-05,5.365916482886902130e-05
3.148412698412698330e+00,-2.574978046301147253e-05,7.409375013758560317e-05
3.149206349206349120e+00,-6.903393714789093893e-06,9.094576306648469144e-05
3.149999999999999911e+00,1.077687711056696518e-05,1.008299423174371674e-04
3.150793650793650702e+00,2.557354151961639051e-05,1.011208811696222482e-04
3.151587301587301493e+00,3.644677660390071758e-05,9.047731360391587441e-05
3.152380952380952284e+00,4.293444459855211249e-05,6.916569775575113317e-05
3.153174603174603075e+00,4.500279407379730414e-05,3.907471501474010951e-05
3.153968253968253865e+00,4.292692788278101509e-05,3.386792511783424119e-06
3.154761904761904656e+00,3.723724630755357944e-05,-3.402391361163785644e-05
3.155555555555555447e+00,2.871683644815696806e-05,-6.930770295329888797e-05
3.156349206349206238e+00,1.839756917670518440e-05,-9.927279585747240704e-05
3.157142857142857029e+00,7.497849670374813346e-06,-1.217693961538152971e-04
3.157936507936507819e+00,-2.723508084852562324e-06,-1.357479564517237295e-04
3.158730158730158610e+00,-1.117225896271466262e-05,-1.410338499150397848e-04
3.159523809523809401e+00,-1.711725763502347229e-05,-1.379565467496651873e-04
3.160317460317460192e+00,-2.030874056438559843e-05,-1.270066513605339607e-04
3.161111111111110983e+00,-2.096797677211731560e-05,-1.086664735568232642e-04
3.161904761904761774e+00,-1.964530318140234592e-05,-8.348349449916928717e-05
3.162698412698412564e+00,-1.698911139607008853e-05,-5.234860270476418992e-05
3.163492063492063355e+00,-1.349801121643199888e-05,-1.684016057533151595e-05
3.164285714285714146e+00,-9.335156858539430384e-06,2.054796760415898918e-05
3.165079365079364937e+00,-4.268855065491037556e-06,5.644036656233081771e-05
3.165873015873015728e+00,2.227592298191731283e-06,8.693208299979615053e-05
3.166666666666666519e+00,1.072512757905975501e-05,1.082111854198860673e-04
3.167460317460317309e+00,2.149069051347136930e-05,1.173160257912200978e-04
3.168253968253968100e+00,3.413650121275971802e-05,1.128373304447650744e-04
3.169047619047618891e+00,4.738868339598446318e-05,9.536949549778821395e-05
3.169841269841269682e+00,5.909301203289370902e-05,6.756294372519110756e-05
3.170634920634920473e+00,6.652647313857571528e-05,3.372415561348019526e-05
3.171428571428571264e+00,6.698977584545399500e-05,-9.652858778655399910e-07
3.172222222222222054e+00,5.854424612585167433e-05,-3.142079233488821852e-05
3.173015873015872845e+00,4.067509567181163169e-05,-5.356956311598065883e-05
3.173809523809523636e+00,1.465763119768254470e-05,-6.499837705120350897e-05
3.174603174603174427e+00,-1.651532720041250639e-05,-6.523883368352026359e-05
3.175396825396825218e+00,-4.864983037534603352e-05,-5.570883765217401269e-05
3.176190476190476009e+00,-7.717796537672203981e-05,-3.937990916793806146e-05
3.176984126984126799e+00,-9.807172837687856324e-05,-2.022949040364624892e-05
3.177777777777777590e+00,-1.086029844102649072e-04,-2.521145453318682504e-06
3.178571428571428381e+00,-1.077672052972758834e-04,1.001676363975874955e-05
3.179365079365079172e+00,-9.629778287959116809e-05,1.497310542177512739e-05
3.180158730158729963e+00,-7.632039104353964564e-05,1.179516280666438652e-05
3.180952380952380754e+00,-5.079348911369334027e-05,1.896990058295727730e-06
3.181746031746031544e+00,-2.291945666899185234e-05,-1.175298829130523165e-05
3.182539682539682335e+00,4.319656968141180152e-06,-2.548176960089460101e-05
3.183333333333333126e+00,2.842835837619265023e-05,-3.594545842362348618e-05
3.184126984126983917e+00,4.748465097360651658e-05,-4.100908694002084267e-05
3.184920634920634708e+00,6.013171711739692210e-05,-4.019032441303075400e-05
3.185714285714285499e+00,6.557318679193135946e-05,-3.455742632496692102e-05
3.186507936507936289e+00,6.363282577348687899e-05,-2.617254748437782287e-05
3.187301587301587080e+00,5.486780586810023256e-05,-1.731279406056761427e-05
3.188095238095238315e+00,4.065482239898936338e-05,-9.746304565737767085e-06
3.188888888888889106e+00,2.313959273284311015e-05,-4.291193402902544190e-06
3.189682539682539897e+00,4.976058495283204186e-06,-7.604217915161708808e-07
3.190476190476190688e+00,-1.112909120754376875e-05,1.757103855661276278e-06
3.191269841269841478e+00,-2.295198053258435438e-05,4.438820992334693724e-06
3.192063492063492269e+00,-2.919629081752854298e-05,8.275890540449979291e-06
3.192857142857143060e+00,-2.969563982436266685e-05,1.375414681850268902e-05
3.193650793650793851e+00,-2.531341412897654023e-05,2.071569756278818277e-05
3.194444444444444642e+00,-1.759959070697353136e-05,2.838505764625338167e-05
3.195238095238095433e+00,-8.348397099616395342e-06,3.552281662943803194e-05
3.196031746031746223e+00,7.924006652657128643e-07,4.068015774425203781e-05
3.196825396825397014e+00,8.570913829931323363e-06,4.253354572735225202e-05
3.197619047619047805e+00,1.423115025217065487e-05,4.025639616832605872e-05
3.198412698412698596e+00,1.751029088741347782e-05,3.384271344851081938e-05
3.199206349206349387e+00,1.858771268364148546e-05,2.426896671224454817e-05
3.200000000000000178e+00,1.801095981513323790e-05,1.339791440266871178e-05
3.200793650793650968e+00,1.658663466988179435e-05,3.602540195049527747e-06
3.201587301587301759e+00,1.521101891063685265e-05,-2.808625269628540972e-06
3.202380952380952550e+00,1.464026675972989978e-05,-4.206236024029091221e-06
3.203174603174603341e+00,1.524723091255221869e-05,-1.210868598704091465e-07
3.203968253968254132e+00,1.684705312579740796e-05,8.542973466038424253e-06
3.204761904761904923e+00,1.867103683669502171e-05,1.963122706160762670e-05
3.205555555555555713e+00,1.952647478294750752e-05,3.018380369735051825e-05
3.206349206349206504e+00,1.811579487799921533e-05,3.711073587895180435e-05
3.207142857142857295e+00,1.342606976925863474e-05,3.793282926150636197e-05
3.207936507936508086e+00,5.066385680166387803e-06,3.139710521858296929e-05
3.208730158730158877e+00,-6.554336784455901613e-06,1.780841762831035502e-05
3.209523809523809668e+00,-2.025651417418256430e-05,-9.969749144343087300e-07
3.210317460317460458e+00,-3.430068419054052700e-05,-2.201110369070202735e-05
3.211111111111111249e+00,-4.670614185508861218e-05,-4.165150414265525290e-05
3.211904761904762040e+00,-5.559342020008652607e-05,-5.647538104997804683e-05
3.212698412698412831e+00,-5.948231333161457140e-05,-6.388961401475241094e-05
3.213492063492063622e+00,-5.750166812354375116e-05,-6.272570031649565120e-05
3.214285714285714413e+00,-4.949273143304295776e-05,-5.353370436395778193e-05
3.215079365079365203e+00,-3.601274382205748887e-05,-3.847635648644243209e-05
3.215873015873015994e+00,-1.826576788197414078e-05,-2.080817312081115517e-05
3.216666666666666785e+00,2.005792964224797272e-06,-4.071580904432664732e-06
3.217460317460317576e+00,2.265086642026723550e-05,8.751265115805322662e-06
3.218253968253968367e+00,4.127340186732173058e-05,1.588555761178351360e-05
3.219047619047619158e+00,5.546621533077255467e-05,1.704826278080897743e-05
3.219841269841269948e+00,6.314255960210053838e-05,1.332958467888037295e-05
3.220634920634920739e+00,6.294660660230360174e-05,6.740041732701373804e-06
3.221428571428571530e+00,5.465794129000250832e-05,-4.350187408883104732e-07
3.222222222222222321e+00,3.945379419435719363e-05,-6.293730788344600813e-06
3.223015873015873112e+00,1.989011883984771628e-05,-9.802410082516210140e-06
3.223809523809523903e+00,-4.767750849027420590e-07,-1.095602044626910963e-05
3.224603174603174693e+00,-1.779707672044742109e-05,-1.055932932641670604e-05
3.225396825396825484e+00,-2.881196696736789071e-05,-9.717150914037246933e-06
3.226190476190476275e+00,-3.168053721589003359e-05,-9.254137780145694201e-06
3.226984126984127066e+00,-2.650097674563246835e-05,-9.326275359299071290e-06
3.227777777777777857e+00,-1.534692233171561598e-05,-9.397116754889063350e-06
3.228571428571428648e+00,-1.772258205148919896e-06,-8.569139474750510664e-06
3.229365079365079438e+00,1.010631253890122916e-05,-6.083093431208709590e-06
3.230158730158730229e+00,1.670634910834609203e-05,-1.725227249500551021e-06
3.230952380952381020e+00,1.594448675399273542e-05,4.048141910404963094e-06
3.231746031746031811e+00,7.780497012269564896e-06,1.029493417986853901e-05
3.232539682539682602e+00,-5.826136539126629403e-06,1.595059083150971870e-05
3.233333333333333393e+00,-2.152704850285162966e-05,2.018044193358103190e-05
3.234126984126984183e+00,-3.556016010500469857e-05,2.258144160134551061e-05
3.234920634920634974e+00,-4.477791238498034021e-05,2.319509502110843769e-05
3.235714285714285765e+00,-4.742007222158601480e-05,2.237328604850900745e-05
