Timestamp,Flexor carpi radialis,Extensor digitorum
2.000000000000000000e+00,-1.813008514599697733e-05,-2.873784853504916342e-05
2.000793650793650791e+00,-2.641441660095104093e-05,-2.850560502534316883e-05
2.001587301587301582e+00,-3.141954549486340324e-05,-2.475341673274837834e-05
2.002380952380952372e+00,-3.369304304370511293e-05,-1.718367409356861772e-05
2.003174603174603163e+00,-3.457308987778857055e-05,-6.232854585627681880e-06
2.003968253968253954e+00,-3.560353296519618444e-05,6.722057716416184465e-06
2.004761904761904745e+00,-3.784998306513602588e-05,1.937557998755081787e-05
2.005555555555555536e+00,-4.136333226328831801e-05,2.880741381866765385e-05
2.006349206349206327e+00,-4.498818772224648317e-05,3.209515935953910455e-05
2.007142857142857117e+00,-4.660079014160666531e-05,2.711644165660176230e-05
2.007936507936507908e+00,-4.372275479861172104e-05,1.333376772483230257e-05
2.008730158730158699e+00,-3.433384807696562618e-05,-7.692474062112045278e-06
2.009523809523809490e+00,-1.763461412523917500e-05,-3.228471834952948940e-05
2.010317460317460281e+00,5.484659955884954488e-06,-5.522711999809828216e-05
2.011111111111111072e+00,3.242363471148958177e-05,-7.087445855367751832e-05
2.011904761904761862e+00,5.931366653767465602e-05,-7.454601630991388307e-05
2.012698412698412653e+00,8.179359045922697101e-05,-6.383371352840730851e-05
2.013492063492063444e+00,9.590113754394045920e-05,-3.942570322431875881e-05
2.014285714285714235e+00,9.885080251737949904e-05,-5.145550471100696894e-06
2.015079365079365026e+00,8.953366071236048564e-05,3.287053922788618100e-05
2.015873015873015817e+00,6.867796794022727139e-05,6.765157353920398355e-05
2.016666666666666607e+00,3.870030769236986606e-05,9.308671315023187085e-05
2.017460317460317398e+00,3.320935499257281137e-06,1.053300279951409238e-04
2.018253968253968189e+00,-3.298366607139682148e-05,1.035290703175880740e-04
2.019047619047618980e+00,-6.562986445771999753e-05,8.973679975925511441e-05
2.019841269841269771e+00,-9.060909802005311954e-05,6.812441273519767679e-05
2.020634920634920562e+00,-1.051112584020215586e-04,4.379018095935147939e-05
2.021428571428571352e+00,-1.079842291273137763e-04,2.151812693282707234e-05
2.022222222222222143e+00,-9.993780781451649389e-05,4.793091566367817291e-06
2.023015873015872934e+00,-8.343475631233171952e-05,-4.736303783931232825e-06
2.023809523809523725e+00,-6.225959033119151070e-05,-7.296789186279330832e-06
2.024603174603174516e+00,-4.081484972383100387e-05,-4.611649866589043092e-06
2.025396825396825307e+00,-2.325920225236767765e-05,7.309476223890146184e-07
2.026190476190476097e+00,-1.265632167064307451e-05,5.976802261360077670e-06
2.026984126984126888e+00,-1.032876030644694785e-05,8.823099910858351165e-06
2.027777777777777679e+00,-1.559007141770190317e-05,7.868975013381032113e-06
2.028571428571428470e+00,-2.595098743471518143e-05,2.865297050648705272e-06
2.029365079365079261e+00,-3.776994593608707290e-05,-5.248987619916540615e-06
2.030158730158730052e+00,-4.718210478038548225e-05,-1.453426111682131946e-05
2.030952380952380842e+00,-5.104841223812529182e-05,-2.246105382883173616e-05
2.031746031746031633e+00,-4.765913102856424535e-05,-2.650730971821140013e-05
2.032539682539682424e+00,-3.701219377208017267e-05,-2.484652531051227849e-05
2.033333333333333215e+00,-2.063340328468996185e-05,-1.697167643411685362e-05
2.034126984126984006e+00,-1.050263017913355754e-06,-4.067548264612424487e-06
2.034920634920634797e+00,1.888594547150463870e-05,1.103422632306523683e-05
2.035714285714285587e+00,3.663450741502926667e-05,2.439308456058857457e-05
2.036507936507936378e+00,5.041760602089673612e-05,3.192088511720283107e-05
2.037301587301587169e+00,5.942777883091168793e-05,3.054239347254489718e-05
2.038095238095237960e+00,6.379563411959784957e-05,1.922578840840088470e-05
2.038888888888888751e+00,6.437243657882006512e-05,-4.555342934859605485e-07
2.039682539682539542e+00,6.240937368886158439e-05,-2.446862006127320418e-05
2.040476190476190332e+00,5.921991569553685557e-05,-4.722220159026057360e-05
2.041269841269841123e+00,5.589748450002934019e-05,-6.303712182420977736e-05
2.042063492063491914e+00,5.313532648649818145e-05,-6.778691906027195589e-05
2.042857142857142705e+00,5.116707920519214851e-05,-6.019581340796546992e-05
2.043650793650793496e+00,4.981965567890864064e-05,-4.233598374351447855e-05
2.044444444444444287e+00,4.864648927038398826e-05,-1.910708341911300233e-05
2.045238095238095077e+00,4.709221211175861364e-05,3.166664193157039192e-06
2.046031746031745868e+00,4.463647163543207490e-05,1.857154183168075847e-05
2.046825396825396659e+00,4.088056814030966129e-05,2.328019743696132217e-05
2.047619047619047450e+00,3.557241666679632555e-05,1.655362017706369098e-05
2.048412698412698241e+00,2.859785920218386486e-05,7.965873695686928914e-07
2.049206349206349032e+00,1.998060929636086443e-05,-1.929718533829903105e-05
2.049999999999999822e+00,9.919648479589092844e-06,-3.819929228430749994e-05
2.050793650793650613e+00,-1.140704778794436554e-06,-5.113012516165521678e-05
2.051587301587301404e+00,-1.244645928141683017e-05,-5.529823905591113906e-05
2.052380952380952195e+00,-2.292687207160616202e-05,-5.046397089609880923e-05
2.053174603174602986e+00,-3.128162693746612842e-05,-3.872852164082171684e-05
2.053968253968253777e+00,-3.617003838738053521e-05,-2.369450805706237699e-05
2.054761904761904567e+00,-3.648517401282911000e-05,-9.317430414032600115e-06
2.055555555555555358e+00,-3.167665500558021718e-05,1.185571341500471788e-06
2.056349206349206149e+00,-2.205812438737397461e-05,6.080974090403483850e-06
2.057142857142856940e+00,-8.998679702594871430e-06,5.378574056403705606e-06
2.057936507936507731e+00,5.119566348607515301e-06,6.218227119564568252e-07
2.058730158730158522e+00,1.725785971828527494e-05,-5.657676407049074255e-06
2.059523809523809312e+00,2.436967975547462236e-05,-1.063203902547142002e-05
2.060317460317460103e+00,2.418978450920046948e-05,-1.183577471460598495e-05
2.061111111111110894e+00,1.591678666269340226e-05,-7.669595924899456080e-06
2.061904761904761685e+00,5.442713050688924834e-07,2.301647837475092636e-06
2.062698412698412920e+00,-1.929579176409702525e-05,1.725892609949208968e-05
2.063492063492063711e+00,-3.994477807901345996e-05,3.523633084727680683e-05
2.064285714285714501e+00,-5.759804272598919607e-05,5.342438323436151748e-05
2.065079365079365292e+00,-6.919027178103091477e-05,6.866414730473644780e-05
2.065873015873016083e+00,-7.303912033985436342e-05,7.808546513360094211e-05
2.066666666666666874e+00,-6.909355528715234354e-05,7.977513996231523044e-05
2.067460317460317665e+00,-5.875904597789682112e-05,7.330738467326839878e-05
2.068253968253968456e+00,-4.438892938268215754e-05,5.996474641115928395e-05
2.069047619047619246e+00,-2.861071775559275923e-05,4.253355534929251371e-05
2.069841269841270037e+00,-1.368185454935999029e-05,2.466512946349750079e-05
2.070634920634920828e+00,-1.039826736958259153e-06,9.932050645793896623e-06
2.071428571428571619e+00,8.858903416552919928e-06,8.381198689684277383e-07
2.072222222222222410e+00,1.640301330071958062e-05,-1.898899986846462992e-06
2.073015873015873201e+00,2.246365799716028294e-05,4.678727312145211263e-07
2.073809523809523991e+00,2.792924094922103110e-05,5.144495974216562233e-06
2.074603174603174782e+00,3.328207104538979705e-05,8.700999857640578840e-06
2.075396825396825573e+00,3.834403184459454501e-05,8.146572864393218836e-06
2.076190476190476364e+00,4.226738283554655571e-05,1.833873192012136375e-06
2.076984126984127155e+00,4.377499690339685319e-05,-1.006394818546594615e-05
2.077777777777777946e+00,4.158168356748497181e-05,-2.561132693051292755e-05
2.078571428571428736e+00,3.487596635724259293e-05,-4.165612536124036592e-05
2.079365079365079527e+00,2.372310469985704332e-05,-5.468687482289276783e-05
2.080158730158730318e+00,9.265616014097378006e-06,-6.174756139065193221e-05
2.080952380952381109e+00,-6.359427972438046349e-06,-6.115624482900754004e-05
2.081746031746031900e+00,-2.040083308227667053e-05,-5.285452145469309097e-05
2.082539682539682691e+00,-3.010252519826168185e-05,-3.833963751250098716e-05
2.083333333333333481e+00,-3.339151985373421016e-05,-2.024640533250991224e-05
2.084126984126984272e+00,-2.944803874152430130e-05,-1.716511613388040283e-06
2.084920634920635063e+00,-1.897788018124106814e-05,1.428792688629843548e-05
2.085714285714285854e+00,-4.092098637451528059e-06,2.558959688130592181e-05
2.086507936507936645e+00,1.217571491041244939e-05,3.122350560683825296e-05
2.087301587301587436e+00,2.657088880471381969e-05,3.163247342114154767e-05
2.088095238095238226e+00,3.634070061381661730e-05,2.860750058693297155e-05
2.088888888888889017e+00,3.980167951492952086e-05,2.496997731358303901e-05
2.089682539682539808e+00,3.664043012945372360e-05,2.401338794770051311e-05
2.090476190476190599e+00,2.791032161620878165e-05,2.875640221123021016e-05
2.091269841269841390e+00,1.574479930407320273e-05,4.111046998025661418e-05
2.092063492063492181e+00,2.854297588909425468e-06,6.112400675896833711e-05
2.092857142857142971e+00,-8.086082923186558541e-06,8.651011415225197876e-05
2.093650793650793762e+00,-1.502194199772803487e-05,1.126640553185218350e-04
2.094444444444444553e+00,-1.693820783739280331e-05,1.333015935599178537e-04
2.095238095238095344e+00,-1.400676572368110147e-05,1.416919938007795668e-04
2.096031746031746135e+00,-7.434091987865616374e-06,1.322498415183825926e-04
2.096825396825396925e+00,9.271301017208141459e-07,1.020646265424717577e-04
2.097619047619047716e+00,9.066054554818091954e-06,5.189180548385857608e-05
2.098412698412698507e+00,1.524616398850326044e-05,-1.372815479682611213e-05
2.099206349206349298e+00,1.827053839788579325e-05,-8.725954301961561400e-05
2.100000000000000089e+00,1.755311423884568098e-05,-1.596038177330738237e-04
2.100793650793650880e+00,1.305160879526659720e-05,-2.217438201066786337e-04
2.101587301587301670e+00,5.154499411143753383e-06,-2.661887969710588020e-04
2.102380952380952461e+00,-5.407822017506643286e-06,-2.879628035691919868e-04
2.103174603174603252e+00,-1.761335627427335383e-05,-2.850726151094477899e-04
2.103968253968254043e+00,-3.019420958368621382e-05,-2.585317684052812937e-04
2.104761904761904834e+00,-4.172624600206440858e-05,-2.120511156089927767e-04
2.105555555555555625e+00,-5.079051960822931398e-05,-1.514587635061792181e-04
2.106349206349206415e+00,-5.619351642805611659e-05,-8.387519353744819913e-05
2.107142857142857206e+00,-5.719359055627198137e-05,-1.671117722249049046e-05
2.107936507936507997e+00,-5.366209193692627488e-05,4.335398019248916959e-05
2.108730158730158788e+00,-4.612029866786473075e-05,9.121132304360360431e-05
2.109523809523809579e+00,-3.563314006356419720e-05,1.238251354041658132e-04
2.110317460317460370e+00,-2.358888885505300512e-05,1.403534575155214155e-04
2.111111111111111160e+00,-1.142761179032822216e-05,1.419350535770587667e-04
2.111904761904761951e+00,-3.881714327360366059e-07,1.312414944040650911e-04
2.112698412698412742e+00,8.671759236686907792e-06,1.119050563907536728e-04
2.113492063492063533e+00,1.535373018507301654e-05,8.792405640426084008e-05
2.114285714285714324e+00,1.969219991672739570e-05,6.312599893535151370e-05
2.115079365079365115e+00,2.204469231235521099e-05,4.074275107862131178e-05
2.115873015873015905e+00,2.293579126001261647e-05,2.312861824161813705e-05
2.116666666666666696e+00,2.289889431790362393e-05,1.163258673887215190e-05
2.117460317460317487e+00,2.235493371401505786e-05,6.614851558990133033e-06
2.118253968253968278e+00,2.155312642900878076e-05,7.574873087197146483e-06
2.119047619047619069e+00,2.057916058524552765e-05,1.334321454735714036e-05
2.119841269841269860e+00,1.941572434509848536e-05,2.229223977866685451e-05
2.120634920634920650e+00,1.802445896802141065e-05,3.254058319131012111e-05
2.121428571428571441e+00,1.641350807757191075e-05,4.215108454770205424e-05
2.122222222222222232e+00,1.466416257290953159e-05,4.933609676298907705e-05
2.123015873015873023e+00,1.290989192475946222e-05,5.267762327785335087e-05
2.123809523809523814e+00,1.128194140245083369e-05,5.134489247035020100e-05
2.124603174603174605e+00,9.848896205053119500e-06,4.526428499880089806e-05
2.125396825396825395e+00,8.579378223080003809e-06,3.518527864122533022e-05
2.126190476190476186e+00,7.348520106213222666e-06,2.260011044468387240e-05
2.126984126984126977e+00,5.993767604218119362e-06,9.507470803915198871e-06
2.127777777777777768e+00,4.407697219598101325e-06,-1.951599121334407516e-06
2.128571428571428559e+00,2.638398163982393280e-06,-9.923030256934998344e-06
2.129365079365079350e+00,9.565527087323913280e-07,-1.324519442604797568e-05
2.130158730158730140e+00,-1.505732217484000786e-07,-1.173089242873397930e-05
2.130952380952380931e+00,-7.991487432251407210e-08,-6.243107331733429746e-06
2.131746031746031722e+00,1.702631654604856339e-06,1.469249651427910942e-06
2.132539682539682513e+00,5.440431662789626467e-06,9.140431737332744199e-06
2.133333333333333304e+00,1.089909522386466362e-05,1.446692068201755115e-05
2.134126984126984095e+00,1.728687817857767802e-05,1.558069619183381332e-05
2.134920634920634885e+00,2.332891971109473173e-05,1.142333248906179950e-05
2.135714285714285676e+00,2.749711667333705256e-05,1.967146984460822293e-06
2.136507936507936467e+00,2.835015455843063723e-05,-1.174359323398907869e-05
2.137301587301587258e+00,2.490313519793978659e-05,-2.774772820212107396e-05
2.138095238095238049e+00,1.693214277608529644e-05,-4.351665886245714758e-05
2.138888888888888840e+00,5.127243528101707632e-06,-5.645131180606271864e-05
2.139682539682539630e+00,-8.965383015231404815e-06,-6.442072232129165683e-05
2.140476190476190421e+00,-2.322680232797434685e-05,-6.620119748005803449e-05
2.141269841269841212e+00,-3.542663801528202737e-05,-6.169411041225000380e-05
2.142063492063492003e+00,-4.374590069933878436e-05,-5.187229520547698711e-05
2.142857142857142794e+00,-4.720081913073342569e-05,-3.849651445163167039e-05
2.143650793650793585e+00,-4.582547091410914231e-05,-2.370988398051692865e-05
2.144444444444444375e+00,-4.055930694790508401e-05,-9.631206247518045040e-06
2.145238095238095166e+00,-3.290230766357216103e-05,1.967801892941597094e-06
2.146031746031745957e+00,-2.448047474096260882e-05,9.871309600288320624e-06
2.146825396825396748e+00,-1.666928878863479634e-05,1.352553872037149784e-05
2.147619047619047539e+00,-1.036617399840028307e-05,1.306755573444824198e-05
2.148412698412698330e+00,-5.930192989803700722e-06,9.294043628410352469e-06
2.149206349206349120e+00,-3.255746250379404556e-06,3.570507493279937109e-06
2.149999999999999911e+00,-1.925846611528271200e-06,-2.332179849310213056e-06
2.150793650793650702e+00,-1.389094169513901336e-06,-6.486272669706024738e-06
2.151587301587301493e+00,-1.113648478583143969e-06,-7.133019536355383547e-06
2.152380952380952284e+00,-6.897760868815944488e-07,-3.045715715297970791e-06
2.153174603174603075e+00,1.239151710248199908e-07,6.139013476713701678e-06
2.153968253968253865e+00,1.397682807269697591e-06,1.970164950398641484e-05
2.154761904761904656e+00,3.054700830753001699e-06,3.580153916150373753e-05
2.155555555555555447e+00,4.912346749709744607e-06,5.166201603606122644e-05
2.156349206349206238e+00,6.738520733052038822e-06,6.398121345320207699e-05
2.157142857142857029e+00,8.321217473915891870e-06,6.952308673670488676e-05
2.157936507936507819e+00,9.542660585245740971e-06,6.579314251600935459e-05
2.158730158730158610e+00,1.044011303425928680e-05,5.166188571007973378e-05
2.159523809523809401e+00,1.123083712811103512e-05,2.778146428286571736e-05
2.160317460317460192e+00,1.228329023483397141e-05,-3.337002812264219665e-06
2.161111111111110983e+00,1.403044176585005278e-05,-3.764931720281566142e-05
2.161904761904761774e+00,1.683951732329096485e-05,-7.026793860950505694e-05
2.162698412698412564e+00,2.086898358129796253e-05,-9.637176277468388608e-05
2.163492063492063355e+00,2.595260904159811411e-05,-1.121254815973782298e-04
2.164285714285714146e+00,3.154892257495985812e-05,-1.153906880313453352e-04
2.165079365079364937e+00,3.678160089912289209e-05,-1.060637408512981732e-04
2.165873015873015728e+00,4.057370689782013873e-05,-8.597853686205949675e-05
2.166666666666666519e+00,4.185151753306589814e-05,-5.843642309423624194e-05
2.167460317460317309e+00,3.977186734174190802e-05,-2.751516030786295856e-05
2.168253968253968100e+00,3.392059461717309327e-05,2.675841261496817784e-06
2.169047619047618891e+00,2.444004401993286058e-05,2.866251818108858800e-05
2.169841269841269682e+00,1.206082240804343137e-05,4.809591430290570369e-05
2.170634920634920473e+00,-1.972478905442187399e-06,5.998367353298279602e-05
2.171428571428571264e+00,-1.607857587178285403e-05,6.462455335823635860e-05
2.172222222222222054e+00,-2.859734109493638135e-05,6.328725085270910772e-05
2.173015873015872845e+00,-3.808074137335580757e-05,5.775210814952388771e-05
2.173809523809523636e+00,-4.355093300803858695e-05,4.986125667386122465e-05
2.174603174603174427e+00,-4.466163824773546325e-05,4.119113891571851352e-05
2.175396825396825218e+00,-4.172516845372144223e-05,3.289615581468657043e-05
2.176190476190476009e+00,-3.560719484908903888e-05,2.570511327979304916e-05
2.176984126984126799e+00,-2.752618811351987871e-05,2.000732183988948961e-05
2.177777777777777590e+00,-1.881076978783345347e-05,1.595438758507912669e-05
2.178571428571428381e+00,-1.066565842559565016e-05,1.352489855841387803e-05
2.179365079365079172e+00,-3.985047196291236674e-06,1.253920703289756634e-05
2.180158730158729963e+00,7.599451464211292106e-07,1.265064410161401021e-05
2.180952380952380754e+00,3.543946079399865234e-06,1.335854983635536169e-05
2.181746031746031544e+00,4.717132480785962074e-06,1.407804366164482207e-05
2.182539682539682335e+00,4.856612304447471376e-06,1.426773620355377143e-05
2.183333333333333126e+00,4.574439403151703267e-06,1.357856922095947704e-05
2.184126984126983917e+00,4.334817531327636312e-06,1.196553635444633680e-05
2.184920634920634708e+00,4.337310803644975223e-06,9.710833301479243452e-06
2.185714285714285499e+00,4.504693645945631784e-06,7.340030077621848150e-06
2.186507936507936289e+00,4.574440097104817640e-06,5.457308335071959357e-06
2.187301587301587080e+00,4.248822518841031329e-06,4.558436389875784658e-06
2.188095238095238315e+00,3.335545569754357061e-06,4.881317444567948644e-06
2.188888888888889106e+00,1.823281295885530162e-06,6.323466565779544165e-06
2.189682539682539897e+00,-1.252534380493401099e-07,8.418559675198914363e-06
2.190476190476190688e+00,-2.241531185169354489e-06,1.035377082903395314e-05
2.191269841269841478e+00,-4.240807059740554553e-06,1.103597783948592381e-05
2.192063492063492269e+00,-5.896474198719235157e-06,9.247764144562892519e-06
2.192857142857143060e+00,-7.078603273389326615e-06,3.926915605207269180e-06
2.193650793650793851e+00,-7.753903543485810913e-06,-5.461659932404036909e-06
2.194444444444444642e+00,-7.957641302052562580e-06,-1.858095295257303480e-05
2.195238095238095433e+00,-7.754964320675883621e-06,-3.406934179079441975e-05
2.196031746031746223e+00,-7.208694451354974142e-06,-4.970176571675266294e-05
2.196825396825397014e+00,-6.362537781304960878e-06,-6.286246280583042477e-05
2.197619047619047805e+00,-5.237163870451591416e-06,-7.119174062720155219e-05
2.198412698412698596e+00,-3.830855057779136430e-06,-7.319373738728839822e-05
2.199206349206349387e+00,-2.121337498483888104e-06,-6.860762076995200538e-05
2.200000000000000178e+00,-7.468177920123398381e-08,-5.843544379950006430e-05
2.200793650793650968e+00,2.330624438102627888e-06,-4.464213436378402567e-05
2.201587301587301759e+00,5.065146777934322834e-06,-2.964549797228127764e-05
2.202380952380952550e+00,8.008424154608412339e-06,-1.575954605903740323e-05
2.203174603174603341e+00,1.092491134946693346e-05,-4.737462515591797816e-06
2.203968253968254132e+00,1.346790058984839642e-05,2.496258700633344570e-06
2.204761904761904923e+00,1.521473394472422555e-05,5.901547529116137632e-06
2.205555555555555713e+00,1.573208806214196082e-05,6.198426338621857981e-06
2.206349206349206504e+00,1.466731103344907638e-05,4.627197394097667986e-06
2.207142857142857295e+00,1.185333782244822936e-05,2.664009388593757808e-06
2.207936507936508086e+00,7.400514621504707241e-06,1.746850782631063189e-06
2.208730158730158877e+00,1.738763487810473295e-06,3.041798808872576236e-06
2.209523809523809668e+00,-4.421054417019050659e-06,7.259716559563647657e-06
2.210317460317460458e+00,-1.021391799241601069e-05,1.452788718971841043e-05
2.211111111111111249e+00,-1.480792070329055555e-05,2.432723621895891295e-05
2.211904761904762040e+00,-1.759400452814291048e-05,3.551407150137552533e-05
2.212698412698412831e+00,-1.831288431218980344e-05,4.644509303462237117e-05
2.213492063492063622e+00,-1.707806197363992919e-05,5.521129678063960475e-05
2.214285714285714413e+00,-1.429676349784317821e-05,5.996326500668242579e-05
2.215079365079365203e+00,-1.052728990213526438e-05,5.928314127877790319e-05
2.215873015873015994e+00,-6.325369131605870357e-06,5.253325635808629582e-05
2.216666666666666785e+00,-2.124945984144352754e-06,4.009592276342868484e-05
2.217460317460317576e+00,1.819469397971484278e-06,2.342400809148926182e-05
2.218253968253968367e+00,5.422427739129896626e-06,4.854764330454486196e-06
2.219047619047619158e+00,8.700696201309980667e-06,-1.280270049749170162e-05
2.219841269841269948e+00,1.167484423238027793e-05,-2.682721668351774978e-05
2.220634920634920739e+00,1.427208668431516030e-05,-3.515833082790115015e-05
2.221428571428571530e+00,1.626470239147694328e-05,-3.683323454518492110e-05
2.222222222222222321e+00,1.727176975254172747e-05,-3.217721821948266576e-05
2.223015873015873112e+00,1.683627531066706181e-05,-2.271097291625158522e-05
2.223809523809523903e+00,1.456691143872489716e-05,-1.081274627374593393e-05
2.224603174603174693e+00,1.031081489835765126e-05,7.773089496285302265e-07
2.225396825396825484e+00,4.308628832107874841e-06,9.504608270492218632e-06
2.226190476190476275e+00,-2.718549540460930792e-06,1.349813559744905266e-05
2.226984126984127066e+00,-9.589794433297404801e-06,1.193513776953982890e-05
2.227777777777777857e+00,-1.481051677108528846e-05,5.210482812176006920e-06
2.228571428571428648e+00,-1.683305678509941549e-05,-5.126510894335551981e-06
2.229365079365079438e+00,-1.438950992089639001e-05,-1.667114605772683646e-05
2.230158730158730229e+00,-6.830319330617017853e-06,-2.665479137110133255e-05
2.230952380952381020e+00,5.607005282852445651e-06,-3.253462082763729533e-05
2.231746031746031811e+00,2.166599279550942422e-05,-3.255573916091405149e-05
2.232539682539682602e+00,3.912074250277137587e-05,-2.616310699930674360e-05
2.233333333333333393e+00,5.502297166722468365e-05,-1.417311230767419222e-05
2.234126984126984183e+00,6.613286166555117638e-05,1.341415557183568114e-06
2.234920634920634974e+00,6.948823391613270263e-05,1.744942912010349719e-05
2.235714285714285765e+00,6.303014209126163339e-05,3.098034119035366442e-05
2.236507936507936556e+00,4.616447925203716486e-05,3.923766718855202279e-05
2.237301587301587347e+00,2.011220921296244825e-05,4.063811260225882907e-05
2.238095238095238138e+00,-1.209159521339646043e-05,3.510278603583133727e-05
2.238888888888888928e+00,-4.602610753596474808e-05,2.407603943614524146e-05
2.239682539682539719e+00,-7.669672273103104033e-05,1.014745341502321880e-05
2.240476190476190510e+00,-9.954756891220151540e-05,-3.623696838027534812e-06
2.241269841269841301e+00,-1.113995740871408577e-04,-1.448381547217187351e-05
2.242063492063492092e+00,-1.110510442795736781e-04,-2.063124324550523990e-05
2.242857142857142883e+00,-9.939379787996193121e-05,-2.155286007159292776e-05
2.243650793650793673e+00,-7.905814568134437602e-05,-1.798130579901975246e-05
2.244444444444444464e+00,-5.373053357033826471e-05,-1.153248094005413813e-05
2.245238095238095255e+00,-2.734884625997372111e-05,-4.175882089369623839e-06
2.246031746031746046e+00,-3.373440105690936496e-06,2.287061531294241023e-06
2.246825396825396837e+00,1.572266819668649869e-05,6.602382963490111706e-06
2.247619047619047628e+00,2.867949921342684703e-05,8.238023423783125682e-06
2.248412698412698418e+00,3.540491267743392880e-05,7.360618355462680814e-06
2.249206349206349209e+00,3.672897217019375100e-05,4.670837373749154235e-06
2.250000000000000000e+00,3.405435824413878396e-05,1.173662872861360594e-06
2.250793650793650791e+00,2.899633080595255498e-05,-2.046975541670364481e-06
2.251587301587301582e+00,2.308321222771120011e-05,-4.004276790338001526e-06
2.252380952380952372e+00,1.755650850533052771e-05,-3.919601958878502161e-06
2.253174603174603163e+00,1.327709155750402704e-05,-1.277399063226855890e-06
2.253968253968253954e+00,1.071753651536704806e-05,4.150253134867689887e-06
2.254761904761904745e+00,1.000639194864380734e-05,1.227590518150103324e-05
2.255555555555555536e+00,1.099020091735559468e-05,2.263627274349927206e-05
2.256349206349206327e+00,1.329116795371380145e-05,3.429144147917867507e-05
2.257142857142857117e+00,1.635582922445042532e-05,4.571923403622568210e-05
2.257936507936507908e+00,1.950432974576750712e-05,5.479237579914915054e-05
2.258730158730158699e+00,2.199469261265367520e-05,5.895323416480435075e-05
2.259523809523809490e+00,2.311158187066036427e-05,5.566303512568972277e-05
2.260317460317460281e+00,2.227926330764825916e-05,4.308737900425104768e-05
2.261111111111111072e+00,1.918763974463345281e-05,2.083063732102095501e-05
2.261904761904761862e+00,1.390811177028009008e-05,-9.561980617120818647e-06
2.262698412698412653e+00,6.963045223691274931e-06,-4.457822099304731332e-05
2.263492063492063444e+00,-6.932879616433620203e-07,-7.926976652662863173e-05
2.264285714285714235e+00,-7.810854662462639347e-06,-1.082230998335173994e-04
2.265079365079365026e+00,-1.308854965131370536e-05,-1.267100806852847184e-04
2.265873015873015817e+00,-1.547248110423566378e-05,-1.317088962751947342e-04
2.266666666666666607e+00,-1.442287853133435922e-05,-1.225267766474471447e-04
2.267460317460317398e+00,-1.006779613277607142e-05,-1.008719571666636544e-04
2.268253968253968189e+00,-3.194560093621794028e-06,-7.038530894508885619e-05
2.269047619047618980e+00,4.921828999060424673e-06,-3.579654053429579756e-05
2.269841269841269771e+00,1.280344934684440223e-05,-1.954872520058578645e-06
2.270634920634920562e+00,1.907990499019799962e-05,2.702528172490832131e-05
2.271428571428571352e+00,2.273280587419725723e-05,4.834196571556520397e-05
2.272222222222222143e+00,2.322038073469917429e-05,6.074613543779532824e-05
2.273015873015872934e+00,2.048814553775652990e-05,6.447149383798410967e-05
2.273809523809523725e+00,1.491602535223020202e-05,6.093760415497287875e-05
2.274603174603174516e+00,7.257291591070715867e-06,5.233468382109758349e-05
2.275396825396825307e+00,-1.404640671330221415e-06,4.119302686439853343e-05
2.276190476190476097e+00,-9.695350243366248987e-06,3.001249048042694398e-05
2.276984126984126888e+00,-1.602535454663804365e-05,2.098953193713216814e-05
2.277777777777777679e+00,-1.874558804579276553e-05,1.584236130615290910e-05
2.278571428571428470e+00,-1.640167584710228957e-05,1.570779578969455141e-05
2.279365079365079261e+00,-8.066767953815724601e-06,2.107322092663846039e-05
2.280158730158730052e+00,6.309096049910126568e-06,3.171745162927578097e-05
2.280952380952380842e+00,2.562534702909993075e-05,4.666111546728619024e-05
2.281746031746031633e+00,4.753271720324504709e-05,6.415598210219272712e-05
2.282539682539682424e+00,6.858965505344096392e-05,8.175572077181634222e-05
2.283333333333333215e+00,8.470610628716920918e-05,9.650058160793835210e-05
2.284126984126984006e+00,9.184231700733762251e-05,1.052250866840119748e-04
2.284920634920634797e+00,8.685334046793732096e-05,1.049763639052290223e-04
2.285714285714285587e+00,6.829506868059450546e-05,9.351404087604136140e-05
2.286507936507936378e+00,3.696842079588574163e-05,6.983795932172951945e-05
2.287301587301587169e+00,-3.984306229155622564e-06,3.464653613938728732e-05
2.288095238095237960e+00,-4.949752716988594118e-05,-9.420140992817989316e-06
2.288888888888888751e+00,-9.343266402439976553e-05,-5.790769338922420456e-05
2.289682539682539542e+00,-1.296711000272424423e-04,-1.051256083376883094e-04
2.290476190476190332e+00,-1.532224010749204314e-04,-1.451075083394405877e-04
2.291269841269841123e+00,-1.611291374572027739e-04,-1.727359388993430979e-04
2.292063492063491914e+00,-1.529812743286131885e-04,-1.847407977018197432e-04
2.292857142857142705e+00,-1.309179388107605294e-04,-1.803054897495013590e-04
2.293650793650793496e+00,-9.910812494864985650e-05,-1.611215674770442960e-04
2.294444444444444287e+00,-6.283969902277106254e-05,-1.308930200079752115e-04
2.295238095238095077e+00,-2.744899069846203703e-05,-9.445525428633848926e-05
2.296031746031745868e+00,2.652042155437493263e-06,-5.677122887645906778e-05
2.296825396825396659e+00,2.464652582376062248e-05,-2.206116615333088510e-05
2.297619047619047450e+00,3.757460308996780701e-05,6.760897821348162273e-06
2.298412698412698241e+00,4.218700223187301951e-05,2.827925452112553802e-05
2.299206349206349032e+00,4.047960520412163663e-05,4.243265406459235950e-05
2.299999999999999822e+00,3.505369461662801508e-05,5.014149276618257405e-05
2.300793650793650613e+00,2.846391279452581852e-05,5.284383769162367045e-05
2.301587301587301404e+00,2.269836346605250127e-05,5.206683065748923675e-05
2.302380952380952195e+00,1.888822007089583223e-05,4.912071845195612802e-05
2.303174603174602986e+00,1.727698953645077746e-05,4.495364630608796123e-05
2.303968253968253777e+00,1.741012706844609150e-05,4.015924703769024401e-05
2.304761904761904567e+00,1.845577495412655431e-05,3.509285490653778249e-05
2.305555555555555358e+00,1.954970928292825048e-05,3.003055444226948925e-05
2.306349206349206149e+00,2.007061355736499889e-05,2.530209271080525939e-05
2.307142857142856940e+00,1.978587527454523981e-05,2.134503655457032763e-05
2.307936507936507731e+00,1.885162053125318842e-05,1.865917892161084637e-05
2.308730158730158522e+00,1.769198292236138646e-05,1.767747215789051735e-05
2.309523809523809312e+00,1.681142355913342389e-05,1.860114883793296921e-05
2.310317460317460103e+00,1.660438869301590999e-05,2.126261505982190151e-05
2.311111111111110894e+00,1.721866074740392800e-05,2.507481749363747517e-05
2.311904761904761685e+00,1.850692234174302603e-05,2.910076175253388007e-05
2.312698412698412920e+00,2.007220788871180635e-05,3.223944746564715746e-05
2.313492063492063711e+00,2.138516751795573062e-05,3.348684457016408027e-05
2.314285714285714501e+00,2.193234125982478045e-05,3.220359002809146528e-05
2.315079365079365292e+00,2.134994299480522280e-05,2.831149197048762691e-05
2.315873015873016083e+00,1.950693554566863345e-05,2.235263253027967517e-05
2.316666666666666874e+00,1.652003270771877392e-05,1.537957197315604631e-05
2.317460317460317665e+00,1.270510706097523594e-05,8.697359283003721592e-06
2.318253968253968456e+00,8.487302066166588208e-06,3.530548636053205258e-06
2.319047619047619246e+00,4.300566148747688243e-06,7.176847920850863890e-07
2.319841269841270037e+00,5.048749695857195437e-07,5.259520472050191719e-07
2.320634920634920828e+00,-2.661305507341189113e-06,2.633264430714427596e-06
2.321428571428571619e+00,-5.089888434381631054e-06,6.264974158929641329e-06
2.322222222222222410e+00,-6.782150457416333008e-06,1.042256231872145593e-05
2.323015873015873201e+00,-7.812848199663616441e-06,1.411944278356042553e-05
2.323809523809523991e+00,-8.293859203407486205e-06,1.655178264126674391e-05
2.324603174603174782e+00,-8.346601221731360365e-06,1.717509467464461330e-05
2.325396825396825573e+00,-8.086287441374494922e-06,1.570756611763172986e-05
2.326190476190476364e+00,-7.616380338696917613e-06,1.210667797981891856e-05
2.326984126984127155e+00,-7.029268563295326692e-06,6.551667084219051104e-06
2.327777777777777946e+00,-6.408547721600603455e-06,-5.709710650847333466e-07
2.328571428571428736e+00,-5.828507213167656605e-06,-8.703862669551605438e-06
2.329365079365079527e+00,-5.347882391709125229e-06,-1.719284803254271827e-05
2.330158730158730318e+00,-4.998487525429743902e-06,-2.538607866316110919e-05
2.330952380952381109e+00,-4.774193576548367812e-06,-3.272339704602051730e-05
2.331746031746031900e+00,-4.628734669417683507e-06,-3.878301841832206822e-05
2.332539682539682691e+00,-4.488693090488649106e-06,-4.327601930459544900e-05
2.333333333333333481e+00,-4.280492461803134198e-06,-4.600804165852890508e-05
2.334126984126984272e+00,-3.961648798974493290e-06,-4.684390185499620547e-05
2.334920634920635063e+00,-3.542861620482666586e-06,-4.570518022985166291e-05
2.335714285714285854e+00,-3.091106356246094954e-06,-4.260746191832552327e-05
2.336507936507936645e+00,-2.711871246120467054e-06,-3.771760156251544992e-05
2.337301587301587436e+00,-2.516623375624470335e-06,-3.139699061099046260e-05
2.338095238095238226e+00,-2.586617434576362159e-06,-2.419906857132564999e-05
2.338888888888889017e+00,-2.944989050067640296e-06,-1.680474584264476939e-05
2.339682539682539808e+00,-3.545625468263763986e-06,-9.902783859233790702e-06
2.340476190476190599e+00,-4.281035024030001232e-06,-4.046760374044096946e-06
2.341269841269841390e+00,-5.004933197464081908e-06,4.639941846504335807e-07
2.342063492063492181e+00,-5.561198477150837605e-06,3.634564550068325751e-06
2.342857142857142971e+00,-5.810780906817890250e-06,5.733550879696382895e-06
2.343650793650793762e+00,-5.651423120095249510e-06,7.173579500823600611e-06
2.344444444444444553e+00,-5.029201386795927857e-06,8.356673514898645445e-06
2.345238095238095344e+00,-3.943659369129303316e-06,9.541232399344449038e-06
2.346031746031746135e+00,-2.449083742690148131e-06,1.077857209917200542e-05
2.346825396825396925e+00,-6.537521570043866548e-07,1.194138098565460621e-05
2.347619047619047716e+00,1.282702767283611191e-06,1.283320894263939028e-05
2.348412698412698507e+00,3.155839802805404339e-06,1.333674362715690238e-05
2.349206349206349298e+00,4.730625819224087466e-06,1.353964705561869240e-05
2.350000000000000089e+00,5.767104006868110242e-06,1.377960267032361901e-05
2.350793650793650880e+00,6.058706139296293439e-06,1.457672816193581016e-05
2.351587301587301670e+00,5.479369090813737674e-06,1.646207862972614587e-05
2.352380952380952461e+00,4.029572845675769656e-06,1.974954028311156788e-05
2.353174603174603252e+00,1.866840201191834851e-06,2.432135407613802110e-05
2.353968253968254043e+00,-6.940403076901857801e-07,2.949946162969198509e-05
2.354761904761904834e+00,-3.219956404866079245e-06,3.405864284946404807e-05
2.355555555555555625e+00,-5.235228376767587920e-06,3.640829005556811353e-05
2.356349206349206415e+00,-6.319007266010172731e-06,3.492948042714562714e-05
2.357142857142857206e+00,-6.200107791613593351e-06,2.840466164183278098e-05
2.357936507936507997e+00,-4.823849265131632911e-06,1.643154588030938188e-05
2.358730158730158788e+00,-2.372529800228544993e-06,-3.056905234899975197e-07
2.359523809523809579e+00,7.664139501767835850e-07,-2.000872063363912210e-05
2.360317460317460370e+00,4.076978763985977938e-06,-4.001572799579309941e-05
2.361111111111111160e+00,7.017545586702720687e-06,-5.728525794567721938e-05
2.361904761904761951e+00,9.126353356087087035e-06,-6.900383727579177901e-05
2.362698412698412742e+00,1.010623885166418513e-05,-7.317347731345583519e-05
2.363492063492063533e+00,9.871517638990181604e-06,-6.903198419349366739e-05
2.364285714285714324e+00,8.549851318270605734e-06,-5.719467383690084340e-05
2.365079365079365115e+00,6.442830317337307294e-06,-3.948599852814281227e-05
2.365873015873015905e+00,3.957293439526071645e-06,-1.852722856036829468e-05
2.366666666666666696e+00,1.523014308763050359e-06,2.788561519155086791e-06
2.367460317460317487e+00,-4.880924285822524512e-07,2.179758037707394997e-05
2.368253968253968278e+00,-1.828608064613806216e-06,3.644456296441104891e-05
2.369047619047619069e+00,-2.418533983063365622e-06,4.549393516541222330e-05
2.369841269841269860e+00,-2.358150796060048659e-06,4.857279386662720225e-05
2.370634920634920650e+00,-1.907703806997532496e-06,4.607993215090537727e-05
2.371428571428571441e+00,-1.434178984397447515e-06,3.901398561449202030e-05
2.372222222222222232e+00,-1.329560558188658392e-06,2.877511291524448796e-05
2.373015873015873023e+00,-1.910614611471933014e-06,1.698110790783390555e-05
2.373809523809523814e+00,-3.316963532548209065e-06,5.317236833519878104e-06
2.374603174603174605e+00,-5.429814509971486749e-06,-4.582814811121155386e-06
2.375396825396825395e+00,-7.835593040977184798e-06,-1.124363692427662309e-05
2.376190476190476186e+00,-9.855203302680491458e-06,-1.346758426088624686e-05
2.376984126984126977e+00,-1.064982714406944683e-05,-1.048569662830124672e-05
2.377777777777777768e+00,-9.397964991801450942e-06,-2.137690771859341994e-06
2.378571428571428559e+00,-5.517237385083369079e-06,1.095277311131456173e-05
2.379365079365079350e+00,1.117524976376569317e-06,2.727167487915368413e-05
2.380158730158730140e+00,1.002343211448368277e-05,4.445483443981260792e-05
2.380952380952380931e+00,2.008744732709502904e-05,5.953586280957560165e-05
2.381746031746031722e+00,2.970789374794701425e-05,6.941041072331091319e-05
2.382539682539682513e+00,3.708549699304899798e-05,7.144651325780610894e-05
2.383333333333333304e+00,4.059627555369303150e-05,6.409678788782711490e-05
2.384126984126984095e+00,3.914703751600054961e-05,4.733990758680237896e-05
2.384920634920634885e+00,3.242262323376501318e-05,2.281727403750715230e-05
2.385714285714285676e+00,2.097445244277902865e-05,-6.382758297737737669e-06
2.386507936507936467e+00,6.144766358376497842e-06,-3.624940951156126271e-05
2.387301587301587258e+00,-1.015049760320241159e-05,-6.257439987304651394e-05
2.388095238095238049e+00,-2.574223274110806517e-05,-8.173358102337742589e-05
2.388888888888888840e+00,-3.857938379743919408e-05,-9.136472379676259807e-05
2.389682539682539630e+00,-4.708234609898582265e-05,-9.078665797568247805e-05
2.390476190476190421e+00,-5.040524815692574984e-05,-8.105331845780478872e-05
2.391269841269841212e+00,-4.854962233899015492e-05,-6.463029364527212957e-05
2.392063492063492003e+00,-4.230645529301203643e-05,-4.478852404566418199e-05
2.392857142857142794e+00,-3.304669972954092633e-05,-2.488400006404333200e-05
2.393650793650793585e+00,-2.241811020317589103e-05,-7.706817848543471588e-06
2.394444444444444375e+00,-1.202536294662833935e-05,4.959154482341749570e-06
2.395238095238095166e+00,-3.164715528133962875e-06,1.249908754311756788e-05
2.396031746031745957e+00,3.341317251606662459e-06,1.536248538845601440e-05
2.396825396825396748e+00,7.197159331931610308e-06,1.475876351483720190e-05
2.397619047619047539e+00,8.590623022270706902e-06,1.225063901872022359e-05
2.398412698412698330e+00,8.081777424262243640e-06,9.346313290786235803e-06
2.399206349206349120e+00,6.454236090259155045e-06,7.175774712572510984e-06
2.399999999999999911e+00,4.553625907243858213e-06,6.309109669901906815e-06
2.400793650793650702e+00,3.133697409442542932e-06,6.740622264038958193e-06
2.401587301587301493e+00,2.729446599050557091e-06,8.025395807083282815e-06
2.402380952380952284e+00,3.575822487241865675e-06,9.519016229256904398e-06
2.403174603174603075e+00,5.585605818985833771e-06,1.064411661668501799e-05
2.403968253968253865e+00,8.389290683087941990e-06,1.109922948138016371e-05
2.404761904761904656e+00,1.142636353150685556e-05,1.094326172462004969e-05
2.405555555555555447e+00,1.406661329906749856e-05,1.053110816051389046e-05
2.406349206349206238e+00,1.573573231638366175e-05,1.032999057529025659e-05
2.407142857142857029e+00,1.602197874199047368e-05,1.069178285522419863e-05
2.407936507936507819e+00,1.474826535208894480e-05,1.167412695835671387e-05
2.408730158730158610e+00,1.200334513298823561e-05,1.298343084936860042e-05
2.409523809523809401e+00,8.132648958876768675e-06,1.406321230690589565e-05
2.410317460317460192e+00,3.691760402480797177e-06,1.429307004334516112e-05
2.411111111111110983e+00,-6.340337434410380837e-07,1.322183645876094654e-05
2.411904761904761774e+00,-4.137751770379349389e-06,1.074928027568646373e-05
2.412698412698412564e+00,-6.213408483606659448e-06,7.194141551551385341e-06
2.413492063492063355e+00,-6.473808099950368014e-06,3.228428262552278299e-06
2.414285714285714146e+00,-4.840904945115809033e-06,-2.998894629963307375e-07
2.415079365079364937e+00,-1.588161273713744386e-06,-2.604675887099536652e-06
2.415873015873015728e+00,2.679775699018019561e-06,-3.196408692282630952e-06
2.416666666666666519e+00,7.115569340923253482e-06,-2.051650260281190131e-06
2.417460317460317309e+00,1.077851510285538316e-05,3.326960051925868852e-07
2.418253968253968100e+00,1.282168277002506070e-05,3.026345337185513096e-06
2.419047619047618891e+00,1.267960304600861173e-05,4.884906452945679806e-06
2.419841269841269682e+00,1.021271890844887245e-05,4.852761424241190278e-06
2.420634920634920473e+00,5.770531095256747431e-06,2.268709375116648931e-06
2.421428571428571264e+00,1.526308045835882462e-07,-2.916360220931757260e-06
2.422222222222222054e+00,-5.529748796948317919e-06,-1.007958752640540001e-05
2.423015873015872845e+00,-1.006649991687003942e-05,-1.804596481374269357e-05
2.423809523809523636e+00,-1.239467519366965853e-05,-2.535230444541779673e-05
2.424603174603174427e+00,-1.183035724632476892e-05,-3.057735164242936969e-05
2.425396825396825218e+00,-8.241684318781368709e-06,-3.264945925251152713e-05
2.426190476190476009e+00,-2.127569728876931998e-06,-3.106208785282142107e-05
2.426984126984126799e+00,5.419742897593158576e-06,-2.595968661367784009e-05
2.427777777777777590e+00,1.287203829579976201e-05,-1.808842030596126611e-05
2.428571428571428381e+00,1.852439915842659518e-05,-8.632871911904536566e-06
2.429365079365079172e+00,2.081746208774840989e-05,1.019688656179700676e-06
2.430158730158729963e+00,1.866805941010373694e-05,9.534248793933533211e-06
2.430952380952380754e+00,1.174404540186128467e-05,1.584969846363308861e-05
2.431746031746031544e+00,6.168551297695722525e-07,1.932771729690251837e-05
2.432539682539682335e+00,-1.326320382748020662e-05,1.980959825694076864e-05
2.433333333333333126e+00,-2.779138204514379018e-05,1.758199881039452009e-05
2.434126984126983917e+00,-4.060231295273987608e-05,1.326905627163414140e-05
2.434920634920634708e+00,-4.954547839394659583e-05,7.680297444500442752e-06
2.435714285714285499e+00,-5.312006480002745155e-05,1.650939238507687806e-06
2.436507936507936289e+00,-5.075761194460636563e-05,-4.088608941722681150e-06
2.437301587301587080e+00,-4.289294849414701581e-05,-8.986368655057993339e-06
2.438095238095238315e+00,-3.082904813629212479e-05,-1.267595427517396161e-05
2.438888888888889106e+00,-1.645040463373253299e-05,-1.493009737545870382e-05
2.439682539682539897e+00,-1.860697252354151691e-06,-1.559269705489283998e-05
2.440476190476190688e+00,1.098157634507172684e-05,-1.453007719478661248e-05
2.441269841269841478e+00,2.057064517402328049e-05,-1.163413513040240956e-05
2.442063492063492269e+00,2.606392863280195313e-05,-6.885471982685478972e-06
2.442857142857143060e+00,2.737318218657451566e-05,-4.519417003193690429e-07
2.443650793650793851e+00,2.513054931209262341e-05,7.227591213364933394e-06
2.444444444444444642e+00,2.053840519777548138e-05,1.542856341663862582e-05
2.445238095238095433e+00,1.512513080081074622e-05,2.322526506387975913e-05
2.446031746031746223e+00,1.044268113748648539e-05,2.966011316929269374e-05
2.446825396825397014e+00,7.756871341846060893e-06,3.394074201697625469e-05
2.447619047619047805e+00,7.793074304707922969e-06,3.559380179878883797e-05
2.448412698412698596e+00,1.059873132143873963e-05,3.452649859311712516e-05
2.449206349206349387e+00,1.556188037939322584e-05,3.098901008250984357e-05
2.450000000000000178e+00,2.158367948720854411e-05,2.546811514640856278e-05
2.450793650793650968e+00,2.735660091452992126e-05,1.856074405501299460e-05
2.451587301587301759e+00,3.166906820892066682e-05,1.087491242734628330e-05
2.452380952380952550e+00,3.365618225544681608e-05,2.987557386469822275e-06
2.453174603174603341e+00,3.294242066127059165e-05,-4.542303800477120031e-06
2.453968253968254132e+00,2.965961284482737773e-05,-1.114020468893380866e-05
2.454761904761904923e+00,2.435610767921591807e-05,-1.621429326361902411e-05
2.455555555555555713e+00,1.783403679620359868e-05,-1.922097201792505813e-05
2.456349206349206504e+00,1.096071081045766543e-05,-1.979155024774626652e-05
2.457142857142857295e+00,4.498524561952058944e-06,-1.786787948643920180e-05
2.457936507936508086e+00,-1.013202903432785280e-06,-1.377619401993509550e-05
2.458730158730158877e+00,-5.308048676519563031e-06,-8.192192940646727769e-06
2.459523809523809668e+00,-8.376015519305610342e-06,-2.004260235721749450e-06
2.460317460317460458e+00,-1.039799670159284345e-05,3.869757353328371358e-06
2.461111111111111249e+00,-1.165674343652862155e-05,8.642893001720160326e-06
2.461904761904762040e+00,-1.245006780691866052e-05,1.174995337609597350e-05
2.462698412698412831e+00,-1.302535912246376282e-05,1.286326041312591019e-05
2.463492063492063622e+00,-1.354439451682970804e-05,1.186326466449059145e-05
2.464285714285714413e+00,-1.407771003325084393e-05,8.806574553221373764e-06
2.465079365079365203e+00,-1.462105549129868762e-05,3.918887992991154263e-06
2.465873015873015994e+00,-1.512339376890570879e-05,-2.389258194914260584e-06
2.466666666666666785e+00,-1.551614887654104424e-05,-9.509957752495479185e-06
2.467460317460317576e+00,-1.573633964676162623e-05,-1.666129187110921631e-05
2.468253968253968367e+00,-1.574064810395692384e-05,-2.296819833704118863e-05
2.469047619047619158e+00,-1.551130281740493129e-05,-2.759831690721266978e-05
2.469841269841269948e+00,-1.505630737348750866e-05,-2.992163520998854852e-05
2.470634920634920739e+00,-1.440627176610314225e-05,-2.964408534028166835e-05
2.471428571428571530e+00,-1.360930061233540681e-05,-2.686941043678122096e-05
2.472222222222222321e+00,-1.272471816318593669e-05,-2.207000691873993784e-05
2.473015873015873112e+00,-1.181556454564820174e-05,-1.598012316698101161e-05
2.473809523809523903e+00,-1.093895222640090061e-05,-9.445475087086172445e-06
2.474603174603174693e+00,-1.013360541622072409e-05,-3.266334894417808866e-06
2.475396825396825484e+00,-9.405804782064107258e-06,1.936170106981340576e-06
2.476190476190476275e+00,-8.717693439624779131e-06,5.809917886682010530e-06
2.476984126984127066e+00,-7.983950154433611780e-06,8.305652284752123828e-06
2.477777777777777857e+00,-7.082751638903222026e-06,9.651581732130590737e-06
2.478571428571428648e+00,-5.883577261522919473e-06,1.027566105602977481e-05
2.479365079365079438e+00,-4.288011707390581793e-06,1.069338084959482916e-05
2.480158730158730229e+00,-2.272975057063550054e-06,1.138677078402055736e-05
2.480952380952381020e+00,7.770384393515757192e-08,1.270009199711078624e-05
2.481746031746031811e+00,2.566226772088239036e-06,1.476897172395830045e-05
2.482539682539682602e+00,4.905874743223284107e-06,1.748891307476376639e-05
2.483333333333333393e+00,6.777577062751127782e-06,2.052256036030993954e-05
2.484126984126984183e+00,7.907587691224792200e-06,2.334301693985473469e-05
2.484920634920634974e+00,8.147174614049133129e-06,2.530937804006437223e-05
2.485714285714285765e+00,7.531505479059204941e-06,2.576840536152285303e-05
2.486507936507936556e+00,6.298366518432806313e-06,2.417271090578381029e-05
2.487301587301587347e+00,4.856983802719198464e-06,2.020058643537711284e-05
2.488095238095238138e+00,3.709994743087976379e-06,1.385630588891394260e-05
2.488888888888888928e+00,3.344293441568775563e-06,5.526151418731757987e-06
2.489682539682539719e+00,4.115620132673262238e-06,-4.030251369879678725e-06
2.490476190476190510e+00,6.153769938823223976e-06,-1.376079035918712133e-05
2.491269841269841301e+00,9.309111705933342164e-06,-2.246636450556820330e-05
2.492063492063492092e+00,1.315078205517423062e-05,-2.899312058081507268e-05
2.492857142857142883e+00,1.701802872692574409e-05,-3.244613057973497319e-05
2.493650793650793673e+00,2.011920376785808441e-05,-3.238795744313279238e-05
2.494444444444444464e+00,2.166412027867661743e-05,-2.897287473556356784e-05
2.495238095238095255e+00,2.100548335486503352e-05,-2.296774682463357042e-05
2.496031746031746046e+00,1.776159721620958261e-05,-1.563367266609677487e-05
2.496825396825396837e+00,1.190111519659186081e-05,-8.482406664011968490e-06
2.497619047619047628e+00,3.784877744505839305e-06,-2.963309283690288200e-06
2.498412698412698418e+00,-5.834868498942427175e-06,-1.642297625987928086e-07
2.499206349206349209e+00,-1.586803902698148022e-05,-6.082247589955459644e-07
2.500000000000000000e+00,-2.501523096688196935e-05,-4.192856259014840819e-06
2.500793650793650791e+00,-3.198209940071890429e-05,-1.026631866066249475e-05
2.501587301587301582e+00,-3.574970820793620341e-05,-1.779194844318624850e-05
2.502380952380952372e+00,-3.582652918888123820e-05,-2.553725504459057618e-05
2.503174603174603163e+00,-3.239466694234115923e-05,-3.223664083444548715e-05
2.503968253968253954e+00,-2.629221402499609176e-05,-3.670895588945038599e-05
2.504761904761904745e+00,-1.882657073395395213e-05,-3.794568419481293730e-05
2.505555555555555536e+00,-1.146202240284943880e-05,-3.520303075836762234e-05
2.506349206349206327e+00,-5.452959670215575556e-06,-2.811881392605298778e-05
2.507142857142857117e+00,-1.503414026533295259e-06,-1.683969035469448089e-05
2.507936507936507908e+00,4.676082041754897017e-07,-2.109969757672352736e-06
2.508730158730158699e+00,1.386280086611405895e-06,1.473671492626691026e-05
2.509523809523809490e+00,2.868925990314386668e-06,3.192067317509871894e-05
2.510317460317460281e+00,6.858747918148199050e-06,4.748914042854144761e-05
2.511111111111111072e+00,1.511544057507013820e-05,5.966412684029665143e-05
2.511904761904761862e+00,2.866016980484235372e-05,6.717241004551650278e-05
2.512698412698412653e+00,4.729654535989563923e-05,6.945812266077853211e-05
2.513492063492063444e+00,6.932515391122186601e-05,6.671278495030625916e-05
2.514285714285714235e+00,9.154959703866910072e-05,5.972266618478625844e-05
2.515079365079365026e+00,1.096346614517822366e-04,4.959919727007690537e-05
2.515873015873015817e+00,1.188165438856884486e-04,3.749347543916323997e-05
2.516666666666666607e+00,1.148796020811822965e-04,2.438758824351470200e-05
2.517460317460317398e+00,9.521726719936461029e-05,1.101317655664651139e-05
2.518253968253968189e+00,5.971939937089190914e-05,-2.106605103290707490e-06
2.519047619047618980e+00,1.121725441348934604e-05,-1.453899923449611612e-05
2.519841269841269771e+00,-4.470169530809858408e-05,-2.581333537303144116e-05
2.520634920634920562e+00,-1.005338942442879477e-04,-3.534287749830271384e-05
2.521428571428571352e+00,-1.481870751536934179e-04,-4.243481945163231708e-05
2.522222222222222143e+00,-1.804801471764476038e-04,-4.639165873637887726e-05
2.523015873015872934e+00,-1.924618135857765477e-04,-4.666931978655031827e-05
2.523809523809523725e+00,-1.822742564861897191e-04,-4.303508490009774561e-05
2.524603174603174516e+00,-1.514351595764394404e-04,-3.567291353269729681e-05
2.525396825396825307e+00,-1.045465915689289591e-04,-2.520753283867011610e-05
2.526190476190476097e+00,-4.851932809977524115e-05,-1.264603519284709255e-05
2.526984126984126888e+00,8.560179332449888631e-06,7.445712434705096617e-07
2.527777777777777679e+00,5.875947938054879748e-05,1.359715465703131245e-05
2.528571428571428470e+00,9.562243017468375706e-05,2.461541144225690980e-05
2.529365079365079261e+00,1.152441083600300111e-04,3.273336258026115049e-05
2.530158730158730052e+00,1.168628733487594345e-04,3.724385247376848503e-05
2.530952380952380842e+00,1.028083188990360934e-04,3.787923544786303694e-05
2.531746031746031633e+00,7.779237368342619254e-05,3.483151893237166176e-05
2.532539682539682424e+00,4.771751156615251414e-05,2.870628934821753143e-05
2.533333333333333215e+00,1.832723242625004936e-05,2.041523227357421833e-05
2.534126984126984006e+00,-5.933849033440825737e-06,1.102439777282692081e-05
2.534920634920634797e+00,-2.257399229836928943e-05,1.586394049918986785e-06
2.535714285714285587e+00,-3.112772831169336596e-05,-7.009416510010449138e-06
2.536507936507936378e+00,-3.274365634882291543e-05,-1.413732000858857089e-05
2.537301587301587169e+00,-2.950326256389055002e-05,-1.946696438607453076e-05
2.538095238095237960e+00,-2.370932588829863591e-05,-2.292573288826727407e-05
2.538888888888888751e+00,-1.732520115003439789e-05,-2.461102537433118508e-05
2.539682539682539542e+00,-1.165573367985696265e-05,-2.468691454095599329e-05
2.540476190476190332e+00,-7.274501558555097448e-06,-2.330420971517293383e-05
2.541269841269841123e+00,-4.139886455450818516e-06,-2.057276510076242433e-05
2.542063492063491914e+00,-1.812958355009047230e-06,-1.659140484930547501e-05
2.542857142857142705e+00,3.058652991525111597e-07,-1.151342053053072829e-05
2.543650793650793496e+00,2.777435188006906318e-06,-5.608368508576021434e-06
2.544444444444444287e+00,5.985466810776090765e-06,7.155195549106513296e-07
2.545238095238095077e+00,1.005966025799806374e-05,6.940871235924067901e-06
2.546031746031745868e+00,1.485212177544136554e-05,1.250679749848983690e-05
2.546825396825396659e+00,1.996066774596728658e-05,1.687953940609247729e-05
2.547619047619047450e+00,2.479602593580829814e-05,1.960441435601525576e-05
2.548412698412698241e+00,2.868734689017741891e-05,2.033788446763115581e-05
2.549206349206349032e+00,3.101073846000665472e-05,1.887791341006249353e-05
2.549999999999999822e+00,3.131445409669842030e-05,1.521163961373671431e-05
2.550793650793650613e+00,2.940993258481778647e-05,9.579736884227645522e-06
2.551587301587301404e+00,2.540488842114557944e-05,2.528906099389686231e-06
2.552380952380952195e+00,1.967152929504113415e-05,-5.091358053395323256e-06
2.553174603174602986e+00,1.276308679673653898e-05,-1.221805571239492681e-05
2.553968253968253777e+00,5.306936451506543646e-06,-1.774275883629064575e-05
2.554761904761904567e+00,-2.093801236905456203e-06,-2.071518139228905480e-05
2.555555555555555358e+00,-8.927228696480970469e-06,-2.052791654522585942e-05
2.556349206349206149e+00,-1.480120343196126647e-05,-1.704219463870880680e-05
2.557142857142856940e+00,-1.944104198037380676e-05,-1.063627449586304234e-05
2.557936507936507731e+00,-2.267156302405865325e-05,-2.172923838422400353e-06
2.558730158730158522e+00,-2.439820411494488211e-05,7.110745793264762113e-06
2.559523809523809312e+00,-2.459619752741729089e-05,1.578264508405520956e-05
2.560317460317460103e+00,-2.330952059798595423e-05,2.244644630948872371e-05
2.561111111111110894e+00,-2.065550502217340084e-05,2.599036609449468529e-05
2.561904761904761685e+00,-1.682824547500684655e-05,2.580362595732894247e-05
2.562698412698412920e+00,-1.209467176159896152e-05,2.190351147456326793e-05
2.563492063492063711e+00,-6.780364155313274300e-06,1.493141220107716681e-05
2.564285714285714501e+00,-1.246171097231264033e-06,6.013548188242595315e-06
2.565079365079365292e+00,4.139681525983778100e-06,-3.475313920221326838e-06
2.565873015873016083e+00,9.025872590506408118e-06,-1.218095004959661051e-05
2.566666666666666874e+00,1.308739675951086086e-05,-1.900904474858179362e-05
2.567460317460317665e+00,1.600921502907520907e-05,-2.329505576271031611e-05
2.568253968253968456e+00,1.744338509679527487e-05,-2.489150970889686442e-05
2.569047619047619246e+00,1.696071799235818157e-05,-2.417400582157591714e-05
2.569841269841270037e+00,1.404056318898713110e-05,-2.196488740600835833e-05
2.570634920634920828e+00,8.145242145543241460e-06,-1.936804892294888115e-05
2.571428571428571619e+00,-1.104022499168331408e-06,-1.751972447004352583e-05
2.572222222222222410e+00,-1.368640277982301614e-05,-1.729216430994181872e-05
2.573015873015873201e+00,-2.896267590934810542e-05,-1.902095846472059271e-05
2.573809523809523991e+00,-4.558165314571527012e-05,-2.233966694633320065e-05
2.574603174603174782e+00,-6.158402756530428576e-05,-2.618887371944002954e-05
2.575396825396825573e+00,-7.470734921772555291e-05,-2.902497467881130232e-05
2.576190476190476364e+00,-8.282064047380870988e-05,-2.919564843555300503e-05
2.576984126984127155e+00,-8.436950390614810923e-05,-2.538897008278910355e-05
2.577777777777777946e+00,-7.871091820414602772e-05,-1.702617708237314450e-05
2.578571428571428736e+00,-6.625454729885542544e-05,-4.477025509823840943e-06
2.579365079365079527e+00,-4.838067612161064474e-05,1.096731146599068591e-05
2.580158730158730318e+00,-2.715421639870073465e-05,2.734994309479138745e-05
2.580952380952381109e+00,-4.896302576447887362e-06,4.245046787157014931e-05
2.581746031746031900e+00,1.628789213985456721e-05,5.421903058801271061e-05
2.582539682539682691e+00,3.490420278982387693e-05,6.113658404392719944e-05
2.583333333333333481e+00,5.027945284875844892e-05,6.243235405289285342e-05
2.584126984126984272e+00,6.253631973017110299e-05,5.813335488204354534e-05
2.584920634920635063e+00,7.236699963930086550e-05,4.896129243376441328e-05
2.585714285714285854e+00,8.070841954683080296e-05,3.612668382217657675e-05
2.586507936507936645e+00,8.843935486924779557e-05,2.109042645276856841e-05
2.587301587301587436e+00,9.618100728602577934e-05,5.358003136386292481e-06
2.588095238095238226e+00,1.042135234816515539e-04,-9.657967906235574208e-06
2.588888888888889017e+00,1.124579380145108841e-04,-2.270880976074615809e-05
2.589682539682539808e+00,1.204456746551122966e-04,-3.274426071449872670e-05
2.590476190476190599e+00,1.272245818897262636e-04,-3.894891882930027013e-05
2.591269841269841390e+00,1.312301219473256393e-04,-4.080973966520142458e-05
2.592063492063492181e+00,1.302450324511197780e-04,-3.822138960712929935e-05
2.592857142857142971e+00,1.216123795689290495e-04,-3.160580732189975444e-05
2.593650793650793762e+00,1.028015950131869763e-04,-2.199007359451584168e-05
2.594444444444444553e+00,7.226308904299655041e-05,-1.096939658493304475e-05
2.595238095238095344e+00,3.031881265548626636e-05,-5.005792641081680960e-07
2.596031746031746135e+00,-2.027473959611537869e-05,7.471092857447124294e-06
2.596825396825396925e+00,-7.441010233847380985e-05,1.147445280389736618e-05
2.597619047619047716e+00,-1.254675317132538130e-04,1.092989020122650644e-05
2.598412698412698507e+00,-1.667215488681534740e-04,6.373426478764949054e-06
2.599206349206349298e+00,-1.928907184016956670e-04,-6.178468723991367734e-07
2.600000000000000089e+00,-2.013461471877966524e-04,-7.813177168576124895e-06
2.600793650793650880e+00,-1.926258103972129112e-04,-1.293270579453675834e-05
2.601587301587301670e+00,-1.701423409600279235e-04,-1.428679864865073594e-05
2.602380952380952461e+00,-1.392174768961824483e-04,-1.124271869669796108e-05
2.603174603174603252e+00,-1.057537239508337041e-04,-4.363054976237326708e-06
2.603968253968254043e+00,-7.492264554705550697e-05,4.826336396726419009e-06
2.604761904761904834e+00,-5.019966408639083645e-05,1.434590925602420805e-05
2.605555555555555625e+00,-3.293587749871542303e-05,2.235447854694626446e-05
2.606349206349206415e+00,-2.248673289645131281e-05,2.761173547972740384e-05
2.607142857142857206e+00,-1.677449569456327598e-05,2.967833785348320951e-05
2.607936507936507997e+00,-1.308008132003494300e-05,2.884574923144882347e-05
2.608730158730158788e+00,-8.843808953327906471e-06,2.588508845084698209e-05
2.609523809523809579e+00,-2.289754245845963587e-06,2.173458637082912893e-05
2.610317460317460370e+00,7.244215119247056987e-06,1.722171655792582187e-05
2.611111111111111160e+00,1.930681446936002228e-05,1.287473367151717419e-05
2.611904761904761951e+00,3.262041752301147432e-05,8.845417170803121352e-06
2.612698412698412742e+00,4.554747295897722199e-05,4.944340447270849064e-06
2.613492063492063533e+00,5.659262480300246352e-05,7.731583810002613886e-07
2.614285714285714324e+00,6.479652247158298680e-05,-4.080288005175599386e-06
2.615079365079365115e+00,6.991603723567908486e-05,-9.835104203427533285e-06
2.615873015873015905e+00,7.235512715540111145e-05,-1.635709576646653024e-05
2.616666666666666696e+00,7.288874716209743458e-05,-2.309576439672650697e-05
2.617460317460317487e+00,7.228198491739622460e-05,-2.914582798426827522e-05
2.618253968253968278e+00,7.093138509282174184e-05,-3.342696873798924880e-05
2.619047619047619069e+00,6.864506034499156769e-05,-3.494082022440316883e-05
2.619841269841269860e+00,6.464088507712692250e-05,-3.303800140013826318e-05
2.620634920634920650e+00,5.778481347463044473e-05,-2.761885317278916697e-05
2.621428571428571441e+00,4.702085923276713085e-05,-1.920565535887687713e-05
2.622222222222222232e+00,3.187458746958527340e-05,-8.860737199275521688e-06
2.623015873015873023e+00,1.286720318971299236e-05,2.028109324147566748e-06
2.623809523809523814e+00,-8.317339858501416748e-06,1.203512490731577559e-05
2.624603174603174605e+00,-2.900462937224596176e-05,1.998121642228171117e-05
2.625396825396825395e+00,-4.602657294424420894e-05,2.514746546359822885e-05
2.626190476190476186e+00,-5.641966660120389932e-05,2.737101905407361230e-05
2.626984126984126977e+00,-5.813719358274447533e-05,2.700200660504102108e-05
2.627777777777777768e+00,-5.058726898708561850e-05,2.472577874852947274e-05
2.628571428571428559e+00,-3.485997748263642437e-05,2.128700168639877384e-05
2.629365079365079350e+00,-1.358389317723783563e-05,1.719208877206233362e-05
2.630158730158730140e+00,9.562878739125950004e-06,1.249695177985830827e-05
2.630952380952380931e+00,3.057984430441971970e-05,6.780775444720756234e-06
2.631746031746031722e+00,4.593959262942453291e-05,-6.496606640784217333e-07
2.632539682539682513e+00,5.326207427649772567e-05,-1.037056033914440862e-05
2.633333333333333304e+00,5.171399771121031801e-05,-2.239837022847666157e-05
2.634126984126984095e+00,4.205919226410221348e-05,-3.586989098194093463e-05
2.634920634920634885e+00,2.637934784304183836e-05,-4.900064186710606132e-05
2.635714285714285676e+00,7.563641578310016326e-06,-5.938997287786128970e-05
2.636507936507936467e+00,-1.128779461990116155e-05,-6.461346913024009343e-05
2.637301587301587258e+00,-2.739917616124519105e-05,-6.292323730724319923e-05
2.638095238095238049e+00,-3.868873108962582929e-05,-5.381892352412904974e-05
2.638888888888888840e+00,-4.393818354872309399e-05,-3.828608623433991931e-05
2.639682539682539630e+00,-4.279176861806496433e-05,-1.861090193965548610e-05
2.640476190476190421e+00,-3.564997470324783195e-05,2.175014199397125763e-06
2.641269841269841212e+00,-2.352805821146503911e-05,2.104339108724197566e-05
2.642063492063492003e+00,-7.932008686565120045e-06,3.567630800627136873e-05
2.642857142857142794e+00,9.228905606195767170e-06,4.491726162320868311e-05
2.643650793650793585e+00,2.571704160366881790e-05,4.884590765940843941e-05
2.644444444444444375e+00,3.908919061568247690e-05,4.849139319185919209e-05
2.645238095238095166e+00,4.693298703310533121e-05,4.532539689443236937e-05
2.646031746031745957e+00,4.724119677263713548e-05,4.074045658484509990e-05
2.646825396825396748e+00,3.887226567652762876e-05,3.569611647870000852e-05
2.647619047619047539e+00,2.197322911047220635e-05,3.062151698845634156e-05
2.648412698412698330e+00,-1.788618151944875630e-06,2.554609544604113857e-05
2.649206349206349120e+00,-2.931053822240717291e-05,2.034405318742382593e-05
2.649999999999999911e+00,-5.650479784294419719e-05,1.495839609282931685e-05
2.650793650793650702e+00,-7.906203727748827557e-05,9.514972434511272597e-06
2.651587301587301493e+00,-9.337032291187606680e-05,4.309872541851852821e-06
2.652380952380952284e+00,-9.735311168451116844e-05,-2.881243460594382119e-07
2.653174603174603075e+00,-9.097232687887338418e-05,-3.956536817253934739e-06
2.653968253968253865e+00,-7.621864602778443049e-05,-6.507885271707267874e-06
2.654761904761904656e+00,-5.656825621004164470e-05,-7.927080408003770950e-06
2.655555555555555447e+00,-3.605990708844206014e-05,-8.368515242887103139e-06
2.656349206349206238e+00,-1.826137971586302787e-05,-8.139762218200268589e-06
2.657142857142857029e+00,-5.412031436617613356e-06,-7.687726400909588179e-06
2.657936507936507819e+00,2.040182829700236460e-06,-7.573059508506164483e-06
2.658730158730158610e+00,5.405610280873197357e-06,-8.396305004822268586e-06
2.659523809523809401e+00,7.250376510998403442e-06,-1.064796658618212995e-05
2.660317460317460192e+00,1.056339585337792455e-05,-1.449169606217088805e-05
2.661111111111110983e+00,1.781021289415202520e-05,-1.953057387538848153e-05
2.661904761904761774e+00,3.012210456559504437e-05,-2.462941664010292577e-05
2.662698412698412564e+00,4.684224949501521342e-05,-2.786803867624701084e-05
2.663492063492063355e+00,6.556587157014477760e-05,-2.668962726607097526e-05
2.664285714285714146e+00,8.268470067745126390e-05,-1.828656089385991958e-05
2.665079365079364937e+00,9.430683292425929643e-05,-2.221692176004479735e-07
2.665873015873015728e+00,9.730524560182876863e-05,2.878630558365678302e-05
2.666666666666666519e+00,9.019062529572658999e-05,6.808481642691867244e-05
2.667460317460317309e+00,7.354137670255506056e-05,1.145241244017213087e-04
2.668253968253968100e+00,4.985973883415705405e-05,1.623564454018299223e-04
2.669047619047618891e+00,2.291335162241333082e-05,2.037533962693712517e-04
2.669841269841269682e+00,-3.209707958265466707e-06,2.299817835080002930e-04
2.670634920634920473e+00,-2.502503091454236475e-05,2.330939449514097086e-04
2.671428571428571264e+00,-4.028443041715597326e-05,2.077942661593642929e-04
2.672222222222222054e+00,-4.817621633315058584e-05,1.530032859787260773e-04
2.673015873015872845e+00,-4.911702619085850044e-05,7.264044840671159196e-05
2.673809523809523636e+00,-4.429203427466608137e-05,-2.467686530903770255e-05
2.674603174603174427e+00,-3.515711259887635152e-05,-1.270204233128993958e-04
2.675396825396825218e+00,-2.308806622510729690e-05,-2.213180845122875466e-04
2.676190476190476009e+00,-9.270172081923784758e-06,-2.957808831855622176e-04
2.676984126984126799e+00,5.194435500116180104e-06,-3.420060411999546941e-04
2.677777777777777590e+00,1.907770012594419592e-05,-3.562714943092810255e-04
2.678571428571428381e+00,3.086664310820048793e-05,-3.397798271704404469e-04
2.679365079365079172e+00,3.877539003620515017e-05,-2.979089932323380043e-04
2.680158730158729963e+00,4.097446038205998698e-05,-2.387632157799344384e-04
2.680952380952380754e+00,3.599892103843673152e-05,-1.714248117171749113e-04
2.681746031746031544e+00,2.322797775034421658e-05,-1.043050897084056599e-04
2.682539682539682335e+00,3.289146758845194866e-06,-4.391652695517662844e-05
2.683333333333333126e+00,-2.175968815998936682e-05,5.746776640855461501e-06
2.684126984126983917e+00,-4.857081607018631856e-05,4.320455486328369837e-05
2.684920634920634708e+00,-7.298555761293121832e-05,6.900150959056920383e-05
2.685714285714285499e+00,-9.077056880210617785e-05,8.496485347824171556e-05
2.686507936507936289e+00,-9.845518244816363785e-05,9.344810596567102899e-05
2.687301587301587080e+00,-9.407898038360527416e-05,9.674126042243825368e-05
2.688095238095238315e+00,-7.766949177874750345e-05,9.672957453639149993e-05
2.688888888888889106e+00,-5.132333993540636499e-05,9.478489956869272175e-05
2.689682539682539897e+00,-1.885345038265351874e-05,9.180747329649646075e-05
2.690476190476190688e+00,1.492962902773991347e-05,8.832023117558320110e-05
2.691269841269841478e+00,4.514371729114088997e-05,8.454919775425895183e-05
2.692063492063492269e+00,6.775949870360597148e-05,8.047791664135213235e-05
2.692857142857143060e+00,8.031346959876853699e-05,7.590456446637707921e-05
2.693650793650793851e+00,8.224650278188957943e-05,7.053223518923891499e-05
2.694444444444444642e+00,7.479877610172308740e-05,6.409148465366768270e-05
2.695238095238095433e+00,6.051624785946186518e-05,5.646005532436586168e-05
2.696031746031746223e+00,4.253746808515224560e-05,4.773686871184431988e-05
2.696825396825397014e+00,2.388117149984538229e-05,3.825034463487412726e-05
2.697619047619047805e+00,6.921861116060715046e-06,2.851318053933044009e-05
2.698412698412698596e+00,-6.854657613335464932e-06,1.915137392838184288e-05
2.699206349206349387e+00,-1.683094405366109789e-05,1.082948350965719892e-05
2.700000000000000178e+00,-2.306166107499042528e-05,4.180920924474620674e-06
2.700793650793650968e+00,-2.601113506640660188e-05,-2.569237424870257554e-07
2.701587301587301759e+00,-2.631204507797134918e-05,-2.107578205434696015e-06
2.702380952380952550e+00,-2.459296366618048151e-05,-1.226948946601432727e-06
2.703174603174603341e+00,-2.138857981245194259e-05,2.216986266512916205e-06
2.703968253968254132e+00,-1.712506635722127845e-05,7.668584859576403346e-06
2.704761904761904923e+00,-1.215913597525773426e-05,1.414404569780404823e-05
2.705555555555555713e+00,-6.839075649823913559e-06,2.026945750931416070e-05
2.706349206349206504e+00,-1.553271854831275792e-06,2.443470983666213298e-05
2.707142857142857295e+00,3.259142889844737380e-06,2.507082217433037242e-05
2.707936507936508086e+00,7.143841740731091404e-06,2.101326090086056778e-05
2.708730158730158877e+00,9.705556724647652420e-06,1.187089378239864571e-05
2.709523809523809668e+00,1.070289536041926326e-05,-1.704659223503908536e-06
2.710317460317460458e+00,1.013738549887341150e-05,-1.795132947920867787e-05
2.711111111111111249e+00,8.303606002864971373e-06,-3.419762378475188410e-05
2.711904761904762040e+00,5.767203829818375963e-06,-4.733693596179485932e-05
2.712698412698412831e+00,3.251927074173620476e-06,-5.450225561720183797e-05
2.713492063492063622e+00,1.447981026361705028e-06,-5.379511013971175225e-05
2.714285714285714413e+00,7.931778743048900155e-07,-4.487752276333574340e-05
2.715079365079365203e+00,1.305253184435567874e-06,-2.924102657724649020e-05
2.715873015873015994e+00,2.538601460805039949e-06,-1.003020705984352157e-05
2.716666666666666785e+00,3.698925188878380112e-06,8.591762127195590914e-06
2.717460317460317576e+00,3.892417305677843815e-06,2.241720345333870221e-05
2.718253968253968367e+00,2.435947506569301012e-06,2.827169729718375673e-05
2.719047619047619158e+00,-8.718292073104275440e-07,2.489526821035403689e-05
2.719841269841269948e+00,-5.614077347868810429e-06,1.335027790486539937e-05
2.720634920634920739e+00,-1.081458041322281770e-05,-3.199450927998471427e-06
2.721428571428571530e+00,-1.519372896418416480e-05,-2.030364346382799895e-05
2.722222222222222321e+00,-1.755635106924496321e-05,-3.340472140488744048e-05
2.723015873015873112e+00,-1.719136807312210654e-05,-3.902679503919094403e-05
2.723809523809523903e+00,-1.414480697505051204e-05,-3.562213371009328240e-05
2.724603174603174693e+00,-9.257916268529441385e-06,-2.385294551307050889e-05
2.725396825396825484e+00,-3.932694339613817205e-06,-6.285746485070400907e-06
2.726190476190476275e+00,3.252188650561015418e-07,1.334568914389159204e-05
2.726984126984127066e+00,2.457368646125664060e-06,3.106238391302069268e-05
2.727777777777777857e+00,2.321582930058899761e-06,4.350659530706336943e-05
2.728571428571428648e+00,9.097816442433102861e-07,4.857521627123850225e-05
2.729365079365079438e+00,2.087151563535376654e-07,4.572351462810723472e-05
2.730158730158730229e+00,2.700792693201858229e-06,3.592285814426440153e-05
2.730952380952381020e+00,1.060995479162182644e-05,2.132628917448565244e-05
2.731746031746031811e+00,2.507938306386744563e-05,4.745624503577584550e-06
2.732539682539682602e+00,4.550546378587714684e-05,-1.093191750821196479e-05
2.733333333333333393e+00,6.923815700257805619e-05,-2.326125100845065086e-05
2.734126984126984183e+00,9.179343047214259864e-05,-3.059435283387885258e-05
2.734920634920634974e+00,1.076178107364718633e-04,-3.223025740058314240e-05
2.735714285714285765e+00,1.113088694437804521e-04,-2.837913831555302874e-05
2.736507936507936556e+00,9.904431806463503669e-05,-2.000028890602195081e-05
2.737301587301587347e+00,6.984570018968342092e-05,-8.577718298384325255e-06
2.738095238095238138e+00,2.626508114550917268e-05,4.126000675880982856e-06
2.738888888888888928e+00,-2.581196645633388750e-05,1.631895271567045585e-05
2.739682539682539719e+00,-7.830773309322999526e-05,2.641376928557265157e-05
2.740476190476190510e+00,-1.227817391779926343e-04,3.321226531233810507e-05
2.741269841269841301e+00,-1.524258707042984884e-04,3.600074566866981669e-05
2.742063492063492092e+00,-1.636146259589627190e-04,3.453783761233879409e-05
2.742857142857142883e+00,-1.565461775216833902e-04,2.896038193877166996e-05
2.743650793650793673e+00,-1.348328918567800636e-04,1.967021068865213232e-05
2.744444444444444464e+00,-1.042562228010754941e-04,7.265902954901356229e-06
2.745238095238095255e+00,-7.114441745848280266e-05,-7.457592825766245580e-06
2.746031746031746046e+00,-4.088267635531042806e-05,-2.347439475344471771e-05
2.746825396825396837e+00,-1.693598688108684659e-05,-3.951931091154813351e-05
2.747619047619047628e+00,-5.377746719600215116e-07,-5.414870172371614608e-05
2.748412698412698418e+00,9.023721131129543730e-06,-6.586974885385986529e-05
2.749206349206349209e+00,1.373200811874810204e-05,-7.330504725046927447e-05
2.750000000000000000e+00,1.603577691943673493e-05,-7.535948314547884642e-05
2.750793650793650791e+00,1.812750313824393938e-05,-7.137707236435345990e-05
2.751587301587301582e+00,2.144770495759342933e-05,-6.128633255742851730e-05
2.752380952380952372e+00,2.646910296894386760e-05,-4.571762132421226376e-05
2.753174603174603163e+00,3.274249481548799416e-05,-2.605170112085663215e-05
2.753968253968253954e+00,3.913888755220701267e-05,-4.354642609810318804e-06
2.754761904761904745e+00,4.420323452956912222e-05,1.682319903536756161e-05
2.755555555555555536e+00,4.653843936145858596e-05,3.477400016375722811e-05
2.756349206349206327e+00,4.515241599526281780e-05,4.704670439908587059e-05
2.757142857142857117e+00,3.971596011429750898e-05,5.188480741842108339e-05
2.757936507936507908e+00,3.069259726021837068e-05,4.860058154167806260e-05
2.758730158730158699e+00,1.931668289065467477e-05,3.779193497605154835e-05
2.759523809523809490e+00,7.416625553721747571e-06,2.133280537515171952e-05
2.760317460317460281e+00,-2.893067452052939956e-06,2.118662892859650988e-06
2.761111111111111072e+00,-9.598597023484728782e-06,-1.639576912583552126e-05
2.761904761904761862e+00,-1.117876379443849898e-05,-3.078618559742177609e-05
2.762698412698412653e+00,-6.922076225511885535e-06,-3.827082328591188101e-05
2.763492063492063444e+00,2.899608194998659067e-06,-3.723458626544920159e-05
2.764285714285714235e+00,1.704394330532364986e-05,-2.756486980674802251e-05
2.765079365079365026e+00,3.350330151720422409e-05,-1.072289232590943500e-05
2.765873015873015817e+00,4.986401534662505546e-05,1.048171057436808535e-05
2.766666666666666607e+00,6.374053517456259395e-05,3.237924650602500682e-05
2.767460317460317398e+00,7.318082436119450129e-05,5.108914692418840353e-05
2.768253968253968189e+00,7.694179897927558363e-05,6.319149399777775479e-05
2.769047619047618980e+00,7.457153467615334260e-05,6.629564105901056433e-05
2.769841269841269771e+00,6.630557992488964091e-05,5.942714946218963950e-05
2.770634920634920562e+00,5.285973012721211769e-05,4.320018022358823655e-05
2.771428571428571352e+00,3.523682684298977332e-05,1.976713981349839368e-05
2.772222222222222143e+00,1.463519361774089221e-05,-7.453195321078512678e-06
2.773015873015872934e+00,-7.534848311333695264e-06,-3.425508406586242878e-05
2.773809523809523725e+00,-2.960778957718748257e-05,-5.629224111968523538e-05
2.774603174603174516e+00,-4.971355689031775810e-05,-6.981288802622319563e-05
2.775396825396825307e+00,-6.599617377719891231e-05,-7.236522596293389997e-05
2.776190476190476097e+00,-7.696266598506696624e-05,-6.332699061391438059e-05
2.776984126984126888e+00,-8.182297728676349508e-05,-4.411364199421895151e-05
2.777777777777777679e+00,-8.066413664713362999e-05,-1.796723652547341089e-05
2.778571428571428470e+00,-7.437724102071889565e-05,1.067087242647625053e-05
2.779365079365079261e+00,-6.437030923824827128e-05,3.706870304435983497e-05
2.780158730158730052e+00,-5.218737642406228350e-05,5.715617776879581104e-05
2.780952380952380842e+00,-3.917708890476588813e-05,6.827179818912148493e-05
2.781746031746031633e+00,-2.631409669672706095e-05,6.954120533165553152e-05
2.782539682539682424e+00,-1.420202298574655153e-05,6.185699806024751082e-05
2.783333333333333215e+00,-3.213289786639657908e-06,4.753384253121075353e-05
2.784126984126984006e+00,6.324788345761986985e-06,2.975906486942107761e-05
2.784920634920634797e+00,1.399533896070847228e-05,1.196032045339623105e-05
2.785714285714285587e+00,1.927739444912398016e-05,-2.804294694682404478e-06
2.786507936507936378e+00,2.166715678132714241e-05,-1.234627645733123001e-05
2.787301587301587169e+00,2.089114337206761268e-05,-1.566733436454245646e-05
2.788095238095237960e+00,1.712108811855003499e-05,-1.305463720523817856e-05
2.788888888888888751e+00,1.108740976911567177e-05,-5.939232434498042192e-06
2.789682539682539542e+00,4.020175783447378232e-06,3.451184306075469491e-06
2.790476190476190332e+00,-2.584814379945611461e-06,1.257417584421618554e-05
2.791269841269841123e+00,-7.304890161994317923e-06,1.909270164197426713e-05
2.792063492063491914e+00,-9.126419633000836814e-06,2.133189025931467547e-05
2.792857142857142705e+00,-7.680986228020927049e-06,1.858637723498210065e-05
2.793650793650793496e+00,-3.329276472226809832e-06,1.122401149011103203e-05
2.794444444444444287e+00,2.911262644925701125e-06,5.716993733497516757e-07
2.795238095238095077e+00,9.566795422665723162e-06,-1.139085596873869151e-05
2.796031746031745868e+00,1.499627112991847560e-05,-2.246796239398156139e-05
2.796825396825396659e+00,1.773046793975128325e-05,-3.072495492182290269e-05
2.797619047619047450e+00,1.681849257751326349e-05,-3.489969372419955788e-05
2.798412698412698241e+00,1.212499909719810191e-05,-3.465057918971692753e-05
2.799206349206349032e+00,4.504427526537030457e-06,-3.057941790085815783e-05
2.799999999999999822e+00,-4.223096331360451260e-06,-2.402481991582224057e-05
2.800793650793650613e+00,-1.154080363656969463e-05,-1.668285208007177397e-05
2.801587301587301404e+00,-1.473533758660388785e-05,-1.016003006141407779e-05
2.802380952380952195e+00,-1.153840578882952876e-05,-5.584695358775377741e-06
2.803174603174602986e+00,-7.601439793198595565e-07,-3.381269646364700129e-06
2.803968253968253777e+00,1.725260979309588079e-05,-3.249631421136691354e-06
2.804761904761904567e+00,4.046329253747247889e-05,-4.322211506746988098e-06
2.805555555555555358e+00,6.535341473677334890e-05,-5.432558123777033413e-06
2.806349206349206149e+00,8.746404787097750144e-05,-5.425989866049994949e-06
2.807142857142856940e+00,1.021762831839452253e-04,-3.453110746249820339e-06
2.807936507936507731e+00,1.055903279265743604e-04,8.050017501686016077e-07
2.808730158730158522e+00,9.533820664340741035e-05,7.022343949230083536e-06
2.809523809523809312e+00,7.116424899065200156e-05,1.425000728051033236e-05
2.810317460317460103e+00,3.513812396133439664e-05,2.107534945999633478e-05
2.811111111111110894e+00,-8.570425266754727633e-06,2.589162317046077023e-05
2.811904761904761685e+00,-5.433798738233663021e-05,2.723007449929699549e-05
2.812698412698412920e+00,-9.604710370884259041e-05,2.409696175083341966e-05
2.813492063492063711e+00,-1.281791426483049187e-04,1.625998447213159055e-05
2.814285714285714501e+00,-1.468207616399007593e-04,4.437348539818807117e-06
2.815079365079365292e+00,-1.503643145971312494e-04,-9.647792440946057748e-06
2.815873015873016083e+00,-1.397307328967671114e-04,-2.337719696356605230e-05
2.816666666666666874e+00,-1.180451432557703636e-04,-3.353258662700306760e-05
2.817460317460317665e+00,-8.983537036270462588e-05,-3.677924795882915701e-05
2.818253968253968456e+00,-5.995685763449389944e-05,-3.030848888222553662e-05
2.819047619047619246e+00,-3.252093236090948666e-05,-1.255978796789692963e-05
2.819841269841270037e+00,-1.008964076810945318e-05,1.611400025892899195e-05
2.820634920634920828e+00,6.685691559970806250e-06,5.302059140025920599e-05
2.821428571428571619e+00,1.892554359649346410e-05,9.312791112792010492e-05
2.822222222222222410e+00,2.894726555792009136e-05,1.296132741682843150e-04
2.823015873015873201e+00,3.941621931184666102e-05,1.549552716066256684e-04
2.823809523809523991e+00,5.244062733190825562e-05,1.623978901132373462e-04
2.824603174603174782e+00,6.883137871187890600e-05,1.474763934496637274e-04
2.825396825396825573e+00,8.770699141174842235e-05,1.092289572731343963e-04
2.826190476190476364e+00,1.065533179918723710e-04,5.075510422110505792e-05
2.826984126984127155e+00,1.217540147718073669e-04,-2.107777743855592014e-05
2.827777777777777946e+00,1.294930209718877481e-04,-9.676619618536713404e-05
2.828571428571428736e+00,1.268124106963819506e-04,-1.659035292972361813e-04
2.829365079365079527e+00,1.125296120367666377e-04,-2.191148665232197311e-04
2.830158730158730318e+00,8.772157501772315691e-05,-2.497464971851510855e-04
2.830952380952381109e+00,5.558868048812473552e-05,-2.549399655607140994e-04
2.831746031746031900e+00,2.069678511337048150e-05,-2.358897591397707977e-04
2.832539682539682691e+00,-1.219533614501782589e-05,-1.972896238268659385e-04
2.833333333333333481e+00,-3.935944619325295262e-05,-1.461612150786985699e-04
2.834126984126984272e+00,-5.897187665416115786e-05,-9.038427232874930739e-05
2.834920634920635063e+00,-7.134952960689619071e-05,-3.727649759437651715e-05
2.835714285714285854e+00,-7.848702248470875212e-05,7.497676661238975264e-06
2.836507936507936645e+00,-8.308936198004767857e-05,4.053830235367365022e-05
2.837301587301587436e+00,-8.747024820956115479e-05,6.082287971792445773e-05
2.838095238095238226e+00,-9.271050276029590433e-05,6.940363355318623115e-05
2.838888888888889017e+00,-9.834400647670874212e-05,6.882774612312878601e-05
2.839682539682539808e+00,-1.026275287558747154e-04,6.243273966867352053e-05
2.840476190476190599e+00,-1.032484152753656746e-04,5.365146206296425742e-05
2.841269841269841390e+00,-9.819796336628239925e-05,4.542797826199733224e-05
2.842063492063492181e+00,-8.651268218184333708e-05,3.980973226054992334e-05
2.842857142857142971e+00,-6.865383824560643961e-05,3.774878677980529937e-05
2.843650793650793762e+00,-4.643167262067842327e-05,3.911773765952966940e-05
2.844444444444444553e+00,-2.253730772172562490e-05,4.292128643516286517e-05
2.845238095238095344e+00,1.367838949738311607e-07,4.765596915178299932e-05
2.846031746031746135e+00,1.916847867470302790e-05,5.173825354602170062e-05
2.846825396825396925e+00,3.308977085506843117e-05,5.390004830451483646e-05
2.847619047619047716e+00,4.158517779411967992e-05,5.346057996504630420e-05
2.848412698412698507e+00,4.539585377038288428e-05,5.042751653408713983e-05
2.849206349206349298e+00,4.599109681229726100e-05,4.543522045470297618e-05
2.850000000000000089e+00,4.511300244987473493e-05,3.956433228234604343e-05
2.850793650793650880e+00,4.431776241078657182e-05,3.409436348256159082e-05
2.851587301587301670e+00,4.462982264471827842e-05,3.023191578738309687e-05
2.852380952380952461e+00,4.639152283117834526e-05,2.884832399356088118e-05
2.853174603174603252e+00,4.933244006120621953e-05,3.025992451303380598e-05
2.853968253968254043e+00,5.281243377213450579e-05,3.409008418407422905e-05
2.854761904761904834e+00,5.613468685801270141e-05,3.925619914662221895e-05
2.855555555555555625e+00,5.880441679150272022e-05,4.411603087020439870e-05
2.856349206349206415e+00,6.063726780652989106e-05,4.677866119515819340e-05
2.857142857142857206e+00,6.169044681791764043e-05,4.553840309328375792e-05
2.857936507936507997e+00,6.207079474923840492e-05,3.933887283428979783e-05
2.858730158730158788e+00,6.172820819584609088e-05,2.814156855037238755e-05
2.859523809523809579e+00,6.034172809007671103e-05,1.308142170629810518e-05
2.860317460317460370e+00,5.735098159890712212e-05,-3.654451524292338843e-06
2.861111111111111160e+00,5.211004710703188558e-05,-1.921437352213718682e-05
2.861904761904761951e+00,4.408665104120687068e-05,-3.066592901996189664e-05
2.862698412698412742e+00,3.302371229360661693e-05,-3.567065325061309020e-05
2.863492063492063533e+00,1.901920513071487265e-05,-3.311875275457724189e-05
2.864285714285714324e+00,2.532567392245612015e-06,-2.357115470525829006e-05
2.865079365079365115e+00,-1.564625674200560780e-05,-9.358888511596553255e-06
2.865873015873015905e+00,-3.443854523106474903e-05,5.754630639570120727e-06
2.866666666666666696e+00,-5.252964873970363793e-05,1.733026747793408717e-05
2.867460317460317487e+00,-6.845108147416955951e-05,2.127523243555036564e-05
2.868253968253968278e+00,-8.071111900033036226e-05,1.487694764060403004e-05
2.869047619047619069e+00,-8.798392482010755405e-05,-2.424500151963440742e-06
2.869841269841269860e+00,-8.934825033973432004e-05,-2.873523451683212011e-05
2.870634920634920650e+00,-8.453411686736207482e-05,-5.997243472297686260e-05
2.871428571428571441e+00,-7.410045106325186589e-05,-9.065383342575469340e-05
2.872222222222222232e+00,-5.945758562315838901e-05,-1.150361140808507377e-04
2.873015873015873023e+00,-4.268583679621191466e-05,-1.283264324583865425e-04
2.873809523809523814e+00,-2.617049012411277879e-05,-1.276693559668677853e-04
2.874603174603174605e+00,-1.213780088082447040e-05,-1.126847211644896372e-04
2.875396825396825395e+00,-2.209517006593305333e-06,-8.546646579656951264e-05
2.876190476190476186e+00,2.910066949066284307e-06,-5.009081981288901209e-05
2.876984126984126977e+00,3.535200875406192899e-06,-1.178550351092216000e-05
2.877777777777777768e+00,8.660754596643239985e-07,2.403282993669173101e-05
2.878571428571428559e+00,-3.334062102284401834e-06,5.264320073813601755e-05
2.879365079365079350e+00,-7.156843895800924195e-06,7.067009028371472128e-05
2.880158730158730140e+00,-8.947469597735594780e-06,7.643246438340429191e-05
2.880952380952380931e+00,-7.592147772889517351e-06,7.001443189937384712e-05
2.881746031746031722e+00,-2.655796746118138967e-06,5.312530178476975807e-05
2.882539682539682513e+00,5.613580579207982045e-06,2.880986831491034539e-05
2.883333333333333304e+00,1.637134718867330472e-05,1.038553050592350937e-06
2.884126984126984095e+00,2.831796270949821367e-05,-2.581016891982213890e-05
2.884920634920634885e+00,3.987846857214675459e-05,-4.754862678120895834e-05
2.885714285714285676e+00,4.941014096374485054e-05,-6.079675289137292222e-05
2.886507936507936467e+00,5.542474577652463168e-05,-6.351472912182024077e-05
2.887301587301587258e+00,5.680541752281834372e-05,-5.533476277548328838e-05
2.888095238095238049e+00,5.299482725733400674e-05,-3.760506638302932585e-05
2.888888888888888840e+00,4.412952882679911382e-05,-1.312857106936580214e-05
2.889682539682539630e+00,3.109282518022868548e-05,1.434502780980356179e-05
2.890476190476190421e+00,1.545653924462290867e-05,4.076803865586211450e-05
2.891269841269841212e+00,-7.128364419312615094e-07,6.246974003484129625e-05
2.892063492063492003e+00,-1.518596443948680871e-05,7.675481116678776940e-05
2.892857142857142794e+00,-2.599810259536939567e-05,8.233292598574870136e-05
2.893650793650793585e+00,-3.187443365875349259e-05,7.949506202610332601e-05
2.894444444444444375e+00,-3.252138636652588625e-05,6.997811759796393222e-05
2.895238095238095166e+00,-2.867131052364470768e-05,5.652050939118545640e-05
2.896031746031745957e+00,-2.184495185888741156e-05,4.219666457090697279e-05
2.896825396825396748e+00,-1.389953351676251737e-05,2.969164454649045077e-05
2.897619047619047539e+00,-6.511577384880747994e-06,2.070096410464187300e-05
2.898412698412698330e+00,-7.657873284726827381e-07,1.560234807764199371e-05
2.899206349206349120e+00,3.022803214191696792e-06,1.346699944235609463e-05
2.899999999999999911e+00,5.213725425797146897e-06,1.239330101570685532e-05
2.900793650793650702e+00,6.527969144949742356e-06,1.007670641560195804e-05
2.901587301587301493e+00,7.641939933591534312e-06,4.479361206795157193e-06
2.902380952380952284e+00,8.839720703550377944e-06,-5.563267554144025665e-06
2.903174603174603075e+00,9.851945533554552008e-06,-1.994961365541271389e-05
2.903968253968253865e+00,9.945503486814456112e-06,-3.722680461750745408e-05
2.904761904761904656e+00,8.239858644665423146e-06,-5.482225357204912534e-05
2.905555555555555447e+00,4.137405749609085272e-06,-6.952591551032099172e-05
2.906349206349206238e+00,-2.300487861019356554e-06,-7.811675533014037550e-05
2.907142857142857029e+00,-1.019352863482379736e-05,-7.801821566764987389e-05
2.907936507936507819e+00,-1.798567167939048037e-05,-6.787035076791887375e-05
2.908730158730158610e+00,-2.386344926772700602e-05,-4.790988382374690733e-05
2.909523809523809401e+00,-2.631374286406984274e-05,-2.006160157209902631e-05
2.910317460317460192e+00,-2.462717359421487956e-05,1.231662319387552937e-05
2.911111111111110983e+00,-1.916602363500538654e-05,4.501668184611437069e-05
2.911904761904761774e+00,-1.129589575338296972e-05,7.377401419905443706e-05
2.912698412698412564e+00,-3.000399047405144049e-06,9.507595822441555268e-05
2.913492063492063355e+00,3.689077353281242762e-06,1.067692507645869862e-04
2.914285714285714146e+00,7.257252933888069368e-06,1.083055735272563271e-04
2.915079365079364937e+00,7.085874737526345790e-06,1.005735735208490177e-04
2.915873015873015728e+00,3.550629548227804825e-06,8.539717229641615728e-05
2.916666666666666519e+00,-2.164342987615198705e-06,6.489271962512743351e-05
2.917460317460317309e+00,-8.443264703081585878e-06,4.092505682433487512e-05
2.918253968253968100e+00,-1.367128793295148368e-05,1.485078067978499972e-05
2.919047619047618891e+00,-1.659677071366238995e-05,-1.240080243078643584e-05
2.919841269841269682e+00,-1.654548898612385473e-05,-4.001249221287553592e-05
2.920634920634920473e+00,-1.346970039212174713e-05,-6.692023632641811402e-05
2.921428571428571264e+00,-7.864492291064842841e-06,-9.158742158455174915e-05
2.922222222222222054e+00,-6.080373586475443354e-07,-1.120105717311257738e-04
2.923015873015872845e+00,7.220867785532293402e-06,-1.259691684366093863e-04
2.923809523809523636e+00,1.451568242949582460e-05,-1.314675079029566920e-04
2.924603174603174427e+00,2.029579080150519302e-05,-1.272633029223203024e-04
2.925396825396825218e+00,2.384129209173013067e-05,-1.133308921959601788e-04
2.926190476190476009e+00,2.480242947941639696e-05,-9.109081947042448470e-05
2.926984126984126799e+00,2.326270783451262042e-05,-6.328590520628438838e-05
2.927777777777777590e+00,1.972843111250442428e-05,-3.349883503890995693e-05
2.928571428571428381e+00,1.502904850320040280e-05,-5.441444629217910352e-06
2.929365079365079172e+00,1.013846629061495768e-05,1.776736962242029145e-05
2.930158730158729963e+00,5.954627256413516724e-06,3.412402304150692866e-05
2.930952380952380754e+00,3.092216392601847798e-06,4.294237055132518217e-05
2.931746031746031544e+00,1.745727912704125253e-06,4.474109641378457328e-05
2.932539682539682335e+00,1.664622946278354858e-06,4.092483296400127780e-05
2.933333333333333126e+00,2.251368826625358018e-06,3.340611903692972562e-05
2.934126984126983917e+00,2.758290022976294342e-06,2.427931943888629143e-05
2.934920634920634708e+00,2.534411405831959158e-06,1.557499188632566846e-05
2.935714285714285499e+00,1.263955961223264025e-06,9.053279369408609767e-06
2.936507936507936289e+00,-8.602558351931865440e-07,5.990036593380928826e-06
2.937301587301587080e+00,-3.076891053377399527e-06,6.967080000236797425e-06
2.938095238095238315e+00,-4.142996843924503915e-06,1.174063677006912896e-05
2.938888888888889106e+00,-2.577620653313770605e-06,1.927229788185778555e-05
2.939682539682539897e+00,2.960608373167127502e-06,2.795582473307868757e-05
2.940476190476190688e+00,1.322502726529113086e-05,3.599631701061939377e-05
2.941269841269841478e+00,2.796419403545124868e-05,4.183704383681967169e-05
2.942063492063492269e+00,4.566150243425524062e-05,4.450716856945780302e-05
2.942857142857143060e+00,6.354402823368042192e-05,4.378812420738735782e-05
2.943650793650793851e+00,7.792308878222872640e-05,4.016152216424424056e-05
2.944444444444444642e+00,8.484991337909783321e-05,3.458097314462786631e-05
2.945238095238095433e+00,8.098030654081877079e-05,2.816537455058258158e-05
2.946031746031746223e+00,6.446280957607242016e-05,2.191801674240352057e-05
2.946825396825397014e+00,3.561835480969430365e-05,1.654178168477949627e-05
2.947619047619047805e+00,-2.808962735821724605e-06,1.237482236387774001e-05
2.948412698412698596e+00,-4.596225996222224513e-05,9.438434549722431849e-06
2.949206349206349387e+00,-8.772005962825179268e-05,7.571067213665639776e-06
2.950000000000000178e+00,-1.218858465357759290e-04,6.605006511172260963e-06
2.950793650793650968e+00,-1.434067876918248272e-04,6.520586848579190567e-06
2.951587301587301759e+00,-1.493072022265155071e-04,7.503430111330906638e-06
2.952380952380952550e+00,-1.391327929143490699e-04,9.854335280019108117e-06
2.953174603174603341e+00,-1.148669319541937970e-04,1.376156395634124056e-05
2.953968253968254132e+00,-8.042341117692166556e-05,1.901669957513857736e-05
2.954761904761904923e+00,-4.089038158561665045e-05,2.479907172279064088e-05
2.955555555555555713e+00,-1.695590216699149671e-06,2.964436128678002994e-05
2.956349206349206504e+00,3.218244214656528244e-05,3.165514673969085425e-05
2.957142857142857295e+00,5.687920404426069710e-05,2.892996471974232741e-05
2.957936507936508086e+00,7.013218679883358858e-05,2.010996976292237987e-05
2.958730158730158877e+00,7.154410580093419417e-05,4.890950000306990308e-06
2.959523809523809668e+00,6.257418378257321296e-05,-1.565995974254315635e-05
2.960317460317460458e+00,4.622803812783955464e-05,-3.910450710821559837e-05
2.961111111111111249e+00,2.646377765203945017e-05,-6.199604436629516395e-05
2.961904761904762040e+00,7.402907194632464612e-06,-8.055376942146868981e-05
2.962698412698412831e+00,-7.494836038163885924e-06,-9.149957640993399701e-05
2.963492063492063622e+00,-1.609720029812270779e-05,-9.283996531145480389e-05
2.964285714285714413e+00,-1.793463531164032988e-05,-8.437314184798631921e-05
2.965079365079365203e+00,-1.412257064581413358e-05,-6.777652892890558044e-05
2.965873015873015994e+00,-6.911932120471553718e-06,-4.625209220136190552e-05
2.966666666666666785e+00,9.843540312401474537e-07,-2.382993115025372621e-05
2.967460317460317576e+00,7.095541968664194811e-06,-4.517067341023075220e-06
2.968253968253968367e+00,9.756049196505348759e-06,8.498231750661374746e-06
2.969047619047619158e+00,8.414923679372701828e-06,1.342205975360855316e-05
2.969841269841269948e+00,3.647081847514076254e-06,1.013136510259038274e-05
2.970634920634920739e+00,-3.111434889164100572e-06,1.482068004161089727e-07
2.971428571428571530e+00,-1.001619120878959077e-05,-1.365316116520947172e-05
2.972222222222222321e+00,-1.531756664488457791e-05,-2.755951279383548903e-05
2.973015873015873112e+00,-1.776938429333125611e-05,-3.769150519259092160e-05
2.973809523809523903e+00,-1.684258883537535900e-05,-4.074672185149313627e-05
2.974603174603174693e+00,-1.272037397279234790e-05,-3.468978879182517102e-05
2.975396825396825484e+00,-6.123779629526289772e-06,-1.924692335756075892e-05
2.976190476190476275e+00,1.942018053957294561e-06,3.925426413842283346e-06
2.976984126984127066e+00,1.042825652202920168e-05,3.147199132375855902e-05
2.977777777777777857e+00,1.840634531337685068e-05,5.894884158787151371e-05
2.978571428571428648e+00,2.513549507914312971e-05,8.168731106634476678e-05
2.979365079365079438e+00,3.005724520783512976e-05,9.571892614784130047e-05
2.980158730158730229e+00,3.276539465737990543e-05,9.856251530036641919e-05
2.980952380952381020e+00,3.299912087471855990e-05,8.971916518241735848e-05
2.981746031746031811e+00,3.068068329811937764e-05,7.078372009045655864e-05
2.982539682539682602e+00,2.598061211204394217e-05,4.514373829459987177e-05
2.983333333333333393e+00,1.936477500737247950e-05,1.730400021762625306e-05
2.984126984126984183e+00,1.157687305031970023e-05,-8.043622570123736985e-06
2.984920634920634974e+00,3.538327808863631130e-06,-2.700297340082098978e-05
2.985714285714285765e+00,-3.811278272266491598e-06,-3.726393150033156625e-05
2.986507936507936556e+00,-9.681411635534272096e-06,-3.848958478601131254e-05
2.987301587301587347e+00,-1.355449433642623226e-05,-3.220718424979999262e-05
2.988095238095238138e+00,-1.524109422032323991e-05,-2.126709628911385017e-05
2.988888888888888928e+00,-1.487013402716395850e-05,-9.059063506846959867e-06
2.989682539682539719e+00,-1.283246486604724219e-05,1.283662113851702411e-06
2.990476190476190510e+00,-9.694320813646465379e-06,7.503085267605007071e-06
2.991269841269841301e+00,-6.090616916480989065e-06,8.553912734250450055e-06
2.992063492063492092e+00,-2.608828633385869154e-06,4.644055704461694336e-06
2.992857142857142883e+00,3.170517695763519834e-07,-2.970105107534331832e-06
2.993650793650793673e+00,2.476266511023813988e-06,-1.234763513520188885e-05
2.994444444444444464e+00,3.893127921379514809e-06,-2.129704951500245949e-05
2.995238095238095255e+00,4.775537208955850141e-06,-2.780491721873793590e-05
2.996031746031746046e+00,5.415696377458130020e-06,-3.039813059904189859e-05
2.996825396825396837e+00,6.075197161621895034e-06,-2.839143209080120499e-05
2.997619047619047628e+00,6.892065388025873322e-06,-2.198956551559621365e-05
2.998412698412698418e+00,7.839249741272864215e-06,-1.223842829508933936e-05
2.999206349206349209e+00,8.745909566363836818e-06,-8.424097175328046514e-07
3.000000000000000000e+00,9.371155418888520635e-06,1.012314245525809778e-05
3.000793650793650791e+00,9.501044045383759041e-06,1.857149217474941046e-05
3.001587301587301582e+00,9.029284151359718687e-06,2.279678293586120342e-05
3.002380952380952372e+00,7.985643658250910653e-06,2.184441594108735507e-05
3.003174603174603163e+00,6.496589473486211327e-06,1.578477135465202320e-05
3.003968253968253954e+00,4.695532804561731253e-06,5.804330385486733145e-06
3.004761904761904745e+00,2.629434103044334037e-06,-5.954453144274829774e-06
3.005555555555555536e+00,2.154236488244749552e-07,-1.681554413659607254e-05
3.006349206349206327e+00,-2.721500148824995498e-06,-2.417813879640009467e-05
3.007142857142857117e+00,-6.339120370231226436e-06,-2.615620338856402185e-05
3.007936507936507908e+00,-1.064306840800568483e-05,-2.206248948776877195e-05
3.008730158730158699e+00,-1.538689678827500260e-05,-1.259020803679415109e-05
3.009523809523809490e+00,-2.005482347589348038e-05,3.584279707380899077e-07
3.010317460317460281e+00,-2.394337479409261967e-05,1.413309904486942995e-05
3.011111111111111072e+00,-2.632263984938278034e-05,2.593683930621847909e-05
3.011904761904761862e+00,-2.662907946094971383e-05,3.340136464759630553e-05
3.012698412698412653e+00,-2.462786168512422073e-05,3.501766596809204068e-05
3.013492063492063444e+00,-2.049062836545172800e-05,3.037079419795946116e-05
3.014285714285714235e+00,-1.476390798763067243e-05,2.016995473080516232e-05
3.015079365079365026e+00,-8.241677354740444038e-06,6.082734700323988722e-06
3.015873015873015817e+00,-1.785913997739264710e-06,-9.596301172958877234e-06
3.016666666666666607e+00,3.849806983368922231e-06,-2.437745494941626832e-05
3.017460317460317398e+00,8.147806136531893882e-06,-3.601434468798750074e-05
3.018253968253968189e+00,1.088133218079890089e-05,-4.285732405554488968e-05
3.019047619047618980e+00,1.209795328539971812e-05,-4.406523732683504280e-05
3.019841269841269771e+00,1.204994248225871962e-05,-3.966353554170377329e-05
3.020634920634920562e+00,1.109881670209112059e-05,-3.046683398471746303e-05
3.021428571428571352e+00,9.621751905847233122e-06,-1.789543770700274046e-05
3.022222222222222143e+00,7.942094152285736098e-06,-3.719179942868760384e-06
3.023015873015872934e+00,6.296173303350858194e-06,1.023332666300866830e-05
3.023809523809523725e+00,4.836446490916141366e-06,2.235618312160677333e-05
3.024603174603174516e+00,3.659974539798434614e-06,3.149260200562360365e-05
3.025396825396825307e+00,2.844462881720616208e-06,3.706746576116967955e-05
3.026190476190476097e+00,2.473419454099371318e-06,3.910502475126735968e-05
3.026984126984126888e+00,2.637542756939247132e-06,3.813403285086560735e-05
3.027777777777777679e+00,3.409419138025107422e-06,3.500431117661931523e-05
3.028571428571428470e+00,4.799495610084237764e-06,3.065639254285432711e-05
3.029365079365079261e+00,6.709265738896288220e-06,2.590011485216367438e-05
3.030158730158730052e+00,8.899899220167230816e-06,2.126324937452069374e-05
3.030952380952380842e+00,1.099067635447378201e-05,1.695502447692074063e-05
3.031746031746031633e+00,1.249422171458913974e-05,1.294617799886095377e-05
3.032539682539682424e+00,1.288891743283805025e-05,9.112857109680259549e-06
3.033333333333333215e+00,1.172388917433828591e-05,5.360941456626736011e-06
3.034126984126984006e+00,8.743498564930016442e-06,1.667150933265206326e-06
3.034920634920634797e+00,4.002058006438150348e-06,-1.967584372658297990e-06
3.035714285714285587e+00,-2.076949609981997732e-06,-5.602477759023607273e-06
3.036507936507936378e+00,-8.740629189754846659e-06,-9.411733952133796848e-06
3.037301587301587169e+00,-1.505562348218198392e-05,-1.365870611425147660e-05
3.038095238095237960e+00,-2.012506135815458482e-05,-1.856936133549475667e-05
3.038888888888888751e+00,-2.329644095811393437e-05,-2.412417948670400096e-05
3.039682539682539542e+00,-2.428845504886338919e-05,-2.982855865587689912e-05
3.040476190476190332e+00,-2.320498942405144489e-05,-3.454808633440076455e-05
3.041269841269841123e+00,-2.045185835948135701e-05,-3.649552733240633384e-05
3.042063492063491914e+00,-1.660189649968220153e-05,-3.343599254799632154e-05
3.042857142857142705e+00,-1.225908114003746073e-05,-2.313943077169010806e-05
3.043650793650793496e+00,-7.957670280337579723e-06,-4.047345699631873083e-06
3.044444444444444287e+00,-4.109065453317421478e-06,2.396823131802122052e-05
3.045238095238095077e+00,-9.889067192452925776e-07,5.896607690146387954e-05
3.046031746031745868e+00,1.252968384139093812e-06,9.667535173154421840e-05
3.046825396825396659e+00,2.576380189293779868e-06,1.308276813465803379e-04
3.047619047619047450e+00,3.038495084871679235e-06,1.541514178051740249e-04
3.048412698412698241e+00,2.787526988394894019e-06,1.598870774854685851e-04
3.049206349206349032e+00,2.058295450030381444e-06,1.434765243226373025e-04
3.049999999999999822e+00,1.161850028591701046e-06,1.039546215624883967e-04
3.050793650793650613e+00,4.609862336526979077e-07,4.459288377068010116e-05
3.051587301587301404e+00,3.264943370677890163e-07,-2.746753405604614455e-05
3.052380952380952195e+00,1.075186541472108088e-06,-1.025478929820431746e-04
3.053174603174602986e+00,2.898962226593573255e-06,-1.703717555516172551e-04
3.053968253968253777e+00,5.801838122205923968e-06,-2.220716113548232469e-04
3.054761904761904567e+00,9.565757880629678847e-06,-2.517362516364612512e-04
3.055555555555555358e+00,1.376327989043138679e-05,-2.571693667911225572e-04
3.056349206349206149e+00,1.782480030391759242e-05,-2.398139533141681822e-04
3.057142857142856940e+00,2.115186486760697916e-05,-2.040365000684073605e-04
3.057936507936507731e+00,2.325129031679070321e-05,-1.560622357660429980e-04
3.058730158730158522e+00,2.385274440424285203e-05,-1.028143719716072247e-04
3.059523809523809312e+00,2.297017352402922348e-05,-5.082559325870899955e-05
3.060317460317460103e+00,2.087943641335642236e-05,-5.336618919520132004e-06
3.061111111111110894e+00,1.801066529480294391e-05,3.031687442912096191e-05
3.061904761904761685e+00,1.478539777830805754e-05,5.493982874567674964e-05
3.062698412698412920e+00,1.145177654328543012e-05,6.929678917380702749e-05
3.063492063492063711e+00,7.977573134060613491e-06,7.556963952550772672e-05
3.064285714285714501e+00,4.049762631891689619e-06,7.660922501900922863e-05
3.065079365079365292e+00,-7.983305374231234155e-07,7.518408479147881444e-05
3.065873015873016083e+00,-6.955030641567708571e-06,7.340194478464159107e-05
3.066666666666666874e+00,-1.446663559435884536e-05,7.240226157345311256e-05
3.067460317460317665e+00,-2.284923164351278298e-05,7.233488664537454085e-05
3.068253968253968456e+00,-3.107459860376783948e-05,7.257734467347124873e-05
3.069047619047619246e+00,-3.776914256930195574e-05,7.210405335416174570e-05
3.069841269841270037e+00,-4.157530583639278555e-05,6.989948714926576712e-05
3.070634920634920828e+00,-4.154974711031738966e-05,6.530552834027700433e-05
3.071428571428571619e+00,-3.745308116661715100e-05,5.822045039692856264e-05
3.072222222222222410e+00,-2.983222949083207736e-05,4.912293300890077180e-05
3.073015873015873201e+00,-1.988045085259049344e-05,3.895477908582636997e-05
3.073809523809523991e+00,-9.137630347943498618e-06,2.892709297256675134e-05
3.074603174603174782e+00,8.664061479579951500e-07,2.030713553682674406e-05
3.075396825396825573e+00,8.924864306158992951e-06,1.421785975859743329e-05
3.076190476190476364e+00,1.435355273011415669e-05,1.146344775478160941e-05
3.076984126984127155e+00,1.704915724583745045e-05,1.238933406374306782e-05
3.077777777777777946e+00,1.741656405189234876e-05,1.678913816266815659e-05
3.078571428571428736e+00,1.620213320301696746e-05,2.387515803007198692e-05
3.079365079365079527e+00,1.428214058943526543e-05,3.232658691892250188e-05
3.080158730158730318e+00,1.245523080623757488e-05,4.042075097297623742e-05
3.080952380952381109e+00,1.127851353272025843e-05,4.624454691410380104e-05
3.081746031746031900e+00,1.097329299467246563e-05,4.797821574005548651e-05
3.082539682539682691e+00,1.141179144434138185e-05,4.423216886940546476e-05
3.083333333333333481e+00,1.218228499943325961e-05,3.439006768480278449e-05
3.084126984126984272e+00,1.271705184021077099e-05,1.887619215941733212e-05
3.084920634920635063e+00,1.245557885238068431e-05,-7.512006003150466613e-07
3.085714285714285854e+00,1.100633353002412292e-05,-2.195463768381842551e-05
3.086507936507936645e+00,8.268023270025122361e-06,-4.163190586193451733e-05
3.087301587301587436e+00,4.479145485684797084e-06,-5.672270257394662857e-05
3.088095238095238226e+00,1.817108052095439991e-07,-6.487068622386143351e-05
3.088888888888889017e+00,-3.894547586910597027e-06,-6.496903580849647513e-05
3.089682539682539808e+00,-7.002986387982643319e-06,-5.743365670136490846e-05
3.090476190476190599e+00,-8.566912224399500934e-06,-4.411575233483097620e-05
3.091269841269841390e+00,-8.333226781395833483e-06,-2.786611713081388176e-05
3.092063492063492181e+00,-6.443366082758356645e-06,-1.186849533989583061e-05
3.092857142857142971e+00,-3.391083628325746776e-06,1.064666080934680037e-06
3.093650793650793762e+00,1.247184186948841244e-07,9.029302507774736127e-06
3.094444444444444553e+00,3.401752310712867368e-06,1.126620266314634256e-05
3.095238095238095344e+00,5.917960234707155074e-06,8.088706514151739038e-06
3.096031746031746135e+00,7.433990792151506188e-06,6.035954178797098141e-07
3.096825396825396925e+00,7.986613886795941277e-06,-9.632681263592538103e-06
3.097619047619047716e+00,7.787327350567339564e-06,-2.091047999636969242e-05
3.098412698412698507e+00,7.072936332526164743e-06,-3.156893343111517793e-05
3.099206349206349298e+00,5.968627550535180937e-06,-4.011895507912947590e-05
3.100000000000000089e+00,4.417071874613244933e-06,-4.533712064566007777e-05
3.100793650793650880e+00,2.202940806684089766e-06,-4.637176022111943422e-05
3.101587301587301670e+00,-9.315272108213055074e-07,-4.285913591790195787e-05
3.102380952380952461e+00,-5.117836501140187870e-06,-3.500328512220387232e-05
3.103174603174603252e+00,-1.020013321350960897e-05,-2.356725516944838618e-05
3.103968253968254043e+00,-1.564522401942018142e-05,-9.763350769053534192e-06
3.104761904761904834e+00,-2.056660670456271736e-05,4.921079385469814722e-06
3.105555555555555625e+00,-2.386746587727598659e-05,1.891120483314607289e-05
3.106349206349206415e+00,-2.446749515036666312e-05,3.071770692906668763e-05
3.107142857142857206e+00,-2.155355535653196976e-05,3.909490261817354502e-05
3.107936507936507997e+00,-1.479358190048585397e-05,4.318848230621920780e-05
3.108730158730158788e+00,-4.470969637065491660e-06,4.266233239750943218e-05
3.109523809523809579e+00,8.481678359628397221e-06,3.777817459523114565e-05
3.110317460317460370e+00,2.255484698370428703e-05,2.939777633277866818e-05
3.111111111111111160e+00,3.583561908389374626e-05,1.888543598068385303e-05
3.111904761904761951e+00,4.626797490155813898e-05,7.904749322123654821e-06
3.112698412698412742e+00,5.197361381659013128e-05,-1.872405478676168432e-06
3.113492063492063533e+00,5.159193569936675831e-05,-9.096711230891498738e-06
3.114285714285714324e+00,4.457980832894480278e-05,-1.303575910764374481e-05
3.115079365079365115e+00,3.139698528583191524e-05,-1.374208669132749365e-05
3.115873015873015905e+00,1.350647395080923149e-05,-1.202123391371140590e-05
3.116666666666666696e+00,-6.844468197929687277e-06,-9.179947538551659270e-06
3.117460317460317487e+00,-2.703003725151468528e-05,-6.614546534344310820e-06
3.118253968253968278e+00,-4.453563249885810458e-05,-5.371651019271693493e-06
3.119047619047619069e+00,-5.739658045763095998e-05,-5.840922189175142882e-06
3.119841269841269860e+00,-6.447872648328081542e-05,-7.704755833562258450e-06
3.120634920634920650e+00,-6.556271832036141066e-05,-1.017927651418553858e-05
3.121428571428571441e+00,-6.125639040942691183e-05,-1.245813646723413815e-05
3.122222222222222232e+00,-5.278543737603305245e-05,-1.416053425935360837e-05
3.123015873015873023e+00,-4.171063115708422336e-05,-1.555259594471008008e-05
3.123809523809523814e+00,-2.961622956469319861e-05,-1.740299389535241616e-05
3.124603174603174605e+00,-1.782002456924012805e-05,-2.052022092304259924e-05
3.125396825396825395e+00,-7.161317866380574186e-06,-2.519258619959161992e-05
3.126190476190476186e+00,2.085303864311926877e-06,-3.080421111968602212e-05
3.126984126984126977e+00,1.014970283883126026e-05,-3.580826381563435016e-05
3.127777777777777768e+00,1.757648111678466579e-05,-3.807177015221048727e-05
3.128571428571428559e+00,2.495756363316842935e-05,-3.545991393544669149e-05
3.129365079365079350e+00,3.266000471130514669e-05,-2.646209669155530066e-05
3.130158730158730140e+00,4.062465872330034888e-05,-1.068537922623420803e-05
3.130952380952380931e+00,4.829420010601815635e-05,1.088094002323784971e-05
3.131746031746031722e+00,5.469444772174975202e-05,3.584732191956356090e-05
3.132539682539682513e+00,5.864950494553448907e-05,6.063393461618513092e-05
3.133333333333333304e+00,5.907209263268595200e-05,8.090024133904202743e-05
3.134126984126984095e+00,5.524794724486128587e-05,9.220581330888227996e-05
3.134920634920634885e+00,4.703433209466625767e-05,9.088909147088581437e-05
3.135714285714285676e+00,3.491955777564831651e-05,7.505287770940431474e-05
3.136507936507936467e+00,1.993796561179371246e-05,4.540761194291564591e-05
3.137301587301587258e+00,3.484527907737978262e-06,5.636880405944718023e-06
3.138095238095238049e+00,-1.290316381129401243e-05,-3.799015696316978429e-05
3.138888888888888840e+00,-2.774372262521255893e-05,-7.780385096044837407e-05
3.139682539682539630e+00,-3.977489824401843409e-05,-1.064493235795057295e-04
3.140476190476190421e+00,-4.808269223047972939e-05,-1.186292017109783972e-04
3.141269841269841212e+00,-5.219105601283581064e-05,-1.123343922221627604e-04
3.142063492063492003e+00,-5.209507260453854658e-05,-8.920236158790812483e-05
3.142857142857142794e+00,-4.822647383259832265e-05,-5.394967767933495870e-05
3.143650793650793585e+00,-4.135976680116960663e-05,-1.312138037280162924e-05
3.144444444444444375e+00,-3.248380511265669244e-05,2.643313694288613091e-05
3.145238095238095166e+00,-2.266756706283657271e-05,5.894574487468329509e-05
3.146031746031745957e+00,-1.294020068198908422e-05,8.068458071763325728e-05
3.146825396825396748e+00,-4.191871716395355956e-06,9.035493576462812074e-05
3.147619047619047539e+00,2.905177889147260798e-06,8.897519893218717795e-05
3.148412698412698330e+00,7.952411695522561781e-06,7.935419652036629096e-05
3.149206349206349120e+00,1.084767362165129914e-05,6.533166375541499943e-05
3.149999999999999911e+00,1.176445293575025417e-05,5.093925876512135159e-05
3.150793650793650702e+00,1.108674913658494277e-05,3.962083409594726902e-05
3.151587301587301493e+00,9.312680976876577696e-06,3.362575773490902918e-05
3.152380952380952284e+00,6.951577448082986361e-06,3.365523706662684300e-05
3.153174603174603075e+00,4.443011566948265549e-06,3.880015935522582746e-05
3.153968253968253865e+00,2.119931665775910776e-06,4.676552488511459012e-05
3.154761904761904656e+00,2.225187539675550282e-07,5.433612679095009708e-05
3.155555555555555447e+00,-1.050908044533368524e-06,5.800526768491539632e-05
3.156349206349206238e+00,-1.486677257806437488e-06,5.466578468194209625e-05
3.157142857142857029e+00,-8.284494360849804357e-07,4.225106776844242076e-05
3.157936507936507819e+00,1.193769267087690902e-06,2.021578778852609621e-05
3.158730158730158610e+00,4.773542244823700202e-06,-1.023385127208165464e-05
3.159523809523809401e+00,9.898001666765613433e-06,-4.621197471277571747e-05
3.160317460317460192e+00,1.622153914208789019e-05,-8.352707413796462224e-05
3.161111111111110983e+00,2.299935753953243623e-05,-1.173032586359241990e-04
3.161904761904761774e+00,2.913253653784345936e-05,-1.427466616088794629e-04
3.162698412698412564e+00,3.334825549032514441e-05,-1.559249147107775199e-04
3.163492063492063355e+00,3.448956540287771645e-05,-1.544223483868779195e-04
3.164285714285714146e+00,3.183597172626821291e-05,-1.377599266148531458e-04
3.165079365079364937e+00,2.534692569411847341e-05,-1.075200830666718683e-04
3.165873015873015728e+00,1.573672704841503630e-05,-6.716773856820589081e-05
3.166666666666666519e+00,4.348292317813428949e-06,-2.159315643627433295e-05
3.167460317460317309e+00,-7.134913243485568354e-06,2.356945627308553457e-05
3.168253968253968100e+00,-1.705005960967436184e-05,6.275725968277537370e-05
3.169047619047618891e+00,-2.409020853311541555e-05,9.130300377868728651e-05
3.169841269841269682e+00,-2.753671604766787066e-05,1.061312727929693023e-04
3.170634920634920473e+00,-2.734877376927878631e-05,1.062057102647185578e-04
3.171428571428571264e+00,-2.410641118565092316e-05,9.264526239026997121e-05
3.172222222222222054e+00,-1.883248906133826316e-05,6.849094960793532532e-05
3.173015873015872845e+00,-1.274180241009763302e-05,3.818068761611703049e-05
3.173809523809523636e+00,-6.979945183138443273e-06,6.843091227204012344e-06
3.174603174603174427e+00,-2.413681677693791763e-06,-2.046957933786112458e-05
3.175396825396825218e+00,4.858858554319228694e-07,-3.950851195038832051e-05
3.176190476190476009e+00,1.657917078069042450e-06,-4.743715018380498775e-05
3.176984126984126799e+00,1.383206312049038733e-06,-4.325822300853541705e-05
3.177777777777777590e+00,1.665519201204933442e-07,-2.800044326509380229e-05
3.178571428571428381e+00,-1.394763504343121541e-06,-4.605898005380029471e-06
3.179365079365079172e+00,-2.730209959204305562e-06,2.252557383163351839e-05
3.180158730158729963e+00,-3.388909466032679906e-06,4.832012306834006964e-05
3.180952380952380754e+00,-3.101700967024647919e-06,6.802409908147297743e-05
3.181746031746031544e+00,-1.812566526469658734e-06,7.818856438293862200e-05
3.182539682539682335e+00,3.197295256903153770e-07,7.738512928333159059e-05
3.183333333333333126e+00,2.950389300614288509e-06,6.645085916773450460e-05
3.184126984126983917e+00,5.609160135222379536e-06,4.818822755776675160e-05
3.184920634920634708e+00,7.790413433639453873e-06,2.659094708281897681e-05
3.185714285714285499e+00,9.059644057010546076e-06,5.787107025833852696e-06
3.186507936507936289e+00,9.150019340543273294e-06,-1.102635824755961080e-05
3.187301587301587080e+00,8.017520439869087171e-06,-2.235438789663683149e-05
3.188095238095238315e+00,5.834225239353078643e-06,-2.863457714615910850e-05
3.188888888888889106e+00,2.922967615969734727e-06,-3.184706356515365120e-05
3.189682539682539897e+00,-3.396330161085617377e-07,-3.464460223786622063e-05
3.190476190476190688e+00,-3.613647611356265477e-06,-3.932166174770533048e-05
3.191269841269841478e+00,-6.648538256878910002e-06,-4.698768316586586052e-05
3.192063492063492269e+00,-9.286755864143133907e-06,-5.720952636352051281e-05
3.192857142857143060e+00,-1.142867738401955425e-05,-6.819956002703982665e-05
3.193650793650793851e+00,-1.298385641426763358e-05,-7.743567513418925621e-05
3.194444444444444642e+00,-1.383758155659349384e-05,-8.247387190313621916e-05
3.195238095238095433e+00,-1.385444125232058080e-05,-8.167914336314076437e-05
3.196031746031746223e+00,-1.292315541219895855e-05,-7.465228040658231524e-05
3.196825396825397014e+00,-1.102530154823609882e-05,-6.224603610211570882e-05
3.197619047619047805e+00,-8.294577266784831584e-06,-4.620518424956797046e-05
3.198412698412698596e+00,-5.032472201691524423e-06,-2.858484517844269381e-05
3.199206349206349387e+00,-1.664028859085462073e-06,-1.116074357054886296e-05
3.200000000000000178e+00,1.354800179328683137e-06,4.972664233199072234e-06
3.200793650793650968e+00,3.645335049562174963e-06,1.950220106075128715e-05
3.201587301587301759e+00,4.992912739359817719e-06,3.269268732272394122e-05
3.202380952380952550e+00,5.386498826783703459e-06,4.498250899274820161e-05
3.203174603174603341e+00,5.003842029880428227e-06,5.654062036121102727e-05
3.203968253968254132e+00,4.152618342426858546e-06,6.694769314107349009e-05
3.204761904761904923e+00,3.189421353893177786e-06,7.511214817553071897e-05
3.205555555555555713e+00,2.440242514589825258e-06,7.945430055043829862e-05
3.206349206349206504e+00,2.139558030554488761e-06,7.831559177048244102e-05
3.207142857142857295e+00,2.395533232731994473e-06,7.049010347384702848e-05
3.207936507936508086e+00,3.181160107869663500e-06,5.573759052611604894e-05
3.208730158730158877e+00,4.347143260320967963e-06,3.512646991336486823e-05
3.209523809523809668e+00,5.651371221368696828e-06,1.108174942878862354e-05
3.210317460317460458e+00,6.800477126878056987e-06,-1.291832889396762178e-05
3.211111111111111249e+00,7.499864730581681808e-06,-3.295587178439846716e-05
3.211904761904762040e+00,7.508575775520244558e-06,-4.546161593632817659e-05
3.212698412698412831e+00,6.694204397915152148e-06,-4.798674007124308934e-05
3.213492063492063622e+00,5.080902780566592463e-06,-3.977411375022248694e-05
3.214285714285714413e+00,2.880865237703816426e-06,-2.200890068355021008e-05
3.215079365079365203e+00,4.978383370241690982e-07,2.287532325047095839e-06
3.215873015873015994e+00,-1.507913043139598635e-06,2.869276877755750575e-05
3.216666666666666785e+00,-2.498948754426573786e-06,5.208749198069884698e-05
3.217460317460317576e+00,-1.881488425352768417e-06,6.754677521803048200e-05
3.218253968253968367e+00,7.464748941166776817e-07,7.130136267628699284e-05
3.219047619047619158e+00,5.446656658620135680e-06,6.160147063503456060e-05
3.219841269841269948e+00,1.182956484661790032e-05,3.927623082470992641e-05
3.220634920634920739e+00,1.902412533545103551e-05,7.793219817495075912e-06
3.221428571428571530e+00,2.576338746127800113e-05,-2.728682688866673978e-05
3.222222222222222321e+00,3.059709119260255373e-05,-5.940386543510286095e-05
3.223015873015873112e+00,3.220085467376189480e-05,-8.240647786745186392e-05
3.223809523809523903e+00,2.970667575870060387e-05,-9.191893616806544179e-05
3.224603174603174693e+00,2.295303398177332308e-05,-8.630641349897774422e-05
3.225396825396825484e+00,1.256648889506389078e-05,-6.699285515713386519e-05
3.226190476190476275e+00,-1.577880430238727835e-07,-3.807517684883100707e-05
3.226984126984127066e+00,-1.353609436080532649e-05,-5.365117831701870646e-06
3.227777777777777857e+00,-2.584246177871852573e-05,2.488173642305229732e-05
3.228571428571428648e+00,-3.561671603909905215e-05,4.723946170543331165e-05
3.229365079365079438e+00,-4.186327727908748300e-05,5.809863927799213370e-05
3.230158730158730229e+00,-4.412292233287608528e-05,5.616575667067380615e-05
3.230952380952381020e+00,-4.244349974831328849e-05,4.242015648064805021e-05
3.231746031746031811e+00,-3.729236867946506445e-05,1.963600722421728393e-05
3.232539682539682602e+00,-2.944451564220253203e-05,-8.312958364500564306e-06
3.233333333333333393e+00,-1.986065014520753340e-05,-3.714273024844871038e-05
3.234126984126984183e+00,-9.556114221424825666e-06,-6.271051101423324905e-05
3.234920634920634974e+00,5.372938688356170784e-07,-8.141821125778932341e-05
3.235714285714285765e+00,9.702224047204581039e-06,-9.053172404181775732e-05
3.236507936507936556e+00,1.753193328071628434e-05,-8.847159613862366810e-05
